Created as New Dataset,4 FMC American Viscose
cm-1,%T
4000.00,97.22
3999.00,97.25
3998.00,97.27
3997.00,97.29
3996.00,97.29
3995.00,97.29
3994.00,97.29
3993.00,97.30
3992.00,97.29
3991.00,97.28
3990.00,97.26
3989.00,97.24
3988.00,97.22
3987.00,97.20
3986.00,97.20
3985.00,97.20
3984.00,97.20
3983.00,97.21
3982.00,97.22
3981.00,97.22
3980.00,97.23
3979.00,97.23
3978.00,97.23
3977.00,97.24
3976.00,97.25
3975.00,97.24
3974.00,97.22
3973.00,97.19
3972.00,97.17
3971.00,97.16
3970.00,97.18
3969.00,97.20
3968.00,97.22
3967.00,97.23
3966.00,97.24
3965.00,97.25
3964.00,97.26
3963.00,97.28
3962.00,97.28
3961.00,97.28
3960.00,97.27
3959.00,97.26
3958.00,97.26
3957.00,97.26
3956.00,97.27
3955.00,97.28
3954.00,97.28
3953.00,97.27
3952.00,97.26
3951.00,97.25
3950.00,97.26
3949.00,97.27
3948.00,97.28
3947.00,97.29
3946.00,97.29
3945.00,97.29
3944.00,97.30
3943.00,97.31
3942.00,97.31
3941.00,97.30
3940.00,97.28
3939.00,97.26
3938.00,97.25
3937.00,97.25
3936.00,97.24
3935.00,97.23
3934.00,97.21
3933.00,97.20
3932.00,97.20
3931.00,97.22
3930.00,97.23
3929.00,97.23
3928.00,97.22
3927.00,97.22
3926.00,97.22
3925.00,97.23
3924.00,97.26
3923.00,97.28
3922.00,97.28
3921.00,97.27
3920.00,97.24
3919.00,97.22
3918.00,97.20
3917.00,97.20
3916.00,97.21
3915.00,97.20
3914.00,97.20
3913.00,97.19
3912.00,97.18
3911.00,97.19
3910.00,97.19
3909.00,97.19
3908.00,97.20
3907.00,97.20
3906.00,97.21
3905.00,97.22
3904.00,97.23
3903.00,97.23
3902.00,97.21
3901.00,97.17
3900.00,97.14
3899.00,97.14
3898.00,97.16
3897.00,97.18
3896.00,97.21
3895.00,97.22
3894.00,97.22
3893.00,97.21
3892.00,97.20
3891.00,97.20
3890.00,97.22
3889.00,97.23
3888.00,97.22
3887.00,97.19
3886.00,97.18
3885.00,97.17
3884.00,97.16
3883.00,97.14
3882.00,97.14
3881.00,97.15
3880.00,97.17
3879.00,97.18
3878.00,97.16
3877.00,97.13
3876.00,97.11
3875.00,97.11
3874.00,97.13
3873.00,97.14
3872.00,97.12
3871.00,97.10
3870.00,97.10
3869.00,97.11
3868.00,97.10
3867.00,97.07
3866.00,97.05
3865.00,97.07
3864.00,97.09
3863.00,97.11
3862.00,97.11
3861.00,97.12
3860.00,97.13
3859.00,97.13
3858.00,97.12
3857.00,97.09
3856.00,97.05
3855.00,97.02
3854.00,97.00
3853.00,97.02
3852.00,97.03
3851.00,97.03
3850.00,97.03
3849.00,97.05
3848.00,97.08
3847.00,97.10
3846.00,97.11
3845.00,97.10
3844.00,97.10
3843.00,97.10
3842.00,97.09
3841.00,97.07
3840.00,97.04
3839.00,97.02
3838.00,97.02
3837.00,97.01
3836.00,97.01
3835.00,97.00
3834.00,97.00
3833.00,97.00
3832.00,97.02
3831.00,97.04
3830.00,97.05
3829.00,97.04
3828.00,97.03
3827.00,97.02
3826.00,97.01
3825.00,97.00
3824.00,96.99
3823.00,96.97
3822.00,96.96
3821.00,96.97
3820.00,96.98
3819.00,96.97
3818.00,96.96
3817.00,96.96
3816.00,96.98
3815.00,96.99
3814.00,96.97
3813.00,96.95
3812.00,96.95
3811.00,96.99
3810.00,97.03
3809.00,97.05
3808.00,97.03
3807.00,97.02
3806.00,97.01
3805.00,96.99
3804.00,96.95
3803.00,96.91
3802.00,96.89
3801.00,96.89
3800.00,96.89
3799.00,96.87
3798.00,96.88
3797.00,96.91
3796.00,96.96
3795.00,96.99
3794.00,97.00
3793.00,97.00
3792.00,97.00
3791.00,97.02
3790.00,97.04
3789.00,97.05
3788.00,97.06
3787.00,97.06
3786.00,97.04
3785.00,97.03
3784.00,97.02
3783.00,97.02
3782.00,97.02
3781.00,97.02
3780.00,97.01
3779.00,97.02
3778.00,97.02
3777.00,97.03
3776.00,97.02
3775.00,97.00
3774.00,96.98
3773.00,96.96
3772.00,96.94
3771.00,96.93
3770.00,96.92
3769.00,96.91
3768.00,96.88
3767.00,96.85
3766.00,96.83
3765.00,96.84
3764.00,96.85
3763.00,96.86
3762.00,96.85
3761.00,96.86
3760.00,96.88
3759.00,96.89
3758.00,96.90
3757.00,96.89
3756.00,96.89
3755.00,96.89
3754.00,96.87
3753.00,96.84
3752.00,96.77
3751.00,96.71
3750.00,96.67
3749.00,96.67
3748.00,96.69
3747.00,96.71
3746.00,96.71
3745.00,96.72
3744.00,96.76
3743.00,96.79
3742.00,96.79
3741.00,96.78
3740.00,96.81
3739.00,96.84
3738.00,96.85
3737.00,96.83
3736.00,96.80
3735.00,96.77
3734.00,96.75
3733.00,96.74
3732.00,96.76
3731.00,96.79
3730.00,96.80
3729.00,96.79
3728.00,96.78
3727.00,96.79
3726.00,96.81
3725.00,96.83
3724.00,96.84
3723.00,96.84
3722.00,96.84
3721.00,96.83
3720.00,96.81
3719.00,96.79
3718.00,96.78
3717.00,96.78
3716.00,96.79
3715.00,96.80
3714.00,96.81
3713.00,96.81
3712.00,96.79
3711.00,96.75
3710.00,96.72
3709.00,96.72
3708.00,96.74
3707.00,96.77
3706.00,96.80
3705.00,96.82
3704.00,96.82
3703.00,96.80
3702.00,96.79
3701.00,96.78
3700.00,96.77
3699.00,96.77
3698.00,96.78
3697.00,96.79
3696.00,96.80
3695.00,96.79
3694.00,96.76
3693.00,96.71
3692.00,96.66
3691.00,96.63
3690.00,96.62
3689.00,96.63
3688.00,96.64
3687.00,96.64
3686.00,96.64
3685.00,96.65
3684.00,96.66
3683.00,96.67
3682.00,96.64
3681.00,96.60
3680.00,96.56
3679.00,96.54
3678.00,96.51
3677.00,96.47
3676.00,96.44
3675.00,96.42
3674.00,96.40
3673.00,96.37
3672.00,96.34
3671.00,96.34
3670.00,96.34
3669.00,96.35
3668.00,96.34
3667.00,96.33
3666.00,96.34
3665.00,96.37
3664.00,96.38
3663.00,96.37
3662.00,96.34
3661.00,96.30
3660.00,96.28
3659.00,96.28
3658.00,96.27
3657.00,96.26
3656.00,96.23
3655.00,96.19
3654.00,96.14
3653.00,96.09
3652.00,96.05
3651.00,96.02
3650.00,95.97
3649.00,95.94
3648.00,95.92
3647.00,95.92
3646.00,95.93
3645.00,95.92
3644.00,95.90
3643.00,95.88
3642.00,95.87
3641.00,95.87
3640.00,95.89
3639.00,95.90
3638.00,95.91
3637.00,95.90
3636.00,95.89
3635.00,95.88
3634.00,95.87
3633.00,95.86
3632.00,95.84
3631.00,95.81
3630.00,95.77
3629.00,95.73
3628.00,95.69
3627.00,95.63
3626.00,95.59
3625.00,95.58
3624.00,95.60
3623.00,95.62
3622.00,95.63
3621.00,95.63
3620.00,95.62
3619.00,95.61
3618.00,95.59
3617.00,95.56
3616.00,95.53
3615.00,95.51
3614.00,95.51
3613.00,95.51
3612.00,95.51
3611.00,95.48
3610.00,95.45
3609.00,95.45
3608.00,95.46
3607.00,95.47
3606.00,95.47
3605.00,95.45
3604.00,95.43
3603.00,95.41
3602.00,95.40
3601.00,95.39
3600.00,95.37
3599.00,95.35
3598.00,95.34
3597.00,95.33
3596.00,95.32
3595.00,95.30
3594.00,95.29
3593.00,95.29
3592.00,95.31
3591.00,95.33
3590.00,95.34
3589.00,95.34
3588.00,95.34
3587.00,95.33
3586.00,95.31
3585.00,95.28
3584.00,95.25
3583.00,95.23
3582.00,95.21
3581.00,95.19
3580.00,95.16
3579.00,95.15
3578.00,95.14
3577.00,95.13
3576.00,95.11
3575.00,95.07
3574.00,95.05
3573.00,95.03
3572.00,95.03
3571.00,95.02
3570.00,95.01
3569.00,95.00
3568.00,95.00
3567.00,95.00
3566.00,94.99
3565.00,94.95
3564.00,94.90
3563.00,94.86
3562.00,94.83
3561.00,94.82
3560.00,94.80
3559.00,94.77
3558.00,94.75
3557.00,94.72
3556.00,94.71
3555.00,94.69
3554.00,94.67
3553.00,94.66
3552.00,94.65
3551.00,94.64
3550.00,94.62
3549.00,94.59
3548.00,94.56
3547.00,94.54
3546.00,94.53
3545.00,94.53
3544.00,94.52
3543.00,94.50
3542.00,94.46
3541.00,94.42
3540.00,94.39
3539.00,94.38
3538.00,94.38
3537.00,94.38
3536.00,94.38
3535.00,94.37
3534.00,94.35
3533.00,94.33
3532.00,94.31
3531.00,94.30
3530.00,94.29
3529.00,94.28
3528.00,94.28
3527.00,94.27
3526.00,94.27
3525.00,94.28
3524.00,94.28
3523.00,94.28
3522.00,94.26
3521.00,94.23
3520.00,94.21
3519.00,94.18
3518.00,94.16
3517.00,94.14
3516.00,94.13
3515.00,94.12
3514.00,94.13
3513.00,94.13
3512.00,94.11
3511.00,94.08
3510.00,94.06
3509.00,94.04
3508.00,94.04
3507.00,94.04
3506.00,94.03
3505.00,94.01
3504.00,93.98
3503.00,93.96
3502.00,93.95
3501.00,93.95
3500.00,93.95
3499.00,93.93
3498.00,93.91
3497.00,93.89
3496.00,93.88
3495.00,93.89
3494.00,93.90
3493.00,93.92
3492.00,93.92
3491.00,93.90
3490.00,93.88
3489.00,93.85
3488.00,93.85
3487.00,93.85
3486.00,93.86
3485.00,93.87
3484.00,93.85
3483.00,93.83
3482.00,93.82
3481.00,93.82
3480.00,93.82
3479.00,93.83
3478.00,93.82
3477.00,93.81
3476.00,93.80
3475.00,93.80
3474.00,93.81
3473.00,93.81
3472.00,93.80
3471.00,93.79
3470.00,93.79
3469.00,93.80
3468.00,93.82
3467.00,93.83
3466.00,93.82
3465.00,93.82
3464.00,93.81
3463.00,93.81
3462.00,93.82
3461.00,93.83
3460.00,93.84
3459.00,93.86
3458.00,93.88
3457.00,93.89
3456.00,93.89
3455.00,93.88
3454.00,93.87
3453.00,93.86
3452.00,93.86
3451.00,93.86
3450.00,93.86
3449.00,93.87
3448.00,93.89
3447.00,93.93
3446.00,93.97
3445.00,93.99
3444.00,94.00
3443.00,94.00
3442.00,93.99
3441.00,93.98
3440.00,93.98
3439.00,94.00
3438.00,94.02
3437.00,94.04
3436.00,94.05
3435.00,94.06
3434.00,94.08
3433.00,94.10
3432.00,94.13
3431.00,94.14
3430.00,94.16
3429.00,94.17
3428.00,94.18
3427.00,94.19
3426.00,94.19
3425.00,94.18
3424.00,94.17
3423.00,94.16
3422.00,94.16
3421.00,94.18
3420.00,94.21
3419.00,94.24
3418.00,94.26
3417.00,94.28
3416.00,94.29
3415.00,94.31
3414.00,94.32
3413.00,94.33
3412.00,94.33
3411.00,94.32
3410.00,94.31
3409.00,94.31
3408.00,94.33
3407.00,94.34
3406.00,94.34
3405.00,94.35
3404.00,94.36
3403.00,94.38
3402.00,94.39
3401.00,94.41
3400.00,94.42
3399.00,94.42
3398.00,94.42
3397.00,94.42
3396.00,94.42
3395.00,94.44
3394.00,94.46
3393.00,94.47
3392.00,94.48
3391.00,94.48
3390.00,94.48
3389.00,94.48
3388.00,94.48
3387.00,94.48
3386.00,94.50
3385.00,94.52
3384.00,94.54
3383.00,94.55
3382.00,94.55
3381.00,94.53
3380.00,94.52
3379.00,94.52
3378.00,94.54
3377.00,94.56
3376.00,94.60
3375.00,94.64
3374.00,94.66
3373.00,94.67
3372.00,94.66
3371.00,94.65
3370.00,94.64
3369.00,94.65
3368.00,94.66
3367.00,94.66
3366.00,94.65
3365.00,94.65
3364.00,94.64
3363.00,94.65
3362.00,94.66
3361.00,94.68
3360.00,94.69
3359.00,94.70
3358.00,94.70
3357.00,94.70
3356.00,94.70
3355.00,94.71
3354.00,94.73
3353.00,94.75
3352.00,94.78
3351.00,94.79
3350.00,94.79
3349.00,94.79
3348.00,94.79
3347.00,94.80
3346.00,94.81
3345.00,94.83
3344.00,94.85
3343.00,94.88
3342.00,94.90
3341.00,94.91
3340.00,94.90
3339.00,94.90
3338.00,94.89
3337.00,94.91
3336.00,94.94
3335.00,94.95
3334.00,94.95
3333.00,94.93
3332.00,94.91
3331.00,94.91
3330.00,94.93
3329.00,94.96
3328.00,94.98
3327.00,94.98
3326.00,94.97
3325.00,94.96
3324.00,94.97
3323.00,94.99
3322.00,95.02
3321.00,95.04
3320.00,95.04
3319.00,95.03
3318.00,95.02
3317.00,95.03
3316.00,95.05
3315.00,95.07
3314.00,95.08
3313.00,95.08
3312.00,95.08
3311.00,95.09
3310.00,95.10
3309.00,95.11
3308.00,95.09
3307.00,95.07
3306.00,95.05
3305.00,95.05
3304.00,95.07
3303.00,95.10
3302.00,95.12
3301.00,95.12
3300.00,95.12
3299.00,95.11
3298.00,95.11
3297.00,95.11
3296.00,95.11
3295.00,95.10
3294.00,95.09
3293.00,95.09
3292.00,95.10
3291.00,95.11
3290.00,95.12
3289.00,95.13
3288.00,95.15
3287.00,95.16
3286.00,95.17
3285.00,95.18
3284.00,95.20
3283.00,95.20
3282.00,95.20
3281.00,95.20
3280.00,95.19
3279.00,95.19
3278.00,95.19
3277.00,95.19
3276.00,95.18
3275.00,95.18
3274.00,95.18
3273.00,95.20
3272.00,95.22
3271.00,95.25
3270.00,95.27
3269.00,95.28
3268.00,95.28
3267.00,95.26
3266.00,95.26
3265.00,95.26
3264.00,95.27
3263.00,95.29
3262.00,95.30
3261.00,95.31
3260.00,95.31
3259.00,95.31
3258.00,95.30
3257.00,95.30
3256.00,95.30
3255.00,95.30
3254.00,95.31
3253.00,95.32
3252.00,95.32
3251.00,95.33
3250.00,95.33
3249.00,95.33
3248.00,95.34
3247.00,95.34
3246.00,95.34
3245.00,95.33
3244.00,95.31
3243.00,95.31
3242.00,95.31
3241.00,95.33
3240.00,95.34
3239.00,95.36
3238.00,95.37
3237.00,95.36
3236.00,95.35
3235.00,95.34
3234.00,95.34
3233.00,95.35
3232.00,95.37
3231.00,95.38
3230.00,95.39
3229.00,95.39
3228.00,95.38
3227.00,95.38
3226.00,95.38
3225.00,95.39
3224.00,95.40
3223.00,95.41
3222.00,95.41
3221.00,95.41
3220.00,95.42
3219.00,95.43
3218.00,95.43
3217.00,95.43
3216.00,95.43
3215.00,95.44
3214.00,95.46
3213.00,95.46
3212.00,95.46
3211.00,95.45
3210.00,95.44
3209.00,95.44
3208.00,95.45
3207.00,95.46
3206.00,95.48
3205.00,95.49
3204.00,95.50
3203.00,95.50
3202.00,95.50
3201.00,95.51
3200.00,95.53
3199.00,95.54
3198.00,95.55
3197.00,95.55
3196.00,95.55
3195.00,95.55
3194.00,95.56
3193.00,95.58
3192.00,95.58
3191.00,95.58
3190.00,95.57
3189.00,95.56
3188.00,95.56
3187.00,95.57
3186.00,95.59
3185.00,95.59
3184.00,95.59
3183.00,95.59
3182.00,95.61
3181.00,95.63
3180.00,95.64
3179.00,95.65
3178.00,95.64
3177.00,95.62
3176.00,95.61
3175.00,95.61
3174.00,95.61
3173.00,95.62
3172.00,95.61
3171.00,95.60
3170.00,95.60
3169.00,95.61
3168.00,95.63
3167.00,95.64
3166.00,95.66
3165.00,95.67
3164.00,95.67
3163.00,95.67
3162.00,95.66
3161.00,95.65
3160.00,95.64
3159.00,95.64
3158.00,95.65
3157.00,95.66
3156.00,95.67
3155.00,95.68
3154.00,95.68
3153.00,95.69
3152.00,95.69
3151.00,95.68
3150.00,95.68
3149.00,95.69
3148.00,95.72
3147.00,95.75
3146.00,95.77
3145.00,95.78
3144.00,95.77
3143.00,95.76
3142.00,95.75
3141.00,95.73
3140.00,95.72
3139.00,95.72
3138.00,95.72
3137.00,95.73
3136.00,95.74
3135.00,95.75
3134.00,95.75
3133.00,95.75
3132.00,95.75
3131.00,95.75
3130.00,95.76
3129.00,95.78
3128.00,95.80
3127.00,95.81
3126.00,95.83
3125.00,95.84
3124.00,95.83
3123.00,95.83
3122.00,95.82
3121.00,95.81
3120.00,95.80
3119.00,95.79
3118.00,95.77
3117.00,95.77
3116.00,95.78
3115.00,95.79
3114.00,95.81
3113.00,95.82
3112.00,95.83
3111.00,95.82
3110.00,95.82
3109.00,95.81
3108.00,95.81
3107.00,95.82
3106.00,95.82
3105.00,95.83
3104.00,95.83
3103.00,95.83
3102.00,95.83
3101.00,95.83
3100.00,95.83
3099.00,95.82
3098.00,95.82
3097.00,95.82
3096.00,95.82
3095.00,95.83
3094.00,95.83
3093.00,95.84
3092.00,95.84
3091.00,95.83
3090.00,95.83
3089.00,95.82
3088.00,95.82
3087.00,95.81
3086.00,95.82
3085.00,95.83
3084.00,95.83
3083.00,95.83
3082.00,95.83
3081.00,95.83
3080.00,95.85
3079.00,95.86
3078.00,95.87
3077.00,95.86
3076.00,95.84
3075.00,95.83
3074.00,95.84
3073.00,95.84
3072.00,95.85
3071.00,95.85
3070.00,95.84
3069.00,95.83
3068.00,95.83
3067.00,95.83
3066.00,95.84
3065.00,95.84
3064.00,95.84
3063.00,95.84
3062.00,95.84
3061.00,95.83
3060.00,95.84
3059.00,95.84
3058.00,95.84
3057.00,95.84
3056.00,95.83
3055.00,95.82
3054.00,95.82
3053.00,95.82
3052.00,95.82
3051.00,95.82
3050.00,95.82
3049.00,95.82
3048.00,95.81
3047.00,95.80
3046.00,95.78
3045.00,95.77
3044.00,95.77
3043.00,95.77
3042.00,95.77
3041.00,95.78
3040.00,95.77
3039.00,95.76
3038.00,95.75
3037.00,95.75
3036.00,95.76
3035.00,95.76
3034.00,95.74
3033.00,95.73
3032.00,95.71
3031.00,95.69
3030.00,95.67
3029.00,95.66
3028.00,95.65
3027.00,95.65
3026.00,95.64
3025.00,95.63
3024.00,95.63
3023.00,95.62
3022.00,95.61
3021.00,95.59
3020.00,95.58
3019.00,95.58
3018.00,95.58
3017.00,95.57
3016.00,95.56
3015.00,95.55
3014.00,95.54
3013.00,95.54
3012.00,95.55
3011.00,95.56
3010.00,95.56
3009.00,95.56
3008.00,95.55
3007.00,95.54
3006.00,95.52
3005.00,95.51
3004.00,95.49
3003.00,95.48
3002.00,95.46
3001.00,95.44
3000.00,95.42
2999.00,95.40
2998.00,95.38
2997.00,95.36
2996.00,95.35
2995.00,95.35
2994.00,95.34
2993.00,95.33
2992.00,95.31
2991.00,95.29
2990.00,95.27
2989.00,95.25
2988.00,95.25
2987.00,95.25
2986.00,95.26
2985.00,95.27
2984.00,95.27
2983.00,95.25
2982.00,95.22
2981.00,95.19
2980.00,95.16
2979.00,95.13
2978.00,95.10
2977.00,95.07
2976.00,95.04
2975.00,95.01
2974.00,94.98
2973.00,94.93
2972.00,94.89
2971.00,94.84
2970.00,94.79
2969.00,94.72
2968.00,94.66
2967.00,94.60
2966.00,94.54
2965.00,94.50
2964.00,94.46
2963.00,94.42
2962.00,94.39
2961.00,94.36
2960.00,94.33
2959.00,94.31
2958.00,94.30
2957.00,94.29
2956.00,94.27
2955.00,94.25
2954.00,94.22
2953.00,94.18
2952.00,94.14
2951.00,94.10
2950.00,94.07
2949.00,94.04
2948.00,94.03
2947.00,94.03
2946.00,94.02
2945.00,93.98
2944.00,93.94
2943.00,93.89
2942.00,93.86
2941.00,93.85
2940.00,93.86
2939.00,93.87
2938.00,93.88
2937.00,93.87
2936.00,93.86
2935.00,93.85
2934.00,93.84
2933.00,93.86
2932.00,93.89
2931.00,93.92
2930.00,93.94
2929.00,93.97
2928.00,93.99
2927.00,94.01
2926.00,94.03
2925.00,94.05
2924.00,94.07
2923.00,94.10
2922.00,94.14
2921.00,94.18
2920.00,94.21
2919.00,94.23
2918.00,94.25
2917.00,94.27
2916.00,94.31
2915.00,94.35
2914.00,94.37
2913.00,94.38
2912.00,94.38
2911.00,94.37
2910.00,94.37
2909.00,94.37
2908.00,94.38
2907.00,94.39
2906.00,94.39
2905.00,94.39
2904.00,94.39
2903.00,94.40
2902.00,94.41
2901.00,94.42
2900.00,94.42
2899.00,94.41
2898.00,94.40
2897.00,94.39
2896.00,94.39
2895.00,94.39
2894.00,94.39
2893.00,94.38
2892.00,94.39
2891.00,94.39
2890.00,94.40
2889.00,94.40
2888.00,94.40
2887.00,94.40
2886.00,94.40
2885.00,94.40
2884.00,94.41
2883.00,94.41
2882.00,94.41
2881.00,94.41
2880.00,94.42
2879.00,94.42
2878.00,94.42
2877.00,94.43
2876.00,94.43
2875.00,94.44
2874.00,94.45
2873.00,94.46
2872.00,94.47
2871.00,94.48
2870.00,94.50
2869.00,94.53
2868.00,94.56
2867.00,94.59
2866.00,94.61
2865.00,94.62
2864.00,94.62
2863.00,94.63
2862.00,94.64
2861.00,94.65
2860.00,94.65
2859.00,94.65
2858.00,94.64
2857.00,94.64
2856.00,94.64
2855.00,94.65
2854.00,94.67
2853.00,94.71
2852.00,94.76
2851.00,94.82
2850.00,94.88
2849.00,94.93
2848.00,94.97
2847.00,95.03
2846.00,95.08
2845.00,95.13
2844.00,95.17
2843.00,95.21
2842.00,95.25
2841.00,95.28
2840.00,95.31
2839.00,95.34
2838.00,95.37
2837.00,95.41
2836.00,95.43
2835.00,95.46
2834.00,95.47
2833.00,95.49
2832.00,95.50
2831.00,95.51
2830.00,95.52
2829.00,95.52
2828.00,95.53
2827.00,95.55
2826.00,95.57
2825.00,95.59
2824.00,95.60
2823.00,95.60
2822.00,95.59
2821.00,95.57
2820.00,95.57
2819.00,95.57
2818.00,95.59
2817.00,95.61
2816.00,95.62
2815.00,95.62
2814.00,95.62
2813.00,95.62
2812.00,95.63
2811.00,95.65
2810.00,95.67
2809.00,95.69
2808.00,95.70
2807.00,95.70
2806.00,95.69
2805.00,95.69
2804.00,95.70
2803.00,95.71
2802.00,95.72
2801.00,95.72
2800.00,95.72
2799.00,95.72
2798.00,95.71
2797.00,95.71
2796.00,95.72
2795.00,95.73
2794.00,95.74
2793.00,95.74
2792.00,95.74
2791.00,95.73
2790.00,95.73
2789.00,95.74
2788.00,95.75
2787.00,95.76
2786.00,95.77
2785.00,95.78
2784.00,95.79
2783.00,95.81
2782.00,95.82
2781.00,95.82
2780.00,95.82
2779.00,95.82
2778.00,95.82
2777.00,95.83
2776.00,95.82
2775.00,95.82
2774.00,95.81
2773.00,95.81
2772.00,95.82
2771.00,95.83
2770.00,95.83
2769.00,95.83
2768.00,95.83
2767.00,95.83
2766.00,95.83
2765.00,95.84
2764.00,95.84
2763.00,95.85
2762.00,95.85
2761.00,95.85
2760.00,95.84
2759.00,95.82
2758.00,95.81
2757.00,95.81
2756.00,95.82
2755.00,95.83
2754.00,95.84
2753.00,95.84
2752.00,95.84
2751.00,95.84
2750.00,95.84
2749.00,95.84
2748.00,95.84
2747.00,95.83
2746.00,95.82
2745.00,95.82
2744.00,95.81
2743.00,95.81
2742.00,95.81
2741.00,95.81
2740.00,95.81
2739.00,95.81
2738.00,95.81
2737.00,95.81
2736.00,95.81
2735.00,95.81
2734.00,95.82
2733.00,95.82
2732.00,95.82
2731.00,95.82
2730.00,95.83
2729.00,95.82
2728.00,95.81
2727.00,95.81
2726.00,95.80
2725.00,95.81
2724.00,95.81
2723.00,95.82
2722.00,95.83
2721.00,95.83
2720.00,95.84
2719.00,95.84
2718.00,95.83
2717.00,95.83
2716.00,95.84
2715.00,95.85
2714.00,95.86
2713.00,95.86
2712.00,95.87
2711.00,95.89
2710.00,95.91
2709.00,95.92
2708.00,95.91
2707.00,95.90
2706.00,95.89
2705.00,95.89
2704.00,95.89
2703.00,95.89
2702.00,95.89
2701.00,95.88
2700.00,95.87
2699.00,95.87
2698.00,95.88
2697.00,95.90
2696.00,95.92
2695.00,95.93
2694.00,95.93
2693.00,95.92
2692.00,95.91
2691.00,95.90
2690.00,95.90
2689.00,95.89
2688.00,95.89
2687.00,95.89
2686.00,95.89
2685.00,95.90
2684.00,95.90
2683.00,95.91
2682.00,95.92
2681.00,95.93
2680.00,95.95
2679.00,95.95
2678.00,95.93
2677.00,95.91
2676.00,95.90
2675.00,95.90
2674.00,95.91
2673.00,95.92
2672.00,95.93
2671.00,95.94
2670.00,95.95
2669.00,95.95
2668.00,95.95
2667.00,95.95
2666.00,95.94
2665.00,95.93
2664.00,95.91
2663.00,95.88
2662.00,95.86
2661.00,95.84
2660.00,95.84
2659.00,95.83
2658.00,95.82
2657.00,95.82
2656.00,95.80
2655.00,95.79
2654.00,95.77
2653.00,95.75
2652.00,95.73
2651.00,95.72
2650.00,95.71
2649.00,95.71
2648.00,95.70
2647.00,95.69
2646.00,95.68
2645.00,95.66
2644.00,95.64
2643.00,95.63
2642.00,95.62
2641.00,95.61
2640.00,95.60
2639.00,95.60
2638.00,95.59
2637.00,95.58
2636.00,95.56
2635.00,95.54
2634.00,95.53
2633.00,95.54
2632.00,95.54
2631.00,95.54
2630.00,95.54
2629.00,95.54
2628.00,95.54
2627.00,95.54
2626.00,95.54
2625.00,95.53
2624.00,95.53
2623.00,95.53
2622.00,95.52
2621.00,95.51
2620.00,95.50
2619.00,95.51
2618.00,95.53
2617.00,95.53
2616.00,95.52
2615.00,95.49
2614.00,95.46
2613.00,95.44
2612.00,95.43
2611.00,95.43
2610.00,95.43
2609.00,95.43
2608.00,95.43
2607.00,95.42
2606.00,95.41
2605.00,95.40
2604.00,95.40
2603.00,95.39
2602.00,95.39
2601.00,95.39
2600.00,95.38
2599.00,95.38
2598.00,95.38
2597.00,95.37
2596.00,95.36
2595.00,95.35
2594.00,95.34
2593.00,95.33
2592.00,95.30
2591.00,95.28
2590.00,95.26
2589.00,95.26
2588.00,95.26
2587.00,95.25
2586.00,95.25
2585.00,95.25
2584.00,95.25
2583.00,95.27
2582.00,95.28
2581.00,95.30
2580.00,95.30
2579.00,95.30
2578.00,95.30
2577.00,95.29
2576.00,95.28
2575.00,95.27
2574.00,95.26
2573.00,95.25
2572.00,95.23
2571.00,95.21
2570.00,95.20
2569.00,95.20
2568.00,95.21
2567.00,95.22
2566.00,95.23
2565.00,95.23
2564.00,95.22
2563.00,95.21
2562.00,95.19
2561.00,95.18
2560.00,95.19
2559.00,95.21
2558.00,95.25
2557.00,95.26
2556.00,95.25
2555.00,95.21
2554.00,95.16
2553.00,95.14
2552.00,95.14
2551.00,95.16
2550.00,95.18
2549.00,95.21
2548.00,95.23
2547.00,95.23
2546.00,95.23
2545.00,95.23
2544.00,95.23
2543.00,95.24
2542.00,95.25
2541.00,95.24
2540.00,95.23
2539.00,95.21
2538.00,95.18
2537.00,95.16
2536.00,95.13
2535.00,95.11
2534.00,95.11
2533.00,95.12
2532.00,95.15
2531.00,95.18
2530.00,95.20
2529.00,95.21
2528.00,95.21
2527.00,95.19
2526.00,95.18
2525.00,95.18
2524.00,95.19
2523.00,95.20
2522.00,95.21
2521.00,95.19
2520.00,95.17
2519.00,95.15
2518.00,95.15
2517.00,95.17
2516.00,95.19
2515.00,95.20
2514.00,95.19
2513.00,95.17
2512.00,95.16
2511.00,95.17
2510.00,95.19
2509.00,95.20
2508.00,95.20
2507.00,95.20
2506.00,95.21
2505.00,95.22
2504.00,95.24
2503.00,95.24
2502.00,95.24
2501.00,95.24
2500.00,95.25
2499.00,95.26
2498.00,95.26
2497.00,95.24
2496.00,95.22
2495.00,95.20
2494.00,95.19
2493.00,95.19
2492.00,95.18
2491.00,95.17
2490.00,95.17
2489.00,95.17
2488.00,95.18
2487.00,95.19
2486.00,95.20
2485.00,95.21
2484.00,95.21
2483.00,95.20
2482.00,95.20
2481.00,95.20
2480.00,95.21
2479.00,95.21
2478.00,95.19
2477.00,95.17
2476.00,95.15
2475.00,95.15
2474.00,95.15
2473.00,95.15
2472.00,95.15
2471.00,95.15
2470.00,95.16
2469.00,95.16
2468.00,95.17
2467.00,95.17
2466.00,95.18
2465.00,95.18
2464.00,95.18
2463.00,95.17
2462.00,95.18
2461.00,95.18
2460.00,95.18
2459.00,95.17
2458.00,95.16
2457.00,95.13
2456.00,95.11
2455.00,95.10
2454.00,95.11
2453.00,95.13
2452.00,95.14
2451.00,95.16
2450.00,95.16
2449.00,95.16
2448.00,95.17
2447.00,95.17
2446.00,95.18
2445.00,95.17
2444.00,95.16
2443.00,95.14
2442.00,95.14
2441.00,95.14
2440.00,95.16
2439.00,95.17
2438.00,95.18
2437.00,95.18
2436.00,95.18
2435.00,95.20
2434.00,95.21
2433.00,95.22
2432.00,95.21
2431.00,95.18
2430.00,95.16
2429.00,95.16
2428.00,95.17
2427.00,95.18
2426.00,95.20
2425.00,95.20
2424.00,95.20
2423.00,95.19
2422.00,95.19
2421.00,95.20
2420.00,95.21
2419.00,95.21
2418.00,95.20
2417.00,95.20
2416.00,95.21
2415.00,95.22
2414.00,95.23
2413.00,95.24
2412.00,95.26
2411.00,95.27
2410.00,95.29
2409.00,95.31
2408.00,95.33
2407.00,95.36
2406.00,95.38
2405.00,95.39
2404.00,95.38
2403.00,95.36
2402.00,95.34
2401.00,95.34
2400.00,95.34
2399.00,95.35
2398.00,95.36
2397.00,95.38
2396.00,95.41
2395.00,95.45
2394.00,95.48
2393.00,95.50
2392.00,95.52
2391.00,95.52
2390.00,95.53
2389.00,95.53
2388.00,95.53
2387.00,95.54
2386.00,95.56
2385.00,95.57
2384.00,95.59
2383.00,95.60
2382.00,95.61
2381.00,95.62
2380.00,95.63
2379.00,95.66
2378.00,95.70
2377.00,95.75
2376.00,95.79
2375.00,95.81
2374.00,95.81
2373.00,95.82
2372.00,95.82
2371.00,95.81
2370.00,95.79
2369.00,95.76
2368.00,95.72
2367.00,95.72
2366.00,95.76
2365.00,95.82
2364.00,95.85
2363.00,95.84
2362.00,95.84
2361.00,95.85
2360.00,95.86
2359.00,95.85
2358.00,95.83
2357.00,95.84
2356.00,95.88
2355.00,95.89
2354.00,95.87
2353.00,95.83
2352.00,95.82
2351.00,95.88
2350.00,95.99
2349.00,96.10
2348.00,96.14
2347.00,96.11
2346.00,96.06
2345.00,96.02
2344.00,95.99
2343.00,95.96
2342.00,95.91
2341.00,95.86
2340.00,95.83
2339.00,95.83
2338.00,95.83
2337.00,95.83
2336.00,95.83
2335.00,95.86
2334.00,95.90
2333.00,95.92
2332.00,95.92
2331.00,95.90
2330.00,95.91
2329.00,95.93
2328.00,95.94
2327.00,95.90
2326.00,95.82
2325.00,95.72
2324.00,95.63
2323.00,95.57
2322.00,95.54
2321.00,95.54
2320.00,95.56
2319.00,95.57
2318.00,95.57
2317.00,95.55
2316.00,95.52
2315.00,95.49
2314.00,95.48
2313.00,95.48
2312.00,95.48
2311.00,95.47
2310.00,95.46
2309.00,95.43
2308.00,95.40
2307.00,95.37
2306.00,95.36
2305.00,95.36
2304.00,95.36
2303.00,95.35
2302.00,95.31
2301.00,95.26
2300.00,95.22
2299.00,95.20
2298.00,95.18
2297.00,95.18
2296.00,95.17
2295.00,95.16
2294.00,95.14
2293.00,95.11
2292.00,95.07
2291.00,95.02
2290.00,94.97
2289.00,94.93
2288.00,94.89
2287.00,94.86
2286.00,94.82
2285.00,94.77
2284.00,94.72
2283.00,94.68
2282.00,94.67
2281.00,94.67
2280.00,94.69
2279.00,94.69
2278.00,94.68
2277.00,94.66
2276.00,94.63
2275.00,94.60
2274.00,94.57
2273.00,94.56
2272.00,94.56
2271.00,94.55
2270.00,94.52
2269.00,94.48
2268.00,94.45
2267.00,94.42
2266.00,94.41
2265.00,94.41
2264.00,94.42
2263.00,94.44
2262.00,94.45
2261.00,94.43
2260.00,94.38
2259.00,94.35
2258.00,94.34
2257.00,94.35
2256.00,94.35
2255.00,94.33
2254.00,94.28
2253.00,94.25
2252.00,94.25
2251.00,94.28
2250.00,94.32
2249.00,94.34
2248.00,94.33
2247.00,94.29
2246.00,94.25
2245.00,94.23
2244.00,94.22
2243.00,94.21
2242.00,94.17
2241.00,94.11
2240.00,94.04
2239.00,93.99
2238.00,93.96
2237.00,93.97
2236.00,93.98
2235.00,94.00
2234.00,94.01
2233.00,94.03
2232.00,94.03
2231.00,94.02
2230.00,94.01
2229.00,94.00
2228.00,93.98
2227.00,93.94
2226.00,93.91
2225.00,93.89
2224.00,93.89
2223.00,93.89
2222.00,93.88
2221.00,93.84
2220.00,93.79
2219.00,93.75
2218.00,93.72
2217.00,93.71
2216.00,93.70
2215.00,93.68
2214.00,93.67
2213.00,93.65
2212.00,93.64
2211.00,93.62
2210.00,93.57
2209.00,93.53
2208.00,93.50
2207.00,93.49
2206.00,93.49
2205.00,93.49
2204.00,93.50
2203.00,93.52
2202.00,93.54
2201.00,93.56
2200.00,93.57
2199.00,93.55
2198.00,93.50
2197.00,93.46
2196.00,93.44
2195.00,93.44
2194.00,93.41
2193.00,93.36
2192.00,93.31
2191.00,93.29
2190.00,93.28
2189.00,93.26
2188.00,93.22
2187.00,93.17
2186.00,93.12
2185.00,93.06
2184.00,93.00
2183.00,92.99
2182.00,93.03
2181.00,93.07
2180.00,93.06
2179.00,93.02
2178.00,93.01
2177.00,93.04
2176.00,93.11
2175.00,93.15
2174.00,93.16
2173.00,93.15
2172.00,93.10
2171.00,93.03
2170.00,92.94
2169.00,92.85
2168.00,92.78
2167.00,92.71
2166.00,92.64
2165.00,92.53
2164.00,92.37
2163.00,92.20
2162.00,92.10
2161.00,92.13
2160.00,92.30
2159.00,92.56
2158.00,92.80
2157.00,92.97
2156.00,93.05
2155.00,93.09
2154.00,93.14
2153.00,93.18
2152.00,93.20
2151.00,93.21
2150.00,93.24
2149.00,93.32
2148.00,93.40
2147.00,93.46
2146.00,93.50
2145.00,93.53
2144.00,93.53
2143.00,93.52
2142.00,93.51
2141.00,93.52
2140.00,93.54
2139.00,93.56
2138.00,93.61
2137.00,93.70
2136.00,93.82
2135.00,93.95
2134.00,94.06
2133.00,94.13
2132.00,94.16
2131.00,94.18
2130.00,94.21
2129.00,94.25
2128.00,94.27
2127.00,94.28
2126.00,94.28
2125.00,94.28
2124.00,94.30
2123.00,94.33
2122.00,94.36
2121.00,94.40
2120.00,94.41
2119.00,94.40
2118.00,94.37
2117.00,94.35
2116.00,94.33
2115.00,94.31
2114.00,94.30
2113.00,94.28
2112.00,94.27
2111.00,94.26
2110.00,94.26
2109.00,94.25
2108.00,94.24
2107.00,94.24
2106.00,94.25
2105.00,94.26
2104.00,94.26
2103.00,94.25
2102.00,94.23
2101.00,94.23
2100.00,94.25
2099.00,94.27
2098.00,94.29
2097.00,94.29
2096.00,94.29
2095.00,94.30
2094.00,94.31
2093.00,94.31
2092.00,94.31
2091.00,94.32
2090.00,94.34
2089.00,94.38
2088.00,94.40
2087.00,94.41
2086.00,94.40
2085.00,94.39
2084.00,94.36
2083.00,94.34
2082.00,94.32
2081.00,94.29
2080.00,94.23
2079.00,94.16
2078.00,94.10
2077.00,94.08
2076.00,94.10
2075.00,94.13
2074.00,94.15
2073.00,94.16
2072.00,94.16
2071.00,94.15
2070.00,94.14
2069.00,94.12
2068.00,94.11
2067.00,94.09
2066.00,94.09
2065.00,94.10
2064.00,94.11
2063.00,94.12
2062.00,94.11
2061.00,94.08
2060.00,94.03
2059.00,94.00
2058.00,94.01
2057.00,94.05
2056.00,94.09
2055.00,94.09
2054.00,94.03
2053.00,93.93
2052.00,93.81
2051.00,93.70
2050.00,93.63
2049.00,93.59
2048.00,93.55
2047.00,93.51
2046.00,93.45
2045.00,93.41
2044.00,93.39
2043.00,93.37
2042.00,93.37
2041.00,93.38
2040.00,93.37
2039.00,93.34
2038.00,93.30
2037.00,93.27
2036.00,93.26
2035.00,93.25
2034.00,93.26
2033.00,93.26
2032.00,93.25
2031.00,93.24
2030.00,93.25
2029.00,93.26
2028.00,93.24
2027.00,93.18
2026.00,93.11
2025.00,93.09
2024.00,93.12
2023.00,93.18
2022.00,93.23
2021.00,93.27
2020.00,93.28
2019.00,93.26
2018.00,93.27
2017.00,93.32
2016.00,93.39
2015.00,93.43
2014.00,93.43
2013.00,93.41
2012.00,93.39
2011.00,93.38
2010.00,93.39
2009.00,93.43
2008.00,93.48
2007.00,93.53
2006.00,93.61
2005.00,93.69
2004.00,93.76
2003.00,93.81
2002.00,93.85
2001.00,93.91
2000.00,93.97
1999.00,94.01
1998.00,93.98
1997.00,93.90
1996.00,93.79
1995.00,93.70
1994.00,93.64
1993.00,93.63
1992.00,93.63
1991.00,93.66
1990.00,93.71
1989.00,93.79
1988.00,93.87
1987.00,93.89
1986.00,93.86
1985.00,93.79
1984.00,93.68
1983.00,93.57
1982.00,93.48
1981.00,93.39
1980.00,93.32
1979.00,93.26
1978.00,93.27
1977.00,93.36
1976.00,93.50
1975.00,93.61
1974.00,93.65
1973.00,93.64
1972.00,93.61
1971.00,93.59
1970.00,93.61
1969.00,93.65
1968.00,93.70
1967.00,93.73
1966.00,93.75
1965.00,93.77
1964.00,93.79
1963.00,93.83
1962.00,93.90
1961.00,94.01
1960.00,94.14
1959.00,94.24
1958.00,94.31
1957.00,94.34
1956.00,94.34
1955.00,94.35
1954.00,94.39
1953.00,94.46
1952.00,94.52
1951.00,94.54
1950.00,94.56
1949.00,94.58
1948.00,94.61
1947.00,94.64
1946.00,94.65
1945.00,94.65
1944.00,94.66
1943.00,94.68
1942.00,94.71
1941.00,94.76
1940.00,94.80
1939.00,94.83
1938.00,94.85
1937.00,94.86
1936.00,94.84
1935.00,94.83
1934.00,94.86
1933.00,94.93
1932.00,94.98
1931.00,95.01
1930.00,95.00
1929.00,94.99
1928.00,94.98
1927.00,94.99
1926.00,95.02
1925.00,95.07
1924.00,95.11
1923.00,95.15
1922.00,95.17
1921.00,95.21
1920.00,95.26
1919.00,95.31
1918.00,95.33
1917.00,95.34
1916.00,95.33
1915.00,95.34
1914.00,95.36
1913.00,95.39
1912.00,95.39
1911.00,95.37
1910.00,95.36
1909.00,95.38
1908.00,95.42
1907.00,95.45
1906.00,95.45
1905.00,95.43
1904.00,95.44
1903.00,95.48
1902.00,95.52
1901.00,95.54
1900.00,95.54
1899.00,95.52
1898.00,95.51
1897.00,95.51
1896.00,95.54
1895.00,95.59
1894.00,95.65
1893.00,95.70
1892.00,95.73
1891.00,95.74
1890.00,95.73
1889.00,95.71
1888.00,95.71
1887.00,95.74
1886.00,95.78
1885.00,95.82
1884.00,95.84
1883.00,95.84
1882.00,95.83
1881.00,95.82
1880.00,95.82
1879.00,95.84
1878.00,95.85
1877.00,95.86
1876.00,95.85
1875.00,95.84
1874.00,95.85
1873.00,95.89
1872.00,95.94
1871.00,95.97
1870.00,95.97
1869.00,95.95
1868.00,95.95
1867.00,95.97
1866.00,95.99
1865.00,95.99
1864.00,95.98
1863.00,95.95
1862.00,95.95
1861.00,95.96
1860.00,96.00
1859.00,96.03
1858.00,96.05
1857.00,96.07
1856.00,96.09
1855.00,96.12
1854.00,96.16
1853.00,96.19
1852.00,96.20
1851.00,96.20
1850.00,96.19
1849.00,96.19
1848.00,96.19
1847.00,96.20
1846.00,96.20
1845.00,96.20
1844.00,96.21
1843.00,96.22
1842.00,96.23
1841.00,96.24
1840.00,96.25
1839.00,96.27
1838.00,96.29
1837.00,96.30
1836.00,96.31
1835.00,96.31
1834.00,96.31
1833.00,96.31
1832.00,96.30
1831.00,96.29
1830.00,96.30
1829.00,96.31
1828.00,96.32
1827.00,96.32
1826.00,96.32
1825.00,96.32
1824.00,96.31
1823.00,96.30
1822.00,96.30
1821.00,96.31
1820.00,96.32
1819.00,96.33
1818.00,96.34
1817.00,96.35
1816.00,96.35
1815.00,96.34
1814.00,96.33
1813.00,96.32
1812.00,96.32
1811.00,96.31
1810.00,96.30
1809.00,96.31
1808.00,96.31
1807.00,96.31
1806.00,96.31
1805.00,96.30
1804.00,96.29
1803.00,96.27
1802.00,96.26
1801.00,96.24
1800.00,96.22
1799.00,96.21
1798.00,96.18
1797.00,96.16
1796.00,96.14
1795.00,96.11
1794.00,96.09
1793.00,96.05
1792.00,95.99
1791.00,95.92
1790.00,95.87
1789.00,95.83
1788.00,95.79
1787.00,95.74
1786.00,95.68
1785.00,95.59
1784.00,95.49
1783.00,95.38
1782.00,95.27
1781.00,95.14
1780.00,94.97
1779.00,94.78
1778.00,94.58
1777.00,94.38
1776.00,94.16
1775.00,93.91
1774.00,93.58
1773.00,93.16
1772.00,92.63
1771.00,92.06
1770.00,91.48
1769.00,90.82
1768.00,90.03
1767.00,89.13
1766.00,88.20
1765.00,87.25
1764.00,86.21
1763.00,85.02
1762.00,83.71
1761.00,82.42
1760.00,81.26
1759.00,80.20
1758.00,79.15
1757.00,78.09
1756.00,77.09
1755.00,76.24
1754.00,75.51
1753.00,74.82
1752.00,74.10
1751.00,73.39
1750.00,72.74
1749.00,72.16
1748.00,71.65
1747.00,71.17
1746.00,70.73
1745.00,70.30
1744.00,69.89
1743.00,69.53
1742.00,69.22
1741.00,68.94
1740.00,68.70
1739.00,68.51
1738.00,68.39
1737.00,68.34
1736.00,68.35
1735.00,68.40
1734.00,68.53
1733.00,68.74
1732.00,69.02
1731.00,69.35
1730.00,69.72
1729.00,70.16
1728.00,70.66
1727.00,71.19
1726.00,71.75
1725.00,72.35
1724.00,73.03
1723.00,73.73
1722.00,74.42
1721.00,75.08
1720.00,75.76
1719.00,76.51
1718.00,77.36
1717.00,78.25
1716.00,79.09
1715.00,79.87
1714.00,80.59
1713.00,81.26
1712.00,81.90
1711.00,82.51
1710.00,83.11
1709.00,83.68
1708.00,84.22
1707.00,84.76
1706.00,85.28
1705.00,85.74
1704.00,86.12
1703.00,86.45
1702.00,86.78
1701.00,87.19
1700.00,87.64
1699.00,88.00
1698.00,88.25
1697.00,88.48
1696.00,88.77
1695.00,89.08
1694.00,89.32
1693.00,89.51
1692.00,89.69
1691.00,89.87
1690.00,90.05
1689.00,90.21
1688.00,90.34
1687.00,90.46
1686.00,90.56
1685.00,90.69
1684.00,90.85
1683.00,91.01
1682.00,91.14
1681.00,91.24
1680.00,91.34
1679.00,91.43
1678.00,91.50
1677.00,91.57
1676.00,91.63
1675.00,91.70
1674.00,91.76
1673.00,91.80
1672.00,91.84
1671.00,91.89
1670.00,91.95
1669.00,91.99
1668.00,92.02
1667.00,92.03
1666.00,92.04
1665.00,92.06
1664.00,92.07
1663.00,92.08
1662.00,92.09
1661.00,92.09
1660.00,92.09
1659.00,92.09
1658.00,92.10
1657.00,92.10
1656.00,92.11
1655.00,92.10
1654.00,92.09
1653.00,92.06
1652.00,92.04
1651.00,92.03
1650.00,92.04
1649.00,92.06
1648.00,92.07
1647.00,92.06
1646.00,92.07
1645.00,92.08
1644.00,92.09
1643.00,92.10
1642.00,92.11
1641.00,92.11
1640.00,92.11
1639.00,92.12
1638.00,92.14
1637.00,92.17
1636.00,92.20
1635.00,92.22
1634.00,92.23
1633.00,92.24
1632.00,92.26
1631.00,92.29
1630.00,92.32
1629.00,92.36
1628.00,92.41
1627.00,92.47
1626.00,92.53
1625.00,92.58
1624.00,92.64
1623.00,92.70
1622.00,92.76
1621.00,92.81
1620.00,92.87
1619.00,92.93
1618.00,92.99
1617.00,93.05
1616.00,93.11
1615.00,93.18
1614.00,93.24
1613.00,93.30
1612.00,93.37
1611.00,93.45
1610.00,93.52
1609.00,93.58
1608.00,93.62
1607.00,93.66
1606.00,93.70
1605.00,93.76
1604.00,93.83
1603.00,93.89
1602.00,93.95
1601.00,93.99
1600.00,94.02
1599.00,94.06
1598.00,94.10
1597.00,94.14
1596.00,94.17
1595.00,94.20
1594.00,94.23
1593.00,94.26
1592.00,94.29
1591.00,94.33
1590.00,94.38
1589.00,94.42
1588.00,94.47
1587.00,94.51
1586.00,94.53
1585.00,94.54
1584.00,94.55
1583.00,94.57
1582.00,94.59
1581.00,94.61
1580.00,94.63
1579.00,94.65
1578.00,94.67
1577.00,94.69
1576.00,94.73
1575.00,94.76
1574.00,94.78
1573.00,94.80
1572.00,94.82
1571.00,94.85
1570.00,94.86
1569.00,94.87
1568.00,94.88
1567.00,94.88
1566.00,94.88
1565.00,94.90
1564.00,94.91
1563.00,94.91
1562.00,94.91
1561.00,94.91
1560.00,94.91
1559.00,94.91
1558.00,94.91
1557.00,94.92
1556.00,94.91
1555.00,94.92
1554.00,94.92
1553.00,94.94
1552.00,94.95
1551.00,94.97
1550.00,94.99
1549.00,95.01
1548.00,95.01
1547.00,95.01
1546.00,95.01
1545.00,95.01
1544.00,95.01
1543.00,95.03
1542.00,95.05
1541.00,95.06
1540.00,95.07
1539.00,95.09
1538.00,95.10
1537.00,95.10
1536.00,95.11
1535.00,95.11
1534.00,95.11
1533.00,95.12
1532.00,95.14
1531.00,95.16
1530.00,95.17
1529.00,95.18
1528.00,95.20
1527.00,95.22
1526.00,95.24
1525.00,95.24
1524.00,95.25
1523.00,95.26
1522.00,95.28
1521.00,95.30
1520.00,95.30
1519.00,95.30
1518.00,95.30
1517.00,95.29
1516.00,95.29
1515.00,95.29
1514.00,95.31
1513.00,95.33
1512.00,95.35
1511.00,95.38
1510.00,95.41
1509.00,95.42
1508.00,95.42
1507.00,95.42
1506.00,95.43
1505.00,95.43
1504.00,95.43
1503.00,95.44
1502.00,95.45
1501.00,95.45
1500.00,95.45
1499.00,95.46
1498.00,95.47
1497.00,95.48
1496.00,95.48
1495.00,95.48
1494.00,95.48
1493.00,95.48
1492.00,95.47
1491.00,95.47
1490.00,95.45
1489.00,95.44
1488.00,95.42
1487.00,95.42
1486.00,95.41
1485.00,95.40
1484.00,95.39
1483.00,95.38
1482.00,95.36
1481.00,95.33
1480.00,95.29
1479.00,95.25
1478.00,95.21
1477.00,95.15
1476.00,95.09
1475.00,95.02
1474.00,94.94
1473.00,94.85
1472.00,94.76
1471.00,94.66
1470.00,94.56
1469.00,94.46
1468.00,94.36
1467.00,94.26
1466.00,94.14
1465.00,94.01
1464.00,93.88
1463.00,93.75
1462.00,93.65
1461.00,93.55
1460.00,93.47
1459.00,93.38
1458.00,93.27
1457.00,93.15
1456.00,93.04
1455.00,92.98
1454.00,92.94
1453.00,92.90
1452.00,92.83
1451.00,92.76
1450.00,92.67
1449.00,92.56
1448.00,92.45
1447.00,92.33
1446.00,92.22
1445.00,92.10
1444.00,91.96
1443.00,91.83
1442.00,91.70
1441.00,91.56
1440.00,91.43
1439.00,91.30
1438.00,91.17
1437.00,91.03
1436.00,90.88
1435.00,90.78
1434.00,90.72
1433.00,90.67
1432.00,90.64
1431.00,90.63
1430.00,90.65
1429.00,90.69
1428.00,90.76
1427.00,90.85
1426.00,90.95
1425.00,91.04
1424.00,91.14
1423.00,91.25
1422.00,91.36
1421.00,91.47
1420.00,91.57
1419.00,91.67
1418.00,91.78
1417.00,91.88
1416.00,92.00
1415.00,92.12
1414.00,92.22
1413.00,92.31
1412.00,92.39
1411.00,92.46
1410.00,92.52
1409.00,92.58
1408.00,92.64
1407.00,92.69
1406.00,92.74
1405.00,92.78
1404.00,92.82
1403.00,92.84
1402.00,92.84
1401.00,92.82
1400.00,92.78
1399.00,92.70
1398.00,92.60
1397.00,92.47
1396.00,92.29
1395.00,92.07
1394.00,91.79
1393.00,91.49
1392.00,91.14
1391.00,90.76
1390.00,90.32
1389.00,89.83
1388.00,89.25
1387.00,88.61
1386.00,87.97
1385.00,87.37
1384.00,86.77
1383.00,86.15
1382.00,85.54
1381.00,84.94
1380.00,84.35
1379.00,83.79
1378.00,83.27
1377.00,82.77
1376.00,82.26
1375.00,81.72
1374.00,81.18
1373.00,80.66
1372.00,80.19
1371.00,79.76
1370.00,79.38
1369.00,79.06
1368.00,78.84
1367.00,78.77
1366.00,78.85
1365.00,79.10
1364.00,79.53
1363.00,80.17
1362.00,81.01
1361.00,81.97
1360.00,82.99
1359.00,84.04
1358.00,85.10
1357.00,86.11
1356.00,87.07
1355.00,87.96
1354.00,88.73
1353.00,89.39
1352.00,89.93
1351.00,90.39
1350.00,90.78
1349.00,91.11
1348.00,91.39
1347.00,91.62
1346.00,91.82
1345.00,91.97
1344.00,92.10
1343.00,92.20
1342.00,92.28
1341.00,92.33
1340.00,92.38
1339.00,92.42
1338.00,92.47
1337.00,92.52
1336.00,92.57
1335.00,92.60
1334.00,92.61
1333.00,92.60
1332.00,92.57
1331.00,92.55
1330.00,92.53
1329.00,92.50
1328.00,92.47
1327.00,92.44
1326.00,92.41
1325.00,92.40
1324.00,92.38
1323.00,92.38
1322.00,92.38
1321.00,92.39
1320.00,92.41
1319.00,92.44
1318.00,92.47
1317.00,92.50
1316.00,92.54
1315.00,92.59
1314.00,92.64
1313.00,92.71
1312.00,92.80
1311.00,92.90
1310.00,92.99
1309.00,93.07
1308.00,93.14
1307.00,93.19
1306.00,93.23
1305.00,93.26
1304.00,93.28
1303.00,93.28
1302.00,93.27
1301.00,93.24
1300.00,93.20
1299.00,93.15
1298.00,93.09
1297.00,93.02
1296.00,92.94
1295.00,92.85
1294.00,92.75
1293.00,92.63
1292.00,92.50
1291.00,92.37
1290.00,92.23
1289.00,92.09
1288.00,91.94
1287.00,91.77
1286.00,91.60
1285.00,91.41
1284.00,91.20
1283.00,90.97
1282.00,90.71
1281.00,90.43
1280.00,90.12
1279.00,89.80
1278.00,89.46
1277.00,89.08
1276.00,88.68
1275.00,88.27
1274.00,87.84
1273.00,87.40
1272.00,86.95
1271.00,86.49
1270.00,86.01
1269.00,85.51
1268.00,84.97
1267.00,84.42
1266.00,83.86
1265.00,83.28
1264.00,82.67
1263.00,82.06
1262.00,81.43
1261.00,80.77
1260.00,80.09
1259.00,79.40
1258.00,78.71
1257.00,78.02
1256.00,77.30
1255.00,76.58
1254.00,75.85
1253.00,75.12
1252.00,74.37
1251.00,73.63
1250.00,72.89
1249.00,72.14
1248.00,71.37
1247.00,70.61
1246.00,69.84
1245.00,69.07
1244.00,68.29
1243.00,67.53
1242.00,66.78
1241.00,66.04
1240.00,65.28
1239.00,64.56
1238.00,63.87
1237.00,63.21
1236.00,62.57
1235.00,61.97
1234.00,61.41
1233.00,60.89
1232.00,60.39
1231.00,59.94
1230.00,59.53
1229.00,59.14
1228.00,58.79
1227.00,58.48
1226.00,58.22
1225.00,57.97
1224.00,57.72
1223.00,57.48
1222.00,57.26
1221.00,57.05
1220.00,56.84
1219.00,56.67
1218.00,56.54
1217.00,56.44
1216.00,56.40
1215.00,56.45
1214.00,56.60
1213.00,56.86
1212.00,57.22
1211.00,57.72
1210.00,58.36
1209.00,59.14
1208.00,60.05
1207.00,61.10
1206.00,62.28
1205.00,63.55
1204.00,64.89
1203.00,66.29
1202.00,67.70
1201.00,69.10
1200.00,70.45
1199.00,71.77
1198.00,73.04
1197.00,74.23
1196.00,75.35
1195.00,76.41
1194.00,77.39
1193.00,78.27
1192.00,79.06
1191.00,79.76
1190.00,80.38
1189.00,80.92
1188.00,81.38
1187.00,81.76
1186.00,82.07
1185.00,82.29
1184.00,82.43
1183.00,82.52
1182.00,82.58
1181.00,82.58
1180.00,82.54
1179.00,82.46
1178.00,82.36
1177.00,82.23
1176.00,82.09
1175.00,81.93
1174.00,81.78
1173.00,81.61
1172.00,81.44
1171.00,81.27
1170.00,81.10
1169.00,80.92
1168.00,80.73
1167.00,80.55
1166.00,80.38
1165.00,80.21
1164.00,80.05
1163.00,79.93
1162.00,79.85
1161.00,79.80
1160.00,79.78
1159.00,79.81
1158.00,79.89
1157.00,80.00
1156.00,80.15
1155.00,80.33
1154.00,80.55
1153.00,80.80
1152.00,81.07
1151.00,81.35
1150.00,81.65
1149.00,81.95
1148.00,82.24
1147.00,82.53
1146.00,82.78
1145.00,82.98
1144.00,83.13
1143.00,83.24
1142.00,83.30
1141.00,83.32
1140.00,83.31
1139.00,83.27
1138.00,83.21
1137.00,83.11
1136.00,82.96
1135.00,82.79
1134.00,82.60
1133.00,82.40
1132.00,82.19
1131.00,81.96
1130.00,81.73
1129.00,81.52
1128.00,81.34
1127.00,81.21
1126.00,81.12
1125.00,81.04
1124.00,80.95
1123.00,80.87
1122.00,80.81
1121.00,80.79
1120.00,80.80
1119.00,80.84
1118.00,80.90
1117.00,80.95
1116.00,80.99
1115.00,81.04
1114.00,81.10
1113.00,81.16
1112.00,81.21
1111.00,81.27
1110.00,81.35
1109.00,81.41
1108.00,81.45
1107.00,81.46
1106.00,81.46
1105.00,81.44
1104.00,81.38
1103.00,81.29
1102.00,81.14
1101.00,80.95
1100.00,80.70
1099.00,80.43
1098.00,80.12
1097.00,79.80
1096.00,79.44
1095.00,79.05
1094.00,78.62
1093.00,78.15
1092.00,77.65
1091.00,77.13
1090.00,76.63
1089.00,76.14
1088.00,75.65
1087.00,75.18
1086.00,74.70
1085.00,74.20
1084.00,73.69
1083.00,73.20
1082.00,72.71
1081.00,72.20
1080.00,71.67
1079.00,71.14
1078.00,70.65
1077.00,70.15
1076.00,69.64
1075.00,69.13
1074.00,68.63
1073.00,68.13
1072.00,67.63
1071.00,67.15
1070.00,66.70
1069.00,66.28
1068.00,65.89
1067.00,65.50
1066.00,65.12
1065.00,64.72
1064.00,64.32
1063.00,63.92
1062.00,63.50
1061.00,63.04
1060.00,62.52
1059.00,61.97
1058.00,61.42
1057.00,60.85
1056.00,60.27
1055.00,59.69
1054.00,59.11
1053.00,58.51
1052.00,57.90
1051.00,57.33
1050.00,56.82
1049.00,56.33
1048.00,55.85
1047.00,55.38
1046.00,54.94
1045.00,54.51
1044.00,54.09
1043.00,53.69
1042.00,53.32
1041.00,52.94
1040.00,52.53
1039.00,52.14
1038.00,51.76
1037.00,51.41
1036.00,51.07
1035.00,50.77
1034.00,50.55
1033.00,50.39
1032.00,50.30
1031.00,50.29
1030.00,50.36
1029.00,50.50
1028.00,50.71
1027.00,51.04
1026.00,51.46
1025.00,51.93
1024.00,52.43
1023.00,52.98
1022.00,53.59
1021.00,54.22
1020.00,54.88
1019.00,55.57
1018.00,56.28
1017.00,56.98
1016.00,57.69
1015.00,58.41
1014.00,59.13
1013.00,59.83
1012.00,60.50
1011.00,61.15
1010.00,61.79
1009.00,62.43
1008.00,63.06
1007.00,63.68
1006.00,64.29
1005.00,64.89
1004.00,65.47
1003.00,66.04
1002.00,66.58
1001.00,67.08
1000.00,67.52
999.00,67.93
998.00,68.31
997.00,68.65
996.00,68.97
995.00,69.27
994.00,69.54
993.00,69.79
992.00,70.01
991.00,70.23
990.00,70.45
989.00,70.67
988.00,70.89
987.00,71.11
986.00,71.35
985.00,71.60
984.00,71.87
983.00,72.17
982.00,72.50
981.00,72.83
980.00,73.15
979.00,73.48
978.00,73.83
977.00,74.19
976.00,74.56
975.00,74.94
974.00,75.34
973.00,75.75
972.00,76.15
971.00,76.55
970.00,76.92
969.00,77.28
968.00,77.62
967.00,77.96
966.00,78.28
965.00,78.57
964.00,78.84
963.00,79.09
962.00,79.32
961.00,79.52
960.00,79.68
959.00,79.81
958.00,79.92
957.00,80.02
956.00,80.13
955.00,80.24
954.00,80.36
953.00,80.50
952.00,80.64
951.00,80.78
950.00,80.92
949.00,81.04
948.00,81.16
947.00,81.30
946.00,81.44
945.00,81.58
944.00,81.72
943.00,81.85
942.00,81.97
941.00,82.07
940.00,82.17
939.00,82.27
938.00,82.35
937.00,82.41
936.00,82.46
935.00,82.49
934.00,82.53
933.00,82.56
932.00,82.57
931.00,82.56
930.00,82.54
929.00,82.50
928.00,82.47
927.00,82.44
926.00,82.39
925.00,82.33
924.00,82.25
923.00,82.15
922.00,82.05
921.00,81.93
920.00,81.81
919.00,81.70
918.00,81.59
917.00,81.47
916.00,81.33
915.00,81.17
914.00,80.97
913.00,80.75
912.00,80.50
911.00,80.24
910.00,79.97
909.00,79.67
908.00,79.35
907.00,79.05
906.00,78.77
905.00,78.52
904.00,78.29
903.00,78.10
902.00,77.97
901.00,77.90
900.00,77.88
899.00,77.93
898.00,78.06
897.00,78.26
896.00,78.52
895.00,78.83
894.00,79.17
893.00,79.53
892.00,79.89
891.00,80.24
890.00,80.55
889.00,80.82
888.00,81.05
887.00,81.25
886.00,81.44
885.00,81.61
884.00,81.75
883.00,81.86
882.00,81.94
881.00,82.02
880.00,82.10
879.00,82.22
878.00,82.35
877.00,82.49
876.00,82.65
875.00,82.83
874.00,83.04
873.00,83.27
872.00,83.52
871.00,83.78
870.00,84.06
869.00,84.34
868.00,84.62
867.00,84.91
866.00,85.18
865.00,85.41
864.00,85.60
863.00,85.78
862.00,85.96
861.00,86.13
860.00,86.30
859.00,86.46
858.00,86.60
857.00,86.72
856.00,86.81
855.00,86.87
854.00,86.92
853.00,86.97
852.00,87.01
851.00,87.04
850.00,87.06
849.00,87.04
848.00,86.99
847.00,86.94
846.00,86.90
845.00,86.86
844.00,86.82
843.00,86.79
842.00,86.76
841.00,86.74
840.00,86.73
839.00,86.72
838.00,86.73
837.00,86.78
836.00,86.87
835.00,86.98
834.00,87.09
833.00,87.17
832.00,87.25
831.00,87.35
830.00,87.49
829.00,87.64
828.00,87.80
827.00,87.97
826.00,88.13
825.00,88.28
824.00,88.40
823.00,88.49
822.00,88.56
821.00,88.62
820.00,88.67
819.00,88.74
818.00,88.82
817.00,88.89
816.00,88.94
815.00,88.99
814.00,89.02
813.00,89.05
812.00,89.09
811.00,89.14
810.00,89.20
809.00,89.26
808.00,89.30
807.00,89.33
806.00,89.36
805.00,89.41
804.00,89.47
803.00,89.52
802.00,89.56
801.00,89.61
800.00,89.67
799.00,89.73
798.00,89.79
797.00,89.82
796.00,89.87
795.00,89.93
794.00,89.98
793.00,90.00
792.00,90.00
791.00,89.98
790.00,89.99
789.00,90.02
788.00,90.07
787.00,90.11
786.00,90.13
785.00,90.14
784.00,90.15
783.00,90.17
782.00,90.21
781.00,90.24
780.00,90.27
779.00,90.30
778.00,90.33
777.00,90.36
776.00,90.38
775.00,90.40
774.00,90.41
773.00,90.42
772.00,90.41
771.00,90.43
770.00,90.46
769.00,90.50
768.00,90.51
767.00,90.49
766.00,90.47
765.00,90.46
764.00,90.48
763.00,90.52
762.00,90.55
761.00,90.55
760.00,90.52
759.00,90.49
758.00,90.47
757.00,90.46
756.00,90.48
755.00,90.53
754.00,90.62
753.00,90.69
752.00,90.70
751.00,90.66
750.00,90.61
749.00,90.60
748.00,90.62
747.00,90.64
746.00,90.65
745.00,90.65
744.00,90.65
743.00,90.68
742.00,90.72
741.00,90.76
740.00,90.78
739.00,90.77
738.00,90.74
737.00,90.69
736.00,90.65
735.00,90.62
734.00,90.58
733.00,90.51
732.00,90.41
731.00,90.29
730.00,90.17
729.00,90.06
728.00,89.94
727.00,89.83
726.00,89.73
725.00,89.64
724.00,89.56
723.00,89.49
722.00,89.41
721.00,89.34
720.00,89.28
719.00,89.23
718.00,89.20
717.00,89.19
716.00,89.19
715.00,89.19
714.00,89.18
713.00,89.15
712.00,89.09
711.00,89.04
710.00,89.01
709.00,89.01
708.00,89.03
707.00,89.05
706.00,89.06
705.00,89.05
704.00,89.00
703.00,88.94
702.00,88.86
701.00,88.80
700.00,88.75
699.00,88.72
698.00,88.70
697.00,88.65
696.00,88.55
695.00,88.43
694.00,88.30
693.00,88.21
692.00,88.15
691.00,88.13
690.00,88.13
689.00,88.14
688.00,88.12
687.00,88.07
686.00,87.98
685.00,87.89
684.00,87.85
683.00,87.88
682.00,87.94
681.00,87.97
680.00,87.98
679.00,87.99
678.00,88.01
677.00,88.04
676.00,88.03
675.00,88.00
674.00,87.97
673.00,87.97
672.00,88.03
671.00,88.12
670.00,88.18
669.00,88.18
668.00,88.08
667.00,87.93
666.00,87.88
665.00,87.87
664.00,87.83
663.00,87.75
662.00,87.70
661.00,87.67
660.00,87.64
659.00,87.53
658.00,87.32
657.00,87.07
656.00,86.85
655.00,86.74
654.00,86.72
653.00,86.68
652.00,86.59
651.00,86.44
650.00,86.27
649.00,86.07
648.00,85.87
647.00,85.73
646.00,85.66
645.00,85.63
644.00,85.58
643.00,85.50
642.00,85.39
641.00,85.27
640.00,85.18
639.00,85.15
638.00,85.16
637.00,85.16
636.00,85.13
635.00,85.10
634.00,85.06
633.00,84.95
632.00,84.75
631.00,84.53
630.00,84.37
629.00,84.25
628.00,84.12
627.00,83.94
626.00,83.71
625.00,83.46
624.00,83.28
623.00,83.29
622.00,83.45
621.00,83.54
620.00,83.45
619.00,83.20
618.00,82.89
617.00,82.56
616.00,82.25
615.00,82.06
614.00,81.88
613.00,81.46
612.00,80.72
611.00,79.92
610.00,79.29
609.00,78.74
608.00,78.09
607.00,77.34
606.00,76.64
605.00,76.03
604.00,75.45
603.00,74.93
602.00,74.54
601.00,74.31
600.00,74.34
599.00,74.76
598.00,75.51
597.00,76.27
596.00,76.75
595.00,76.99
594.00,77.21
593.00,77.58
592.00,78.14
591.00,78.82
590.00,79.41
589.00,79.73
588.00,79.81
587.00,79.89
586.00,80.15
585.00,80.53
584.00,80.88
583.00,81.12
582.00,81.26
581.00,81.33
580.00,81.42
579.00,81.61
578.00,81.83
577.00,81.90
576.00,81.82
575.00,81.92
574.00,82.41
573.00,83.12
572.00,83.67
571.00,83.82
570.00,83.59
569.00,83.22
568.00,82.89
567.00,82.63
566.00,82.32
565.00,81.83
564.00,81.19
563.00,80.63
562.00,80.33
561.00,80.30
560.00,80.51
559.00,80.94
558.00,81.38
557.00,81.53
556.00,81.25
555.00,80.63
554.00,79.97
553.00,79.60
552.00,79.87
551.00,80.88
550.00,82.23
