Created as New Dataset,2 Celanese
cm-1,%T
4000.00,97.48
3999.00,97.50
3998.00,97.52
3997.00,97.54
3996.00,97.56
3995.00,97.58
3994.00,97.58
3993.00,97.57
3992.00,97.56
3991.00,97.54
3990.00,97.51
3989.00,97.48
3988.00,97.46
3987.00,97.46
3986.00,97.46
3985.00,97.46
3984.00,97.46
3983.00,97.46
3982.00,97.46
3981.00,97.45
3980.00,97.45
3979.00,97.44
3978.00,97.44
3977.00,97.45
3976.00,97.45
3975.00,97.45
3974.00,97.44
3973.00,97.44
3972.00,97.44
3971.00,97.45
3970.00,97.46
3969.00,97.48
3968.00,97.49
3967.00,97.50
3966.00,97.51
3965.00,97.51
3964.00,97.51
3963.00,97.50
3962.00,97.49
3961.00,97.49
3960.00,97.49
3959.00,97.49
3958.00,97.50
3957.00,97.50
3956.00,97.50
3955.00,97.51
3954.00,97.52
3953.00,97.52
3952.00,97.51
3951.00,97.51
3950.00,97.51
3949.00,97.52
3948.00,97.53
3947.00,97.54
3946.00,97.55
3945.00,97.55
3944.00,97.54
3943.00,97.53
3942.00,97.51
3941.00,97.51
3940.00,97.51
3939.00,97.51
3938.00,97.52
3937.00,97.51
3936.00,97.51
3935.00,97.50
3934.00,97.49
3933.00,97.48
3932.00,97.47
3931.00,97.48
3930.00,97.50
3929.00,97.52
3928.00,97.53
3927.00,97.52
3926.00,97.51
3925.00,97.52
3924.00,97.53
3923.00,97.54
3922.00,97.54
3921.00,97.53
3920.00,97.51
3919.00,97.50
3918.00,97.50
3917.00,97.50
3916.00,97.51
3915.00,97.51
3914.00,97.51
3913.00,97.49
3912.00,97.48
3911.00,97.47
3910.00,97.47
3909.00,97.48
3908.00,97.48
3907.00,97.48
3906.00,97.49
3905.00,97.50
3904.00,97.53
3903.00,97.55
3902.00,97.57
3901.00,97.56
3900.00,97.53
3899.00,97.51
3898.00,97.51
3897.00,97.53
3896.00,97.56
3895.00,97.57
3894.00,97.57
3893.00,97.54
3892.00,97.51
3891.00,97.49
3890.00,97.49
3889.00,97.51
3888.00,97.53
3887.00,97.53
3886.00,97.51
3885.00,97.51
3884.00,97.52
3883.00,97.53
3882.00,97.52
3881.00,97.50
3880.00,97.47
3879.00,97.46
3878.00,97.47
3877.00,97.47
3876.00,97.46
3875.00,97.45
3874.00,97.45
3873.00,97.46
3872.00,97.46
3871.00,97.45
3870.00,97.42
3869.00,97.40
3868.00,97.41
3867.00,97.45
3866.00,97.47
3865.00,97.47
3864.00,97.47
3863.00,97.46
3862.00,97.46
3861.00,97.45
3860.00,97.44
3859.00,97.44
3858.00,97.45
3857.00,97.47
3856.00,97.49
3855.00,97.50
3854.00,97.50
3853.00,97.49
3852.00,97.51
3851.00,97.52
3850.00,97.50
3849.00,97.44
3848.00,97.40
3847.00,97.38
3846.00,97.40
3845.00,97.43
3844.00,97.46
3843.00,97.47
3842.00,97.47
3841.00,97.46
3840.00,97.46
3839.00,97.46
3838.00,97.46
3837.00,97.45
3836.00,97.44
3835.00,97.42
3834.00,97.40
3833.00,97.38
3832.00,97.37
3831.00,97.37
3830.00,97.40
3829.00,97.42
3828.00,97.42
3827.00,97.40
3826.00,97.36
3825.00,97.35
3824.00,97.36
3823.00,97.39
3822.00,97.40
3821.00,97.41
3820.00,97.41
3819.00,97.41
3818.00,97.39
3817.00,97.35
3816.00,97.30
3815.00,97.26
3814.00,97.24
3813.00,97.25
3812.00,97.25
3811.00,97.26
3810.00,97.29
3809.00,97.32
3808.00,97.33
3807.00,97.32
3806.00,97.32
3805.00,97.33
3804.00,97.34
3803.00,97.31
3802.00,97.27
3801.00,97.23
3800.00,97.22
3799.00,97.25
3798.00,97.26
3797.00,97.27
3796.00,97.28
3795.00,97.29
3794.00,97.32
3793.00,97.33
3792.00,97.33
3791.00,97.33
3790.00,97.35
3789.00,97.37
3788.00,97.38
3787.00,97.38
3786.00,97.35
3785.00,97.32
3784.00,97.30
3783.00,97.29
3782.00,97.30
3781.00,97.32
3780.00,97.34
3779.00,97.36
3778.00,97.36
3777.00,97.36
3776.00,97.33
3775.00,97.29
3774.00,97.26
3773.00,97.24
3772.00,97.25
3771.00,97.26
3770.00,97.27
3769.00,97.28
3768.00,97.29
3767.00,97.28
3766.00,97.25
3765.00,97.22
3764.00,97.21
3763.00,97.22
3762.00,97.24
3761.00,97.25
3760.00,97.26
3759.00,97.27
3758.00,97.28
3757.00,97.28
3756.00,97.27
3755.00,97.26
3754.00,97.24
3753.00,97.22
3752.00,97.18
3751.00,97.14
3750.00,97.12
3749.00,97.13
3748.00,97.16
3747.00,97.20
3746.00,97.22
3745.00,97.21
3744.00,97.19
3743.00,97.21
3742.00,97.26
3741.00,97.28
3740.00,97.27
3739.00,97.25
3738.00,97.24
3737.00,97.25
3736.00,97.24
3735.00,97.23
3734.00,97.23
3733.00,97.23
3732.00,97.23
3731.00,97.22
3730.00,97.22
3729.00,97.22
3728.00,97.20
3727.00,97.18
3726.00,97.16
3725.00,97.16
3724.00,97.17
3723.00,97.18
3722.00,97.19
3721.00,97.19
3720.00,97.18
3719.00,97.16
3718.00,97.15
3717.00,97.14
3716.00,97.16
3715.00,97.18
3714.00,97.20
3713.00,97.19
3712.00,97.16
3711.00,97.12
3710.00,97.10
3709.00,97.10
3708.00,97.10
3707.00,97.11
3706.00,97.12
3705.00,97.12
3704.00,97.12
3703.00,97.12
3702.00,97.12
3701.00,97.11
3700.00,97.11
3699.00,97.11
3698.00,97.11
3697.00,97.10
3696.00,97.10
3695.00,97.11
3694.00,97.11
3693.00,97.10
3692.00,97.08
3691.00,97.08
3690.00,97.08
3689.00,97.08
3688.00,97.07
3687.00,97.06
3686.00,97.06
3685.00,97.07
3684.00,97.07
3683.00,97.08
3682.00,97.08
3681.00,97.06
3680.00,97.05
3679.00,97.04
3678.00,97.04
3677.00,97.02
3676.00,96.97
3675.00,96.91
3674.00,96.89
3673.00,96.89
3672.00,96.90
3671.00,96.89
3670.00,96.88
3669.00,96.88
3668.00,96.89
3667.00,96.90
3666.00,96.89
3665.00,96.87
3664.00,96.86
3663.00,96.83
3662.00,96.81
3661.00,96.80
3660.00,96.81
3659.00,96.83
3658.00,96.85
3657.00,96.87
3656.00,96.87
3655.00,96.87
3654.00,96.87
3653.00,96.85
3652.00,96.82
3651.00,96.80
3650.00,96.77
3649.00,96.76
3648.00,96.74
3647.00,96.71
3646.00,96.70
3645.00,96.71
3644.00,96.71
3643.00,96.70
3642.00,96.68
3641.00,96.67
3640.00,96.69
3639.00,96.72
3638.00,96.74
3637.00,96.75
3636.00,96.75
3635.00,96.74
3634.00,96.73
3633.00,96.74
3632.00,96.76
3631.00,96.77
3630.00,96.76
3629.00,96.72
3628.00,96.70
3627.00,96.69
3626.00,96.69
3625.00,96.68
3624.00,96.66
3623.00,96.65
3622.00,96.67
3621.00,96.68
3620.00,96.68
3619.00,96.67
3618.00,96.66
3617.00,96.65
3616.00,96.63
3615.00,96.61
3614.00,96.61
3613.00,96.61
3612.00,96.62
3611.00,96.62
3610.00,96.60
3609.00,96.58
3608.00,96.57
3607.00,96.57
3606.00,96.58
3605.00,96.59
3604.00,96.60
3603.00,96.61
3602.00,96.62
3601.00,96.62
3600.00,96.61
3599.00,96.59
3598.00,96.58
3597.00,96.58
3596.00,96.57
3595.00,96.57
3594.00,96.58
3593.00,96.59
3592.00,96.61
3591.00,96.63
3590.00,96.66
3589.00,96.69
3588.00,96.70
3587.00,96.70
3586.00,96.69
3585.00,96.66
3584.00,96.64
3583.00,96.62
3582.00,96.60
3581.00,96.59
3580.00,96.58
3579.00,96.58
3578.00,96.59
3577.00,96.60
3576.00,96.61
3575.00,96.61
3574.00,96.61
3573.00,96.60
3572.00,96.60
3571.00,96.59
3570.00,96.59
3569.00,96.58
3568.00,96.58
3567.00,96.58
3566.00,96.57
3565.00,96.56
3564.00,96.53
3563.00,96.52
3562.00,96.51
3561.00,96.51
3560.00,96.50
3559.00,96.48
3558.00,96.46
3557.00,96.44
3556.00,96.43
3555.00,96.44
3554.00,96.45
3553.00,96.45
3552.00,96.44
3551.00,96.43
3550.00,96.41
3549.00,96.39
3548.00,96.36
3547.00,96.36
3546.00,96.38
3545.00,96.41
3544.00,96.42
3543.00,96.41
3542.00,96.39
3541.00,96.37
3540.00,96.38
3539.00,96.40
3538.00,96.43
3537.00,96.45
3536.00,96.46
3535.00,96.48
3534.00,96.48
3533.00,96.48
3532.00,96.47
3531.00,96.45
3530.00,96.44
3529.00,96.42
3528.00,96.41
3527.00,96.41
3526.00,96.41
3525.00,96.43
3524.00,96.45
3523.00,96.45
3522.00,96.45
3521.00,96.44
3520.00,96.43
3519.00,96.41
3518.00,96.40
3517.00,96.39
3516.00,96.39
3515.00,96.38
3514.00,96.38
3513.00,96.38
3512.00,96.38
3511.00,96.38
3510.00,96.38
3509.00,96.38
3508.00,96.38
3507.00,96.38
3506.00,96.37
3505.00,96.36
3504.00,96.35
3503.00,96.34
3502.00,96.34
3501.00,96.35
3500.00,96.36
3499.00,96.37
3498.00,96.38
3497.00,96.39
3496.00,96.39
3495.00,96.39
3494.00,96.39
3493.00,96.38
3492.00,96.37
3491.00,96.36
3490.00,96.35
3489.00,96.36
3488.00,96.36
3487.00,96.37
3486.00,96.39
3485.00,96.39
3484.00,96.40
3483.00,96.39
3482.00,96.39
3481.00,96.38
3480.00,96.38
3479.00,96.37
3478.00,96.36
3477.00,96.35
3476.00,96.36
3475.00,96.37
3474.00,96.37
3473.00,96.37
3472.00,96.36
3471.00,96.36
3470.00,96.36
3469.00,96.37
3468.00,96.38
3467.00,96.38
3466.00,96.38
3465.00,96.37
3464.00,96.37
3463.00,96.38
3462.00,96.38
3461.00,96.39
3460.00,96.40
3459.00,96.40
3458.00,96.39
3457.00,96.39
3456.00,96.38
3455.00,96.38
3454.00,96.39
3453.00,96.42
3452.00,96.45
3451.00,96.47
3450.00,96.46
3449.00,96.45
3448.00,96.43
3447.00,96.43
3446.00,96.44
3445.00,96.45
3444.00,96.46
3443.00,96.47
3442.00,96.48
3441.00,96.50
3440.00,96.52
3439.00,96.54
3438.00,96.54
3437.00,96.53
3436.00,96.51
3435.00,96.50
3434.00,96.50
3433.00,96.50
3432.00,96.49
3431.00,96.48
3430.00,96.47
3429.00,96.47
3428.00,96.49
3427.00,96.51
3426.00,96.54
3425.00,96.55
3424.00,96.54
3423.00,96.53
3422.00,96.52
3421.00,96.53
3420.00,96.54
3419.00,96.56
3418.00,96.57
3417.00,96.57
3416.00,96.58
3415.00,96.59
3414.00,96.60
3413.00,96.61
3412.00,96.61
3411.00,96.60
3410.00,96.60
3409.00,96.60
3408.00,96.61
3407.00,96.62
3406.00,96.62
3405.00,96.62
3404.00,96.62
3403.00,96.63
3402.00,96.63
3401.00,96.62
3400.00,96.62
3399.00,96.62
3398.00,96.62
3397.00,96.62
3396.00,96.63
3395.00,96.63
3394.00,96.63
3393.00,96.62
3392.00,96.61
3391.00,96.60
3390.00,96.60
3389.00,96.60
3388.00,96.59
3387.00,96.58
3386.00,96.56
3385.00,96.56
3384.00,96.57
3383.00,96.59
3382.00,96.61
3381.00,96.63
3380.00,96.63
3379.00,96.63
3378.00,96.63
3377.00,96.63
3376.00,96.63
3375.00,96.63
3374.00,96.63
3373.00,96.62
3372.00,96.62
3371.00,96.62
3370.00,96.63
3369.00,96.64
3368.00,96.65
3367.00,96.66
3366.00,96.65
3365.00,96.62
3364.00,96.59
3363.00,96.58
3362.00,96.60
3361.00,96.63
3360.00,96.66
3359.00,96.68
3358.00,96.68
3357.00,96.66
3356.00,96.64
3355.00,96.62
3354.00,96.61
3353.00,96.61
3352.00,96.63
3351.00,96.64
3350.00,96.65
3349.00,96.66
3348.00,96.66
3347.00,96.66
3346.00,96.66
3345.00,96.66
3344.00,96.66
3343.00,96.66
3342.00,96.66
3341.00,96.66
3340.00,96.67
3339.00,96.68
3338.00,96.70
3337.00,96.72
3336.00,96.73
3335.00,96.72
3334.00,96.69
3333.00,96.65
3332.00,96.63
3331.00,96.62
3330.00,96.64
3329.00,96.67
3328.00,96.68
3327.00,96.68
3326.00,96.67
3325.00,96.66
3324.00,96.65
3323.00,96.67
3322.00,96.69
3321.00,96.71
3320.00,96.72
3319.00,96.71
3318.00,96.71
3317.00,96.71
3316.00,96.73
3315.00,96.74
3314.00,96.74
3313.00,96.73
3312.00,96.72
3311.00,96.71
3310.00,96.71
3309.00,96.71
3308.00,96.70
3307.00,96.69
3306.00,96.68
3305.00,96.68
3304.00,96.69
3303.00,96.72
3302.00,96.74
3301.00,96.76
3300.00,96.76
3299.00,96.75
3298.00,96.72
3297.00,96.71
3296.00,96.70
3295.00,96.70
3294.00,96.70
3293.00,96.70
3292.00,96.70
3291.00,96.69
3290.00,96.69
3289.00,96.68
3288.00,96.68
3287.00,96.70
3286.00,96.72
3285.00,96.74
3284.00,96.73
3283.00,96.71
3282.00,96.68
3281.00,96.65
3280.00,96.64
3279.00,96.64
3278.00,96.65
3277.00,96.65
3276.00,96.65
3275.00,96.65
3274.00,96.66
3273.00,96.68
3272.00,96.70
3271.00,96.72
3270.00,96.72
3269.00,96.72
3268.00,96.72
3267.00,96.73
3266.00,96.73
3265.00,96.73
3264.00,96.72
3263.00,96.70
3262.00,96.69
3261.00,96.68
3260.00,96.67
3259.00,96.68
3258.00,96.68
3257.00,96.68
3256.00,96.69
3255.00,96.71
3254.00,96.72
3253.00,96.71
3252.00,96.71
3251.00,96.69
3250.00,96.69
3249.00,96.68
3248.00,96.69
3247.00,96.70
3246.00,96.71
3245.00,96.70
3244.00,96.68
3243.00,96.66
3242.00,96.65
3241.00,96.64
3240.00,96.65
3239.00,96.67
3238.00,96.68
3237.00,96.69
3236.00,96.67
3235.00,96.65
3234.00,96.65
3233.00,96.67
3232.00,96.69
3231.00,96.71
3230.00,96.73
3229.00,96.73
3228.00,96.71
3227.00,96.70
3226.00,96.69
3225.00,96.70
3224.00,96.71
3223.00,96.71
3222.00,96.69
3221.00,96.68
3220.00,96.68
3219.00,96.69
3218.00,96.70
3217.00,96.72
3216.00,96.73
3215.00,96.75
3214.00,96.76
3213.00,96.76
3212.00,96.75
3211.00,96.75
3210.00,96.74
3209.00,96.73
3208.00,96.72
3207.00,96.71
3206.00,96.71
3205.00,96.72
3204.00,96.72
3203.00,96.72
3202.00,96.71
3201.00,96.70
3200.00,96.69
3199.00,96.69
3198.00,96.70
3197.00,96.71
3196.00,96.73
3195.00,96.75
3194.00,96.77
3193.00,96.79
3192.00,96.80
3191.00,96.78
3190.00,96.75
3189.00,96.74
3188.00,96.75
3187.00,96.78
3186.00,96.80
3185.00,96.81
3184.00,96.79
3183.00,96.77
3182.00,96.75
3181.00,96.76
3180.00,96.78
3179.00,96.79
3178.00,96.79
3177.00,96.77
3176.00,96.74
3175.00,96.73
3174.00,96.74
3173.00,96.75
3172.00,96.75
3171.00,96.75
3170.00,96.75
3169.00,96.75
3168.00,96.75
3167.00,96.75
3166.00,96.75
3165.00,96.75
3164.00,96.74
3163.00,96.72
3162.00,96.70
3161.00,96.69
3160.00,96.69
3159.00,96.69
3158.00,96.70
3157.00,96.70
3156.00,96.71
3155.00,96.72
3154.00,96.73
3153.00,96.73
3152.00,96.73
3151.00,96.73
3150.00,96.74
3149.00,96.76
3148.00,96.77
3147.00,96.78
3146.00,96.78
3145.00,96.77
3144.00,96.76
3143.00,96.76
3142.00,96.76
3141.00,96.76
3140.00,96.75
3139.00,96.74
3138.00,96.74
3137.00,96.75
3136.00,96.76
3135.00,96.76
3134.00,96.75
3133.00,96.75
3132.00,96.76
3131.00,96.78
3130.00,96.80
3129.00,96.81
3128.00,96.81
3127.00,96.80
3126.00,96.81
3125.00,96.81
3124.00,96.82
3123.00,96.83
3122.00,96.83
3121.00,96.83
3120.00,96.81
3119.00,96.79
3118.00,96.76
3117.00,96.75
3116.00,96.75
3115.00,96.76
3114.00,96.76
3113.00,96.76
3112.00,96.76
3111.00,96.76
3110.00,96.76
3109.00,96.77
3108.00,96.78
3107.00,96.78
3106.00,96.78
3105.00,96.78
3104.00,96.78
3103.00,96.79
3102.00,96.80
3101.00,96.81
3100.00,96.81
3099.00,96.81
3098.00,96.80
3097.00,96.80
3096.00,96.79
3095.00,96.77
3094.00,96.77
3093.00,96.77
3092.00,96.78
3091.00,96.78
3090.00,96.79
3089.00,96.78
3088.00,96.77
3087.00,96.76
3086.00,96.76
3085.00,96.75
3084.00,96.75
3083.00,96.74
3082.00,96.73
3081.00,96.75
3080.00,96.79
3079.00,96.82
3078.00,96.83
3077.00,96.82
3076.00,96.79
3075.00,96.77
3074.00,96.75
3073.00,96.75
3072.00,96.75
3071.00,96.75
3070.00,96.75
3069.00,96.76
3068.00,96.76
3067.00,96.76
3066.00,96.75
3065.00,96.74
3064.00,96.74
3063.00,96.74
3062.00,96.75
3061.00,96.76
3060.00,96.76
3059.00,96.77
3058.00,96.77
3057.00,96.77
3056.00,96.77
3055.00,96.77
3054.00,96.78
3053.00,96.79
3052.00,96.80
3051.00,96.80
3050.00,96.79
3049.00,96.77
3048.00,96.74
3047.00,96.72
3046.00,96.70
3045.00,96.69
3044.00,96.70
3043.00,96.72
3042.00,96.73
3041.00,96.74
3040.00,96.73
3039.00,96.71
3038.00,96.69
3037.00,96.67
3036.00,96.67
3035.00,96.66
3034.00,96.66
3033.00,96.65
3032.00,96.65
3031.00,96.65
3030.00,96.65
3029.00,96.63
3028.00,96.61
3027.00,96.59
3026.00,96.57
3025.00,96.57
3024.00,96.56
3023.00,96.56
3022.00,96.56
3021.00,96.56
3020.00,96.57
3019.00,96.58
3018.00,96.59
3017.00,96.59
3016.00,96.58
3015.00,96.56
3014.00,96.53
3013.00,96.52
3012.00,96.53
3011.00,96.54
3010.00,96.54
3009.00,96.52
3008.00,96.50
3007.00,96.49
3006.00,96.47
3005.00,96.47
3004.00,96.48
3003.00,96.48
3002.00,96.48
3001.00,96.46
3000.00,96.43
2999.00,96.42
2998.00,96.41
2997.00,96.41
2996.00,96.42
2995.00,96.42
2994.00,96.42
2993.00,96.41
2992.00,96.39
2991.00,96.37
2990.00,96.35
2989.00,96.34
2988.00,96.34
2987.00,96.34
2986.00,96.34
2985.00,96.34
2984.00,96.34
2983.00,96.33
2982.00,96.32
2981.00,96.30
2980.00,96.27
2979.00,96.25
2978.00,96.23
2977.00,96.21
2976.00,96.19
2975.00,96.16
2974.00,96.14
2973.00,96.12
2972.00,96.10
2971.00,96.06
2970.00,96.01
2969.00,95.96
2968.00,95.90
2967.00,95.86
2966.00,95.82
2965.00,95.78
2964.00,95.75
2963.00,95.71
2962.00,95.68
2961.00,95.66
2960.00,95.65
2959.00,95.66
2958.00,95.67
2957.00,95.68
2956.00,95.68
2955.00,95.67
2954.00,95.65
2953.00,95.63
2952.00,95.60
2951.00,95.59
2950.00,95.58
2949.00,95.58
2948.00,95.60
2947.00,95.62
2946.00,95.62
2945.00,95.59
2944.00,95.55
2943.00,95.52
2942.00,95.49
2941.00,95.49
2940.00,95.51
2939.00,95.53
2938.00,95.55
2937.00,95.56
2936.00,95.56
2935.00,95.56
2934.00,95.57
2933.00,95.58
2932.00,95.60
2931.00,95.61
2930.00,95.62
2929.00,95.63
2928.00,95.65
2927.00,95.68
2926.00,95.71
2925.00,95.71
2924.00,95.71
2923.00,95.73
2922.00,95.75
2921.00,95.78
2920.00,95.80
2919.00,95.81
2918.00,95.82
2917.00,95.84
2916.00,95.85
2915.00,95.87
2914.00,95.88
2913.00,95.88
2912.00,95.87
2911.00,95.87
2910.00,95.87
2909.00,95.87
2908.00,95.87
2907.00,95.87
2906.00,95.88
2905.00,95.88
2904.00,95.89
2903.00,95.90
2902.00,95.91
2901.00,95.92
2900.00,95.93
2899.00,95.94
2898.00,95.94
2897.00,95.94
2896.00,95.94
2895.00,95.93
2894.00,95.93
2893.00,95.94
2892.00,95.96
2891.00,95.97
2890.00,95.97
2889.00,95.97
2888.00,95.97
2887.00,95.97
2886.00,95.98
2885.00,95.98
2884.00,95.98
2883.00,95.97
2882.00,95.97
2881.00,95.96
2880.00,95.96
2879.00,95.95
2878.00,95.93
2877.00,95.92
2876.00,95.93
2875.00,95.95
2874.00,95.97
2873.00,95.99
2872.00,96.00
2871.00,95.99
2870.00,95.98
2869.00,95.98
2868.00,96.00
2867.00,96.01
2866.00,96.03
2865.00,96.06
2864.00,96.07
2863.00,96.08
2862.00,96.09
2861.00,96.11
2860.00,96.13
2859.00,96.14
2858.00,96.15
2857.00,96.15
2856.00,96.15
2855.00,96.14
2854.00,96.15
2853.00,96.16
2852.00,96.19
2851.00,96.21
2850.00,96.24
2849.00,96.27
2848.00,96.30
2847.00,96.33
2846.00,96.36
2845.00,96.38
2844.00,96.41
2843.00,96.43
2842.00,96.46
2841.00,96.49
2840.00,96.52
2839.00,96.54
2838.00,96.56
2837.00,96.57
2836.00,96.58
2835.00,96.58
2834.00,96.59
2833.00,96.60
2832.00,96.61
2831.00,96.62
2830.00,96.63
2829.00,96.63
2828.00,96.63
2827.00,96.64
2826.00,96.65
2825.00,96.65
2824.00,96.66
2823.00,96.66
2822.00,96.65
2821.00,96.64
2820.00,96.63
2819.00,96.64
2818.00,96.66
2817.00,96.67
2816.00,96.69
2815.00,96.69
2814.00,96.68
2813.00,96.68
2812.00,96.67
2811.00,96.67
2810.00,96.67
2809.00,96.68
2808.00,96.69
2807.00,96.70
2806.00,96.70
2805.00,96.69
2804.00,96.68
2803.00,96.68
2802.00,96.68
2801.00,96.69
2800.00,96.70
2799.00,96.72
2798.00,96.73
2797.00,96.74
2796.00,96.74
2795.00,96.75
2794.00,96.75
2793.00,96.74
2792.00,96.73
2791.00,96.71
2790.00,96.71
2789.00,96.72
2788.00,96.75
2787.00,96.76
2786.00,96.77
2785.00,96.77
2784.00,96.76
2783.00,96.75
2782.00,96.75
2781.00,96.74
2780.00,96.74
2779.00,96.75
2778.00,96.77
2777.00,96.79
2776.00,96.80
2775.00,96.81
2774.00,96.81
2773.00,96.82
2772.00,96.82
2771.00,96.83
2770.00,96.83
2769.00,96.83
2768.00,96.82
2767.00,96.82
2766.00,96.82
2765.00,96.83
2764.00,96.83
2763.00,96.83
2762.00,96.82
2761.00,96.82
2760.00,96.82
2759.00,96.81
2758.00,96.80
2757.00,96.80
2756.00,96.81
2755.00,96.80
2754.00,96.80
2753.00,96.80
2752.00,96.80
2751.00,96.80
2750.00,96.80
2749.00,96.80
2748.00,96.80
2747.00,96.80
2746.00,96.80
2745.00,96.78
2744.00,96.76
2743.00,96.75
2742.00,96.75
2741.00,96.76
2740.00,96.76
2739.00,96.77
2738.00,96.77
2737.00,96.77
2736.00,96.77
2735.00,96.78
2734.00,96.77
2733.00,96.77
2732.00,96.76
2731.00,96.77
2730.00,96.78
2729.00,96.79
2728.00,96.78
2727.00,96.77
2726.00,96.77
2725.00,96.78
2724.00,96.79
2723.00,96.80
2722.00,96.80
2721.00,96.79
2720.00,96.79
2719.00,96.80
2718.00,96.81
2717.00,96.82
2716.00,96.83
2715.00,96.83
2714.00,96.82
2713.00,96.81
2712.00,96.81
2711.00,96.81
2710.00,96.82
2709.00,96.83
2708.00,96.83
2707.00,96.83
2706.00,96.83
2705.00,96.83
2704.00,96.83
2703.00,96.84
2702.00,96.85
2701.00,96.85
2700.00,96.85
2699.00,96.85
2698.00,96.86
2697.00,96.86
2696.00,96.87
2695.00,96.86
2694.00,96.85
2693.00,96.85
2692.00,96.84
2691.00,96.84
2690.00,96.85
2689.00,96.85
2688.00,96.86
2687.00,96.86
2686.00,96.85
2685.00,96.85
2684.00,96.85
2683.00,96.86
2682.00,96.87
2681.00,96.88
2680.00,96.88
2679.00,96.86
2678.00,96.85
2677.00,96.85
2676.00,96.85
2675.00,96.87
2674.00,96.87
2673.00,96.87
2672.00,96.87
2671.00,96.87
2670.00,96.87
2669.00,96.87
2668.00,96.87
2667.00,96.87
2666.00,96.88
2665.00,96.87
2664.00,96.86
2663.00,96.83
2662.00,96.80
2661.00,96.78
2660.00,96.77
2659.00,96.76
2658.00,96.75
2657.00,96.75
2656.00,96.75
2655.00,96.76
2654.00,96.76
2653.00,96.76
2652.00,96.75
2651.00,96.74
2650.00,96.72
2649.00,96.70
2648.00,96.68
2647.00,96.66
2646.00,96.66
2645.00,96.66
2644.00,96.67
2643.00,96.66
2642.00,96.65
2641.00,96.62
2640.00,96.60
2639.00,96.58
2638.00,96.56
2637.00,96.55
2636.00,96.54
2635.00,96.53
2634.00,96.53
2633.00,96.54
2632.00,96.55
2631.00,96.55
2630.00,96.53
2629.00,96.51
2628.00,96.50
2627.00,96.50
2626.00,96.51
2625.00,96.52
2624.00,96.53
2623.00,96.52
2622.00,96.50
2621.00,96.49
2620.00,96.49
2619.00,96.50
2618.00,96.50
2617.00,96.49
2616.00,96.46
2615.00,96.44
2614.00,96.42
2613.00,96.42
2612.00,96.42
2611.00,96.41
2610.00,96.40
2609.00,96.38
2608.00,96.37
2607.00,96.37
2606.00,96.38
2605.00,96.39
2604.00,96.40
2603.00,96.39
2602.00,96.39
2601.00,96.39
2600.00,96.39
2599.00,96.40
2598.00,96.40
2597.00,96.41
2596.00,96.41
2595.00,96.39
2594.00,96.37
2593.00,96.34
2592.00,96.31
2591.00,96.28
2590.00,96.25
2589.00,96.24
2588.00,96.24
2587.00,96.25
2586.00,96.25
2585.00,96.25
2584.00,96.25
2583.00,96.24
2582.00,96.25
2581.00,96.26
2580.00,96.28
2579.00,96.29
2578.00,96.29
2577.00,96.27
2576.00,96.25
2575.00,96.24
2574.00,96.24
2573.00,96.24
2572.00,96.23
2571.00,96.22
2570.00,96.22
2569.00,96.22
2568.00,96.23
2567.00,96.24
2566.00,96.23
2565.00,96.21
2564.00,96.18
2563.00,96.16
2562.00,96.15
2561.00,96.15
2560.00,96.16
2559.00,96.19
2558.00,96.21
2557.00,96.21
2556.00,96.20
2555.00,96.17
2554.00,96.14
2553.00,96.12
2552.00,96.12
2551.00,96.14
2550.00,96.15
2549.00,96.17
2548.00,96.19
2547.00,96.20
2546.00,96.22
2545.00,96.25
2544.00,96.27
2543.00,96.28
2542.00,96.26
2541.00,96.23
2540.00,96.19
2539.00,96.15
2538.00,96.12
2537.00,96.11
2536.00,96.11
2535.00,96.12
2534.00,96.13
2533.00,96.14
2532.00,96.16
2531.00,96.17
2530.00,96.18
2529.00,96.19
2528.00,96.20
2527.00,96.19
2526.00,96.19
2525.00,96.20
2524.00,96.22
2523.00,96.23
2522.00,96.22
2521.00,96.20
2520.00,96.17
2519.00,96.15
2518.00,96.14
2517.00,96.14
2516.00,96.16
2515.00,96.17
2514.00,96.18
2513.00,96.18
2512.00,96.17
2511.00,96.16
2510.00,96.17
2509.00,96.18
2508.00,96.20
2507.00,96.20
2506.00,96.20
2505.00,96.19
2504.00,96.19
2503.00,96.19
2502.00,96.20
2501.00,96.21
2500.00,96.22
2499.00,96.21
2498.00,96.20
2497.00,96.18
2496.00,96.16
2495.00,96.15
2494.00,96.15
2493.00,96.16
2492.00,96.17
2491.00,96.17
2490.00,96.16
2489.00,96.16
2488.00,96.16
2487.00,96.16
2486.00,96.16
2485.00,96.17
2484.00,96.18
2483.00,96.17
2482.00,96.16
2481.00,96.15
2480.00,96.16
2479.00,96.16
2478.00,96.16
2477.00,96.14
2476.00,96.13
2475.00,96.13
2474.00,96.15
2473.00,96.17
2472.00,96.18
2471.00,96.18
2470.00,96.18
2469.00,96.18
2468.00,96.18
2467.00,96.17
2466.00,96.15
2465.00,96.14
2464.00,96.15
2463.00,96.16
2462.00,96.17
2461.00,96.18
2460.00,96.17
2459.00,96.16
2458.00,96.14
2457.00,96.13
2456.00,96.13
2455.00,96.14
2454.00,96.15
2453.00,96.16
2452.00,96.17
2451.00,96.17
2450.00,96.17
2449.00,96.17
2448.00,96.16
2447.00,96.15
2446.00,96.14
2445.00,96.13
2444.00,96.11
2443.00,96.10
2442.00,96.10
2441.00,96.12
2440.00,96.15
2439.00,96.17
2438.00,96.19
2437.00,96.20
2436.00,96.21
2435.00,96.22
2434.00,96.22
2433.00,96.21
2432.00,96.19
2431.00,96.17
2430.00,96.16
2429.00,96.16
2428.00,96.16
2427.00,96.17
2426.00,96.17
2425.00,96.16
2424.00,96.16
2423.00,96.16
2422.00,96.17
2421.00,96.18
2420.00,96.19
2419.00,96.18
2418.00,96.17
2417.00,96.17
2416.00,96.20
2415.00,96.22
2414.00,96.24
2413.00,96.25
2412.00,96.25
2411.00,96.28
2410.00,96.30
2409.00,96.31
2408.00,96.30
2407.00,96.29
2406.00,96.30
2405.00,96.31
2404.00,96.32
2403.00,96.32
2402.00,96.32
2401.00,96.32
2400.00,96.32
2399.00,96.31
2398.00,96.32
2397.00,96.35
2396.00,96.39
2395.00,96.43
2394.00,96.44
2393.00,96.44
2392.00,96.43
2391.00,96.42
2390.00,96.42
2389.00,96.43
2388.00,96.45
2387.00,96.47
2386.00,96.49
2385.00,96.51
2384.00,96.53
2383.00,96.54
2382.00,96.55
2381.00,96.57
2380.00,96.60
2379.00,96.65
2378.00,96.70
2377.00,96.73
2376.00,96.76
2375.00,96.77
2374.00,96.80
2373.00,96.83
2372.00,96.87
2371.00,96.89
2370.00,96.88
2369.00,96.82
2368.00,96.77
2367.00,96.74
2366.00,96.75
2365.00,96.77
2364.00,96.79
2363.00,96.82
2362.00,96.85
2361.00,96.88
2360.00,96.89
2359.00,96.87
2358.00,96.85
2357.00,96.87
2356.00,96.92
2355.00,96.95
2354.00,96.93
2353.00,96.87
2352.00,96.83
2351.00,96.82
2350.00,96.85
2349.00,96.87
2348.00,96.89
2347.00,96.90
2346.00,96.93
2345.00,96.96
2344.00,96.97
2343.00,96.95
2342.00,96.92
2341.00,96.89
2340.00,96.89
2339.00,96.90
2338.00,96.91
2337.00,96.91
2336.00,96.88
2335.00,96.83
2334.00,96.80
2333.00,96.81
2332.00,96.87
2331.00,96.94
2330.00,97.00
2329.00,97.00
2328.00,96.95
2327.00,96.87
2326.00,96.78
2325.00,96.72
2324.00,96.69
2323.00,96.69
2322.00,96.69
2321.00,96.69
2320.00,96.67
2319.00,96.64
2318.00,96.59
2317.00,96.55
2316.00,96.53
2315.00,96.51
2314.00,96.50
2313.00,96.50
2312.00,96.49
2311.00,96.48
2310.00,96.47
2309.00,96.45
2308.00,96.44
2307.00,96.42
2306.00,96.42
2305.00,96.41
2304.00,96.39
2303.00,96.36
2302.00,96.31
2301.00,96.28
2300.00,96.26
2299.00,96.24
2298.00,96.23
2297.00,96.21
2296.00,96.19
2295.00,96.16
2294.00,96.13
2293.00,96.10
2292.00,96.06
2291.00,96.03
2290.00,95.99
2289.00,95.97
2288.00,95.94
2287.00,95.92
2286.00,95.87
2285.00,95.81
2284.00,95.75
2283.00,95.71
2282.00,95.68
2281.00,95.67
2280.00,95.68
2279.00,95.69
2278.00,95.68
2277.00,95.65
2276.00,95.62
2275.00,95.59
2274.00,95.57
2273.00,95.57
2272.00,95.58
2271.00,95.57
2270.00,95.54
2269.00,95.50
2268.00,95.46
2267.00,95.44
2266.00,95.45
2265.00,95.46
2264.00,95.47
2263.00,95.48
2262.00,95.48
2261.00,95.47
2260.00,95.44
2259.00,95.42
2258.00,95.42
2257.00,95.40
2256.00,95.35
2255.00,95.29
2254.00,95.24
2253.00,95.23
2252.00,95.25
2251.00,95.27
2250.00,95.27
2249.00,95.25
2248.00,95.22
2247.00,95.20
2246.00,95.20
2245.00,95.21
2244.00,95.22
2243.00,95.23
2242.00,95.23
2241.00,95.20
2240.00,95.16
2239.00,95.10
2238.00,95.06
2237.00,95.05
2236.00,95.06
2235.00,95.05
2234.00,95.03
2233.00,95.01
2232.00,94.98
2231.00,94.97
2230.00,94.96
2229.00,94.94
2228.00,94.92
2227.00,94.91
2226.00,94.92
2225.00,94.94
2224.00,94.97
2223.00,94.98
2222.00,94.95
2221.00,94.89
2220.00,94.82
2219.00,94.75
2218.00,94.71
2217.00,94.70
2216.00,94.72
2215.00,94.72
2214.00,94.69
2213.00,94.65
2212.00,94.64
2211.00,94.66
2210.00,94.70
2209.00,94.72
2208.00,94.70
2207.00,94.66
2206.00,94.63
2205.00,94.62
2204.00,94.62
2203.00,94.62
2202.00,94.60
2201.00,94.57
2200.00,94.55
2199.00,94.54
2198.00,94.53
2197.00,94.52
2196.00,94.55
2195.00,94.59
2194.00,94.62
2193.00,94.61
2192.00,94.57
2191.00,94.52
2190.00,94.46
2189.00,94.41
2188.00,94.35
2187.00,94.27
2186.00,94.16
2185.00,94.07
2184.00,94.02
2183.00,94.04
2182.00,94.10
2181.00,94.12
2180.00,94.09
2179.00,94.05
2178.00,94.06
2177.00,94.14
2176.00,94.22
2175.00,94.25
2174.00,94.22
2173.00,94.16
2172.00,94.09
2171.00,94.03
2170.00,93.95
2169.00,93.86
2168.00,93.76
2167.00,93.67
2166.00,93.63
2165.00,93.58
2164.00,93.51
2163.00,93.37
2162.00,93.24
2161.00,93.17
2160.00,93.24
2159.00,93.45
2158.00,93.71
2157.00,93.94
2156.00,94.10
2155.00,94.19
2154.00,94.24
2153.00,94.26
2152.00,94.26
2151.00,94.28
2150.00,94.33
2149.00,94.42
2148.00,94.51
2147.00,94.55
2146.00,94.56
2145.00,94.56
2144.00,94.56
2143.00,94.58
2142.00,94.63
2141.00,94.70
2140.00,94.76
2139.00,94.79
2138.00,94.81
2137.00,94.86
2136.00,94.95
2135.00,95.03
2134.00,95.10
2133.00,95.16
2132.00,95.21
2131.00,95.27
2130.00,95.33
2129.00,95.40
2128.00,95.45
2127.00,95.47
2126.00,95.47
2125.00,95.44
2124.00,95.41
2123.00,95.40
2122.00,95.40
2121.00,95.42
2120.00,95.43
2119.00,95.45
2118.00,95.47
2117.00,95.48
2116.00,95.46
2115.00,95.43
2114.00,95.39
2113.00,95.34
2112.00,95.30
2111.00,95.28
2110.00,95.28
2109.00,95.31
2108.00,95.34
2107.00,95.36
2106.00,95.36
2105.00,95.36
2104.00,95.35
2103.00,95.33
2102.00,95.31
2101.00,95.30
2100.00,95.30
2099.00,95.31
2098.00,95.32
2097.00,95.35
2096.00,95.40
2095.00,95.44
2094.00,95.46
2093.00,95.45
2092.00,95.41
2091.00,95.37
2090.00,95.36
2089.00,95.38
2088.00,95.42
2087.00,95.45
2086.00,95.46
2085.00,95.44
2084.00,95.40
2083.00,95.36
2082.00,95.34
2081.00,95.32
2080.00,95.31
2079.00,95.29
2078.00,95.27
2077.00,95.25
2076.00,95.23
2075.00,95.20
2074.00,95.20
2073.00,95.20
2072.00,95.21
2071.00,95.20
2070.00,95.18
2069.00,95.15
2068.00,95.13
2067.00,95.12
2066.00,95.13
2065.00,95.17
2064.00,95.21
2063.00,95.25
2062.00,95.26
2061.00,95.25
2060.00,95.22
2059.00,95.19
2058.00,95.16
2057.00,95.13
2056.00,95.09
2055.00,95.05
2054.00,95.01
2053.00,94.94
2052.00,94.84
2051.00,94.74
2050.00,94.67
2049.00,94.64
2048.00,94.61
2047.00,94.57
2046.00,94.51
2045.00,94.46
2044.00,94.42
2043.00,94.39
2042.00,94.37
2041.00,94.37
2040.00,94.36
2039.00,94.32
2038.00,94.26
2037.00,94.21
2036.00,94.19
2035.00,94.20
2034.00,94.21
2033.00,94.21
2032.00,94.22
2031.00,94.26
2030.00,94.30
2029.00,94.33
2028.00,94.30
2027.00,94.22
2026.00,94.12
2025.00,94.06
2024.00,94.06
2023.00,94.10
2022.00,94.15
2021.00,94.19
2020.00,94.20
2019.00,94.21
2018.00,94.24
2017.00,94.29
2016.00,94.33
2015.00,94.35
2014.00,94.35
2013.00,94.37
2012.00,94.38
2011.00,94.37
2010.00,94.33
2009.00,94.31
2008.00,94.36
2007.00,94.48
2006.00,94.61
2005.00,94.73
2004.00,94.81
2003.00,94.85
2002.00,94.87
2001.00,94.88
2000.00,94.89
1999.00,94.89
1998.00,94.89
1997.00,94.87
1996.00,94.85
1995.00,94.81
1994.00,94.78
1993.00,94.76
1992.00,94.76
1991.00,94.76
1990.00,94.77
1989.00,94.78
1988.00,94.78
1987.00,94.76
1986.00,94.71
1985.00,94.64
1984.00,94.56
1983.00,94.48
1982.00,94.39
1981.00,94.31
1980.00,94.23
1979.00,94.18
1978.00,94.18
1977.00,94.24
1976.00,94.36
1975.00,94.48
1974.00,94.56
1973.00,94.58
1972.00,94.56
1971.00,94.55
1970.00,94.60
1969.00,94.66
1968.00,94.71
1967.00,94.71
1966.00,94.72
1965.00,94.77
1964.00,94.85
1963.00,94.94
1962.00,95.01
1961.00,95.06
1960.00,95.09
1959.00,95.14
1958.00,95.20
1957.00,95.27
1956.00,95.31
1955.00,95.31
1954.00,95.31
1953.00,95.34
1952.00,95.38
1951.00,95.43
1950.00,95.49
1949.00,95.55
1948.00,95.60
1947.00,95.60
1946.00,95.57
1945.00,95.55
1944.00,95.58
1943.00,95.65
1942.00,95.73
1941.00,95.77
1940.00,95.78
1939.00,95.77
1938.00,95.77
1937.00,95.79
1936.00,95.81
1935.00,95.84
1934.00,95.86
1933.00,95.88
1932.00,95.89
1931.00,95.90
1930.00,95.93
1929.00,95.97
1928.00,96.00
1927.00,96.02
1926.00,96.01
1925.00,96.00
1924.00,96.02
1923.00,96.07
1922.00,96.12
1921.00,96.15
1920.00,96.15
1919.00,96.15
1918.00,96.15
1917.00,96.16
1916.00,96.17
1915.00,96.19
1914.00,96.21
1913.00,96.25
1912.00,96.28
1911.00,96.28
1910.00,96.28
1909.00,96.29
1908.00,96.31
1907.00,96.34
1906.00,96.35
1905.00,96.36
1904.00,96.38
1903.00,96.40
1902.00,96.41
1901.00,96.41
1900.00,96.41
1899.00,96.42
1898.00,96.43
1897.00,96.46
1896.00,96.48
1895.00,96.51
1894.00,96.53
1893.00,96.53
1892.00,96.53
1891.00,96.55
1890.00,96.58
1889.00,96.61
1888.00,96.64
1887.00,96.65
1886.00,96.65
1885.00,96.65
1884.00,96.64
1883.00,96.64
1882.00,96.64
1881.00,96.66
1880.00,96.69
1879.00,96.71
1878.00,96.72
1877.00,96.70
1876.00,96.68
1875.00,96.66
1874.00,96.67
1873.00,96.69
1872.00,96.72
1871.00,96.75
1870.00,96.75
1869.00,96.76
1868.00,96.77
1867.00,96.78
1866.00,96.80
1865.00,96.80
1864.00,96.77
1863.00,96.75
1862.00,96.75
1861.00,96.78
1860.00,96.82
1859.00,96.86
1858.00,96.88
1857.00,96.88
1856.00,96.88
1855.00,96.88
1854.00,96.90
1853.00,96.92
1852.00,96.92
1851.00,96.91
1850.00,96.91
1849.00,96.92
1848.00,96.94
1847.00,96.95
1846.00,96.97
1845.00,96.97
1844.00,96.97
1843.00,96.96
1842.00,96.95
1841.00,96.96
1840.00,96.98
1839.00,97.01
1838.00,97.04
1837.00,97.07
1836.00,97.10
1835.00,97.13
1834.00,97.14
1833.00,97.14
1832.00,97.11
1831.00,97.09
1830.00,97.08
1829.00,97.09
1828.00,97.10
1827.00,97.10
1826.00,97.09
1825.00,97.09
1824.00,97.08
1823.00,97.08
1822.00,97.07
1821.00,97.08
1820.00,97.08
1819.00,97.08
1818.00,97.08
1817.00,97.09
1816.00,97.09
1815.00,97.09
1814.00,97.08
1813.00,97.08
1812.00,97.08
1811.00,97.09
1810.00,97.09
1809.00,97.08
1808.00,97.08
1807.00,97.08
1806.00,97.09
1805.00,97.10
1804.00,97.10
1803.00,97.10
1802.00,97.09
1801.00,97.07
1800.00,97.05
1799.00,97.03
1798.00,97.02
1797.00,97.01
1796.00,97.00
1795.00,96.98
1794.00,96.95
1793.00,96.91
1792.00,96.87
1791.00,96.83
1790.00,96.79
1789.00,96.76
1788.00,96.73
1787.00,96.70
1786.00,96.67
1785.00,96.62
1784.00,96.54
1783.00,96.45
1782.00,96.36
1781.00,96.27
1780.00,96.16
1779.00,96.02
1778.00,95.87
1777.00,95.70
1776.00,95.52
1775.00,95.31
1774.00,95.06
1773.00,94.73
1772.00,94.31
1771.00,93.87
1770.00,93.42
1769.00,92.93
1768.00,92.35
1767.00,91.69
1766.00,91.01
1765.00,90.31
1764.00,89.55
1763.00,88.71
1762.00,87.80
1761.00,86.91
1760.00,86.11
1759.00,85.40
1758.00,84.72
1757.00,84.04
1756.00,83.41
1755.00,82.86
1754.00,82.40
1753.00,81.98
1752.00,81.58
1751.00,81.18
1750.00,80.81
1749.00,80.47
1748.00,80.16
1747.00,79.88
1746.00,79.61
1745.00,79.34
1744.00,79.09
1743.00,78.87
1742.00,78.67
1741.00,78.51
1740.00,78.39
1739.00,78.31
1738.00,78.24
1737.00,78.19
1736.00,78.22
1735.00,78.37
1734.00,78.66
1733.00,78.99
1732.00,79.30
1731.00,79.63
1730.00,80.02
1729.00,80.47
1728.00,80.96
1727.00,81.47
1726.00,81.99
1725.00,82.56
1724.00,83.16
1723.00,83.75
1722.00,84.29
1721.00,84.79
1720.00,85.27
1719.00,85.82
1718.00,86.42
1717.00,86.99
1716.00,87.47
1715.00,87.89
1714.00,88.27
1713.00,88.60
1712.00,88.90
1711.00,89.19
1710.00,89.46
1709.00,89.73
1708.00,89.98
1707.00,90.24
1706.00,90.51
1705.00,90.75
1704.00,90.94
1703.00,91.11
1702.00,91.30
1701.00,91.58
1700.00,91.89
1699.00,92.12
1698.00,92.24
1697.00,92.36
1696.00,92.52
1695.00,92.71
1694.00,92.86
1693.00,92.96
1692.00,93.06
1691.00,93.17
1690.00,93.27
1689.00,93.37
1688.00,93.46
1687.00,93.53
1686.00,93.60
1685.00,93.67
1684.00,93.76
1683.00,93.86
1682.00,93.95
1681.00,94.01
1680.00,94.08
1679.00,94.14
1678.00,94.20
1677.00,94.24
1676.00,94.29
1675.00,94.35
1674.00,94.39
1673.00,94.42
1672.00,94.44
1671.00,94.48
1670.00,94.53
1669.00,94.56
1668.00,94.59
1667.00,94.61
1666.00,94.63
1665.00,94.66
1664.00,94.68
1663.00,94.69
1662.00,94.70
1661.00,94.69
1660.00,94.70
1659.00,94.72
1658.00,94.75
1657.00,94.78
1656.00,94.79
1655.00,94.80
1654.00,94.79
1653.00,94.77
1652.00,94.75
1651.00,94.74
1650.00,94.74
1649.00,94.76
1648.00,94.79
1647.00,94.81
1646.00,94.83
1645.00,94.84
1644.00,94.85
1643.00,94.85
1642.00,94.86
1641.00,94.87
1640.00,94.89
1639.00,94.91
1638.00,94.93
1637.00,94.94
1636.00,94.95
1635.00,94.96
1634.00,94.98
1633.00,95.00
1632.00,95.02
1631.00,95.05
1630.00,95.08
1629.00,95.10
1628.00,95.13
1627.00,95.16
1626.00,95.18
1625.00,95.20
1624.00,95.23
1623.00,95.26
1622.00,95.29
1621.00,95.31
1620.00,95.34
1619.00,95.38
1618.00,95.43
1617.00,95.48
1616.00,95.52
1615.00,95.54
1614.00,95.55
1613.00,95.57
1612.00,95.61
1611.00,95.66
1610.00,95.70
1609.00,95.73
1608.00,95.75
1607.00,95.75
1606.00,95.76
1605.00,95.78
1604.00,95.80
1603.00,95.84
1602.00,95.87
1601.00,95.90
1600.00,95.93
1599.00,95.94
1598.00,95.96
1597.00,95.97
1596.00,95.99
1595.00,96.01
1594.00,96.03
1593.00,96.05
1592.00,96.06
1591.00,96.07
1590.00,96.08
1589.00,96.10
1588.00,96.13
1587.00,96.16
1586.00,96.18
1585.00,96.19
1584.00,96.19
1583.00,96.18
1582.00,96.18
1581.00,96.20
1580.00,96.21
1579.00,96.23
1578.00,96.25
1577.00,96.26
1576.00,96.27
1575.00,96.28
1574.00,96.30
1573.00,96.31
1572.00,96.33
1571.00,96.35
1570.00,96.36
1569.00,96.37
1568.00,96.37
1567.00,96.38
1566.00,96.39
1565.00,96.40
1564.00,96.41
1563.00,96.41
1562.00,96.39
1561.00,96.39
1560.00,96.38
1559.00,96.39
1558.00,96.42
1557.00,96.44
1556.00,96.44
1555.00,96.43
1554.00,96.43
1553.00,96.43
1552.00,96.43
1551.00,96.42
1550.00,96.42
1549.00,96.42
1548.00,96.42
1547.00,96.42
1546.00,96.42
1545.00,96.42
1544.00,96.42
1543.00,96.42
1542.00,96.42
1541.00,96.42
1540.00,96.43
1539.00,96.45
1538.00,96.47
1537.00,96.47
1536.00,96.48
1535.00,96.49
1534.00,96.50
1533.00,96.50
1532.00,96.50
1531.00,96.51
1530.00,96.52
1529.00,96.54
1528.00,96.55
1527.00,96.57
1526.00,96.58
1525.00,96.59
1524.00,96.60
1523.00,96.62
1522.00,96.64
1521.00,96.65
1520.00,96.64
1519.00,96.63
1518.00,96.62
1517.00,96.62
1516.00,96.63
1515.00,96.63
1514.00,96.64
1513.00,96.65
1512.00,96.66
1511.00,96.67
1510.00,96.68
1509.00,96.70
1508.00,96.70
1507.00,96.70
1506.00,96.71
1505.00,96.72
1504.00,96.73
1503.00,96.73
1502.00,96.72
1501.00,96.71
1500.00,96.71
1499.00,96.71
1498.00,96.73
1497.00,96.75
1496.00,96.75
1495.00,96.75
1494.00,96.74
1493.00,96.74
1492.00,96.73
1491.00,96.73
1490.00,96.72
1489.00,96.71
1488.00,96.70
1487.00,96.69
1486.00,96.69
1485.00,96.68
1484.00,96.67
1483.00,96.66
1482.00,96.65
1481.00,96.64
1480.00,96.62
1479.00,96.60
1478.00,96.57
1477.00,96.54
1476.00,96.50
1475.00,96.47
1474.00,96.42
1473.00,96.37
1472.00,96.29
1471.00,96.21
1470.00,96.13
1469.00,96.06
1468.00,96.00
1467.00,95.95
1466.00,95.88
1465.00,95.80
1464.00,95.70
1463.00,95.62
1462.00,95.56
1461.00,95.50
1460.00,95.44
1459.00,95.38
1458.00,95.31
1457.00,95.25
1456.00,95.20
1455.00,95.16
1454.00,95.13
1453.00,95.11
1452.00,95.08
1451.00,95.05
1450.00,95.00
1449.00,94.93
1448.00,94.86
1447.00,94.79
1446.00,94.71
1445.00,94.62
1444.00,94.53
1443.00,94.45
1442.00,94.37
1441.00,94.28
1440.00,94.19
1439.00,94.10
1438.00,94.02
1437.00,93.95
1436.00,93.87
1435.00,93.82
1434.00,93.78
1433.00,93.75
1432.00,93.73
1431.00,93.73
1430.00,93.76
1429.00,93.79
1428.00,93.84
1427.00,93.89
1426.00,93.95
1425.00,94.03
1424.00,94.11
1423.00,94.20
1422.00,94.28
1421.00,94.37
1420.00,94.46
1419.00,94.55
1418.00,94.63
1417.00,94.70
1416.00,94.78
1415.00,94.87
1414.00,94.96
1413.00,95.04
1412.00,95.10
1411.00,95.16
1410.00,95.22
1409.00,95.26
1408.00,95.31
1407.00,95.35
1406.00,95.39
1405.00,95.42
1404.00,95.45
1403.00,95.46
1402.00,95.47
1401.00,95.47
1400.00,95.45
1399.00,95.42
1398.00,95.35
1397.00,95.26
1396.00,95.15
1395.00,94.99
1394.00,94.80
1393.00,94.58
1392.00,94.35
1391.00,94.08
1390.00,93.80
1389.00,93.46
1388.00,93.07
1387.00,92.64
1386.00,92.22
1385.00,91.81
1384.00,91.42
1383.00,91.02
1382.00,90.62
1381.00,90.24
1380.00,89.88
1379.00,89.53
1378.00,89.19
1377.00,88.87
1376.00,88.53
1375.00,88.17
1374.00,87.79
1373.00,87.41
1372.00,87.05
1371.00,86.70
1370.00,86.38
1369.00,86.08
1368.00,85.84
1367.00,85.69
1366.00,85.63
1365.00,85.67
1364.00,85.86
1363.00,86.21
1362.00,86.73
1361.00,87.36
1360.00,88.06
1359.00,88.80
1358.00,89.57
1357.00,90.32
1356.00,91.04
1355.00,91.71
1354.00,92.30
1353.00,92.81
1352.00,93.24
1351.00,93.60
1350.00,93.90
1349.00,94.16
1348.00,94.37
1347.00,94.54
1346.00,94.68
1345.00,94.80
1344.00,94.89
1343.00,94.96
1342.00,95.03
1341.00,95.09
1340.00,95.14
1339.00,95.19
1338.00,95.24
1337.00,95.28
1336.00,95.32
1335.00,95.34
1334.00,95.35
1333.00,95.34
1332.00,95.33
1331.00,95.31
1330.00,95.28
1329.00,95.26
1328.00,95.22
1327.00,95.20
1326.00,95.18
1325.00,95.17
1324.00,95.16
1323.00,95.16
1322.00,95.16
1321.00,95.17
1320.00,95.18
1319.00,95.21
1318.00,95.24
1317.00,95.29
1316.00,95.34
1315.00,95.38
1314.00,95.44
1313.00,95.50
1312.00,95.56
1311.00,95.63
1310.00,95.70
1309.00,95.76
1308.00,95.81
1307.00,95.86
1306.00,95.90
1305.00,95.92
1304.00,95.92
1303.00,95.90
1302.00,95.88
1301.00,95.86
1300.00,95.84
1299.00,95.81
1298.00,95.77
1297.00,95.73
1296.00,95.68
1295.00,95.63
1294.00,95.57
1293.00,95.50
1292.00,95.43
1291.00,95.36
1290.00,95.30
1289.00,95.24
1288.00,95.18
1287.00,95.10
1286.00,95.02
1285.00,94.93
1284.00,94.82
1283.00,94.71
1282.00,94.57
1281.00,94.43
1280.00,94.26
1279.00,94.08
1278.00,93.90
1277.00,93.69
1276.00,93.48
1275.00,93.25
1274.00,93.01
1273.00,92.75
1272.00,92.49
1271.00,92.22
1270.00,91.95
1269.00,91.65
1268.00,91.33
1267.00,90.99
1266.00,90.64
1265.00,90.27
1264.00,89.89
1263.00,89.50
1262.00,89.11
1261.00,88.70
1260.00,88.28
1259.00,87.86
1258.00,87.43
1257.00,86.99
1256.00,86.52
1255.00,86.05
1254.00,85.56
1253.00,85.06
1252.00,84.56
1251.00,84.05
1250.00,83.54
1249.00,83.02
1248.00,82.47
1247.00,81.92
1246.00,81.36
1245.00,80.80
1244.00,80.23
1243.00,79.67
1242.00,79.10
1241.00,78.53
1240.00,77.96
1239.00,77.40
1238.00,76.88
1237.00,76.37
1236.00,75.87
1235.00,75.38
1234.00,74.92
1233.00,74.49
1232.00,74.10
1231.00,73.77
1230.00,73.48
1229.00,73.21
1228.00,72.96
1227.00,72.75
1226.00,72.58
1225.00,72.42
1224.00,72.26
1223.00,72.09
1222.00,71.93
1221.00,71.74
1220.00,71.54
1219.00,71.34
1218.00,71.14
1217.00,70.95
1216.00,70.76
1215.00,70.59
1214.00,70.47
1213.00,70.41
1212.00,70.43
1211.00,70.55
1210.00,70.75
1209.00,71.03
1208.00,71.41
1207.00,71.90
1206.00,72.52
1205.00,73.24
1204.00,74.04
1203.00,74.90
1202.00,75.81
1201.00,76.74
1200.00,77.68
1199.00,78.61
1198.00,79.53
1197.00,80.41
1196.00,81.23
1195.00,82.01
1194.00,82.74
1193.00,83.40
1192.00,84.01
1191.00,84.56
1190.00,85.05
1189.00,85.49
1188.00,85.88
1187.00,86.21
1186.00,86.49
1185.00,86.70
1184.00,86.85
1183.00,86.98
1182.00,87.06
1181.00,87.11
1180.00,87.12
1179.00,87.10
1178.00,87.07
1177.00,87.00
1176.00,86.92
1175.00,86.83
1174.00,86.77
1173.00,86.70
1172.00,86.63
1171.00,86.54
1170.00,86.43
1169.00,86.33
1168.00,86.24
1167.00,86.18
1166.00,86.13
1165.00,86.08
1164.00,86.03
1163.00,86.00
1162.00,86.00
1161.00,86.02
1160.00,86.05
1159.00,86.11
1158.00,86.20
1157.00,86.31
1156.00,86.43
1155.00,86.58
1154.00,86.74
1153.00,86.89
1152.00,87.06
1151.00,87.24
1150.00,87.45
1149.00,87.67
1148.00,87.87
1147.00,88.06
1146.00,88.22
1145.00,88.35
1144.00,88.44
1143.00,88.50
1142.00,88.54
1141.00,88.56
1140.00,88.56
1139.00,88.56
1138.00,88.53
1137.00,88.47
1136.00,88.38
1135.00,88.27
1134.00,88.14
1133.00,88.00
1132.00,87.85
1131.00,87.72
1130.00,87.59
1129.00,87.47
1128.00,87.36
1127.00,87.29
1126.00,87.25
1125.00,87.23
1124.00,87.21
1123.00,87.19
1122.00,87.19
1121.00,87.22
1120.00,87.26
1119.00,87.32
1118.00,87.38
1117.00,87.43
1116.00,87.49
1115.00,87.56
1114.00,87.63
1113.00,87.70
1112.00,87.75
1111.00,87.80
1110.00,87.88
1109.00,87.96
1108.00,88.03
1107.00,88.08
1106.00,88.12
1105.00,88.12
1104.00,88.09
1103.00,88.03
1102.00,87.95
1101.00,87.85
1100.00,87.69
1099.00,87.48
1098.00,87.22
1097.00,86.95
1096.00,86.68
1095.00,86.39
1094.00,86.06
1093.00,85.69
1092.00,85.30
1091.00,84.94
1090.00,84.61
1089.00,84.30
1088.00,84.00
1087.00,83.71
1086.00,83.41
1085.00,83.11
1084.00,82.81
1083.00,82.51
1082.00,82.23
1081.00,81.94
1080.00,81.65
1079.00,81.34
1078.00,81.03
1077.00,80.68
1076.00,80.31
1075.00,79.94
1074.00,79.59
1073.00,79.24
1072.00,78.90
1071.00,78.58
1070.00,78.28
1069.00,78.01
1068.00,77.74
1067.00,77.50
1066.00,77.27
1065.00,77.05
1064.00,76.81
1063.00,76.53
1062.00,76.23
1061.00,75.88
1060.00,75.49
1059.00,75.09
1058.00,74.69
1057.00,74.28
1056.00,73.85
1055.00,73.40
1054.00,72.93
1053.00,72.47
1052.00,72.03
1051.00,71.63
1050.00,71.28
1049.00,70.94
1048.00,70.61
1047.00,70.29
1046.00,69.98
1045.00,69.68
1044.00,69.38
1043.00,69.11
1042.00,68.86
1041.00,68.62
1040.00,68.37
1039.00,68.13
1038.00,67.91
1037.00,67.71
1036.00,67.52
1035.00,67.35
1034.00,67.23
1033.00,67.15
1032.00,67.13
1031.00,67.18
1030.00,67.30
1029.00,67.47
1028.00,67.70
1027.00,68.02
1026.00,68.40
1025.00,68.80
1024.00,69.19
1023.00,69.60
1022.00,70.02
1021.00,70.47
1020.00,70.95
1019.00,71.45
1018.00,71.96
1017.00,72.45
1016.00,72.93
1015.00,73.41
1014.00,73.89
1013.00,74.34
1012.00,74.78
1011.00,75.22
1010.00,75.65
1009.00,76.07
1008.00,76.47
1007.00,76.87
1006.00,77.26
1005.00,77.64
1004.00,78.01
1003.00,78.36
1002.00,78.71
1001.00,79.02
1000.00,79.30
999.00,79.54
998.00,79.76
997.00,79.96
996.00,80.13
995.00,80.29
994.00,80.42
993.00,80.54
992.00,80.64
991.00,80.74
990.00,80.85
989.00,80.98
988.00,81.11
987.00,81.25
986.00,81.38
985.00,81.52
984.00,81.66
983.00,81.82
982.00,82.01
981.00,82.21
980.00,82.42
979.00,82.63
978.00,82.85
977.00,83.06
976.00,83.29
975.00,83.53
974.00,83.77
973.00,84.01
972.00,84.25
971.00,84.50
970.00,84.77
969.00,85.03
968.00,85.27
967.00,85.49
966.00,85.70
965.00,85.87
964.00,86.02
963.00,86.14
962.00,86.23
961.00,86.29
960.00,86.32
959.00,86.33
958.00,86.34
957.00,86.34
956.00,86.35
955.00,86.37
954.00,86.41
953.00,86.46
952.00,86.50
951.00,86.56
950.00,86.64
949.00,86.74
948.00,86.84
947.00,86.94
946.00,87.04
945.00,87.16
944.00,87.29
943.00,87.42
942.00,87.54
941.00,87.65
940.00,87.76
939.00,87.85
938.00,87.92
937.00,87.98
936.00,88.02
935.00,88.06
934.00,88.09
933.00,88.09
932.00,88.07
931.00,88.03
930.00,87.99
929.00,87.97
928.00,87.97
927.00,87.95
926.00,87.91
925.00,87.84
924.00,87.75
923.00,87.67
922.00,87.58
921.00,87.49
920.00,87.40
919.00,87.33
918.00,87.28
917.00,87.22
916.00,87.15
915.00,87.06
914.00,86.96
913.00,86.86
912.00,86.75
911.00,86.61
910.00,86.43
909.00,86.20
908.00,85.95
907.00,85.70
906.00,85.49
905.00,85.30
904.00,85.11
903.00,84.91
902.00,84.73
901.00,84.60
900.00,84.51
899.00,84.47
898.00,84.49
897.00,84.55
896.00,84.70
895.00,84.92
894.00,85.20
893.00,85.50
892.00,85.81
891.00,86.11
890.00,86.39
889.00,86.62
888.00,86.82
887.00,86.98
886.00,87.13
885.00,87.24
884.00,87.33
883.00,87.39
882.00,87.42
881.00,87.42
880.00,87.40
879.00,87.38
878.00,87.37
877.00,87.38
876.00,87.43
875.00,87.50
874.00,87.59
873.00,87.71
872.00,87.83
871.00,87.97
870.00,88.13
869.00,88.32
868.00,88.52
867.00,88.74
866.00,88.95
865.00,89.12
864.00,89.27
863.00,89.42
862.00,89.60
861.00,89.78
860.00,89.94
859.00,90.07
858.00,90.16
857.00,90.23
856.00,90.28
855.00,90.33
854.00,90.39
853.00,90.44
852.00,90.49
851.00,90.53
850.00,90.56
849.00,90.58
848.00,90.58
847.00,90.57
846.00,90.55
845.00,90.52
844.00,90.48
843.00,90.45
842.00,90.43
841.00,90.41
840.00,90.39
839.00,90.35
838.00,90.33
837.00,90.34
836.00,90.39
835.00,90.46
834.00,90.52
833.00,90.58
832.00,90.63
831.00,90.69
830.00,90.77
829.00,90.88
828.00,91.01
827.00,91.14
826.00,91.25
825.00,91.36
824.00,91.45
823.00,91.55
822.00,91.65
821.00,91.71
820.00,91.76
819.00,91.79
818.00,91.84
817.00,91.91
816.00,91.97
815.00,92.02
814.00,92.07
813.00,92.11
812.00,92.16
811.00,92.21
810.00,92.27
809.00,92.31
808.00,92.35
807.00,92.38
806.00,92.42
805.00,92.46
804.00,92.50
803.00,92.52
802.00,92.53
801.00,92.55
800.00,92.59
799.00,92.63
798.00,92.66
797.00,92.66
796.00,92.68
795.00,92.70
794.00,92.74
793.00,92.77
792.00,92.79
791.00,92.83
790.00,92.87
789.00,92.90
788.00,92.94
787.00,92.97
786.00,92.98
785.00,92.97
784.00,92.97
783.00,92.98
782.00,93.00
781.00,93.04
780.00,93.09
779.00,93.15
778.00,93.20
777.00,93.21
776.00,93.21
775.00,93.19
774.00,93.18
773.00,93.18
772.00,93.20
771.00,93.23
770.00,93.26
769.00,93.27
768.00,93.28
767.00,93.31
766.00,93.35
765.00,93.39
764.00,93.40
763.00,93.39
762.00,93.37
761.00,93.36
760.00,93.35
759.00,93.35
758.00,93.36
757.00,93.37
756.00,93.39
755.00,93.41
754.00,93.42
753.00,93.41
752.00,93.38
751.00,93.37
750.00,93.39
749.00,93.44
748.00,93.49
747.00,93.53
746.00,93.55
745.00,93.56
744.00,93.57
743.00,93.61
742.00,93.64
741.00,93.65
740.00,93.63
739.00,93.62
738.00,93.63
737.00,93.66
736.00,93.68
735.00,93.67
734.00,93.63
733.00,93.56
732.00,93.47
731.00,93.37
730.00,93.29
729.00,93.22
728.00,93.17
727.00,93.14
726.00,93.13
725.00,93.12
724.00,93.08
723.00,93.00
722.00,92.90
721.00,92.83
720.00,92.79
719.00,92.78
718.00,92.79
717.00,92.80
716.00,92.79
715.00,92.77
714.00,92.74
713.00,92.73
712.00,92.75
711.00,92.77
710.00,92.77
709.00,92.75
708.00,92.72
707.00,92.69
706.00,92.66
705.00,92.61
704.00,92.54
703.00,92.47
702.00,92.43
701.00,92.41
700.00,92.40
699.00,92.39
698.00,92.37
697.00,92.34
696.00,92.30
695.00,92.29
694.00,92.28
693.00,92.29
692.00,92.30
691.00,92.32
690.00,92.35
689.00,92.38
688.00,92.42
687.00,92.44
686.00,92.45
685.00,92.42
684.00,92.37
683.00,92.35
682.00,92.38
681.00,92.45
680.00,92.51
679.00,92.55
678.00,92.57
677.00,92.57
676.00,92.58
675.00,92.60
674.00,92.61
673.00,92.63
672.00,92.67
671.00,92.71
670.00,92.74
669.00,92.73
668.00,92.67
667.00,92.61
666.00,92.58
665.00,92.59
664.00,92.58
663.00,92.54
662.00,92.54
661.00,92.56
660.00,92.53
659.00,92.40
658.00,92.21
657.00,92.01
656.00,91.87
655.00,91.82
654.00,91.84
653.00,91.86
652.00,91.80
651.00,91.61
650.00,91.37
649.00,91.14
648.00,91.00
647.00,90.96
646.00,90.99
645.00,91.00
644.00,90.97
643.00,90.94
642.00,90.93
641.00,90.91
640.00,90.85
639.00,90.74
638.00,90.65
637.00,90.62
636.00,90.64
635.00,90.69
634.00,90.74
633.00,90.73
632.00,90.66
631.00,90.59
630.00,90.55
629.00,90.53
628.00,90.48
627.00,90.33
626.00,90.13
625.00,89.94
624.00,89.86
623.00,89.92
622.00,90.05
621.00,90.10
620.00,89.98
619.00,89.76
618.00,89.54
617.00,89.32
616.00,89.00
615.00,88.61
614.00,88.22
613.00,87.89
612.00,87.65
611.00,87.51
610.00,87.36
609.00,87.01
608.00,86.44
607.00,85.82
606.00,85.30
605.00,84.88
604.00,84.64
603.00,84.81
602.00,85.39
601.00,85.89
600.00,85.82
599.00,85.20
598.00,84.61
597.00,84.41
596.00,84.53
595.00,84.75
594.00,85.07
593.00,85.58
592.00,86.18
591.00,86.55
590.00,86.52
589.00,86.22
588.00,85.97
587.00,86.05
586.00,86.56
585.00,87.28
584.00,87.92
583.00,88.28
582.00,88.45
581.00,88.67
580.00,89.01
579.00,89.22
578.00,89.09
577.00,88.75
576.00,88.62
575.00,89.05
574.00,89.92
573.00,90.79
572.00,91.48
571.00,92.08
570.00,92.74
569.00,93.36
568.00,93.58
567.00,93.09
566.00,92.04
565.00,90.89
564.00,90.11
563.00,89.86
562.00,89.98
561.00,90.02
560.00,89.63
559.00,88.93
558.00,88.36
557.00,88.20
556.00,88.25
555.00,88.22
554.00,87.99
553.00,87.76
552.00,87.71
551.00,87.94
550.00,88.38
