Created as New Dataset,1 Canadian Celanese Co.
cm-1,%T
4000.00,101.04
3999.00,101.04
3998.00,101.03
3997.00,101.03
3996.00,101.03
3995.00,101.03
3994.00,101.03
3993.00,101.03
3992.00,101.03
3991.00,101.04
3990.00,101.05
3989.00,101.06
3988.00,101.05
3987.00,101.03
3986.00,101.00
3985.00,100.98
3984.00,100.96
3983.00,100.96
3982.00,100.96
3981.00,100.96
3980.00,100.97
3979.00,100.98
3978.00,100.98
3977.00,100.98
3976.00,100.98
3975.00,100.98
3974.00,100.99
3973.00,101.00
3972.00,101.00
3971.00,101.00
3970.00,101.00
3969.00,100.99
3968.00,100.99
3967.00,100.99
3966.00,101.00
3965.00,100.99
3964.00,100.99
3963.00,101.00
3962.00,101.01
3961.00,101.02
3960.00,101.03
3959.00,101.04
3958.00,101.05
3957.00,101.06
3956.00,101.07
3955.00,101.07
3954.00,101.07
3953.00,101.06
3952.00,101.06
3951.00,101.07
3950.00,101.07
3949.00,101.08
3948.00,101.09
3947.00,101.09
3946.00,101.09
3945.00,101.08
3944.00,101.07
3943.00,101.06
3942.00,101.06
3941.00,101.05
3940.00,101.04
3939.00,101.03
3938.00,101.02
3937.00,101.01
3936.00,101.00
3935.00,101.00
3934.00,101.00
3933.00,101.00
3932.00,101.01
3931.00,101.02
3930.00,101.04
3929.00,101.06
3928.00,101.07
3927.00,101.08
3926.00,101.08
3925.00,101.07
3924.00,101.05
3923.00,101.05
3922.00,101.04
3921.00,101.03
3920.00,101.03
3919.00,101.02
3918.00,101.01
3917.00,101.01
3916.00,101.01
3915.00,101.01
3914.00,101.01
3913.00,101.00
3912.00,101.00
3911.00,101.00
3910.00,101.00
3909.00,101.00
3908.00,101.00
3907.00,100.99
3906.00,100.97
3905.00,100.97
3904.00,100.98
3903.00,100.98
3902.00,100.96
3901.00,100.94
3900.00,100.93
3899.00,100.94
3898.00,100.97
3897.00,100.99
3896.00,101.00
3895.00,101.01
3894.00,101.03
3893.00,101.05
3892.00,101.06
3891.00,101.05
3890.00,101.04
3889.00,101.04
3888.00,101.02
3887.00,101.01
3886.00,101.01
3885.00,101.02
3884.00,101.04
3883.00,101.04
3882.00,101.01
3881.00,100.97
3880.00,100.95
3879.00,100.94
3878.00,100.94
3877.00,100.93
3876.00,100.92
3875.00,100.92
3874.00,100.93
3873.00,100.96
3872.00,100.98
3871.00,101.00
3870.00,101.01
3869.00,101.04
3868.00,101.05
3867.00,101.03
3866.00,101.01
3865.00,100.99
3864.00,101.00
3863.00,101.00
3862.00,100.98
3861.00,100.95
3860.00,100.93
3859.00,100.92
3858.00,100.94
3857.00,100.96
3856.00,100.99
3855.00,101.00
3854.00,101.01
3853.00,101.01
3852.00,101.01
3851.00,100.98
3850.00,100.93
3849.00,100.91
3848.00,100.92
3847.00,100.96
3846.00,101.00
3845.00,101.03
3844.00,101.04
3843.00,101.05
3842.00,101.05
3841.00,101.04
3840.00,101.02
3839.00,101.01
3838.00,100.99
3837.00,100.98
3836.00,100.95
3835.00,100.93
3834.00,100.92
3833.00,100.92
3832.00,100.92
3831.00,100.92
3830.00,100.92
3829.00,100.93
3828.00,100.94
3827.00,100.96
3826.00,101.00
3825.00,101.03
3824.00,101.03
3823.00,100.99
3822.00,100.94
3821.00,100.92
3820.00,100.95
3819.00,100.98
3818.00,100.98
3817.00,100.95
3816.00,100.93
3815.00,100.91
3814.00,100.89
3813.00,100.86
3812.00,100.85
3811.00,100.87
3810.00,100.90
3809.00,100.91
3808.00,100.90
3807.00,100.89
3806.00,100.89
3805.00,100.90
3804.00,100.90
3803.00,100.88
3802.00,100.87
3801.00,100.87
3800.00,100.88
3799.00,100.88
3798.00,100.88
3797.00,100.89
3796.00,100.92
3795.00,100.95
3794.00,100.95
3793.00,100.93
3792.00,100.90
3791.00,100.89
3790.00,100.87
3789.00,100.86
3788.00,100.85
3787.00,100.84
3786.00,100.84
3785.00,100.86
3784.00,100.87
3783.00,100.89
3782.00,100.88
3781.00,100.86
3780.00,100.84
3779.00,100.83
3778.00,100.83
3777.00,100.83
3776.00,100.82
3775.00,100.82
3774.00,100.82
3773.00,100.83
3772.00,100.83
3771.00,100.83
3770.00,100.84
3769.00,100.84
3768.00,100.84
3767.00,100.82
3766.00,100.80
3765.00,100.79
3764.00,100.78
3763.00,100.78
3762.00,100.77
3761.00,100.76
3760.00,100.77
3759.00,100.77
3758.00,100.77
3757.00,100.77
3756.00,100.76
3755.00,100.76
3754.00,100.76
3753.00,100.77
3752.00,100.78
3751.00,100.78
3750.00,100.78
3749.00,100.78
3748.00,100.75
3747.00,100.70
3746.00,100.65
3745.00,100.61
3744.00,100.62
3743.00,100.65
3742.00,100.68
3741.00,100.69
3740.00,100.73
3739.00,100.79
3738.00,100.83
3737.00,100.82
3736.00,100.77
3735.00,100.74
3734.00,100.72
3733.00,100.71
3732.00,100.70
3731.00,100.70
3730.00,100.69
3729.00,100.68
3728.00,100.67
3727.00,100.68
3726.00,100.70
3725.00,100.72
3724.00,100.74
3723.00,100.74
3722.00,100.74
3721.00,100.74
3720.00,100.73
3719.00,100.72
3718.00,100.72
3717.00,100.72
3716.00,100.73
3715.00,100.72
3714.00,100.70
3713.00,100.68
3712.00,100.67
3711.00,100.68
3710.00,100.70
3709.00,100.71
3708.00,100.70
3707.00,100.68
3706.00,100.65
3705.00,100.62
3704.00,100.59
3703.00,100.56
3702.00,100.53
3701.00,100.51
3700.00,100.51
3699.00,100.51
3698.00,100.52
3697.00,100.55
3696.00,100.58
3695.00,100.61
3694.00,100.63
3693.00,100.64
3692.00,100.65
3691.00,100.64
3690.00,100.61
3689.00,100.58
3688.00,100.57
3687.00,100.56
3686.00,100.55
3685.00,100.54
3684.00,100.54
3683.00,100.54
3682.00,100.54
3681.00,100.53
3680.00,100.53
3679.00,100.54
3678.00,100.53
3677.00,100.50
3676.00,100.45
3675.00,100.44
3674.00,100.45
3673.00,100.44
3672.00,100.42
3671.00,100.40
3670.00,100.39
3669.00,100.39
3668.00,100.38
3667.00,100.34
3666.00,100.30
3665.00,100.27
3664.00,100.27
3663.00,100.28
3662.00,100.29
3661.00,100.29
3660.00,100.28
3659.00,100.25
3658.00,100.22
3657.00,100.18
3656.00,100.16
3655.00,100.17
3654.00,100.18
3653.00,100.20
3652.00,100.21
3651.00,100.20
3650.00,100.17
3649.00,100.12
3648.00,100.10
3647.00,100.10
3646.00,100.09
3645.00,100.08
3644.00,100.05
3643.00,100.03
3642.00,100.01
3641.00,100.00
3640.00,99.99
3639.00,99.99
3638.00,99.99
3637.00,100.00
3636.00,100.00
3635.00,99.99
3634.00,99.97
3633.00,99.94
3632.00,99.92
3631.00,99.90
3630.00,99.87
3629.00,99.85
3628.00,99.85
3627.00,99.85
3626.00,99.83
3625.00,99.80
3624.00,99.80
3623.00,99.80
3622.00,99.82
3621.00,99.83
3620.00,99.85
3619.00,99.87
3618.00,99.88
3617.00,99.87
3616.00,99.85
3615.00,99.82
3614.00,99.81
3613.00,99.79
3612.00,99.76
3611.00,99.73
3610.00,99.69
3609.00,99.67
3608.00,99.66
3607.00,99.64
3606.00,99.62
3605.00,99.61
3604.00,99.60
3603.00,99.60
3602.00,99.61
3601.00,99.63
3600.00,99.64
3599.00,99.64
3598.00,99.63
3597.00,99.61
3596.00,99.59
3595.00,99.59
3594.00,99.60
3593.00,99.61
3592.00,99.62
3591.00,99.60
3590.00,99.57
3589.00,99.52
3588.00,99.48
3587.00,99.47
3586.00,99.46
3585.00,99.46
3584.00,99.45
3583.00,99.44
3582.00,99.44
3581.00,99.43
3580.00,99.42
3579.00,99.41
3578.00,99.40
3577.00,99.39
3576.00,99.39
3575.00,99.37
3574.00,99.35
3573.00,99.33
3572.00,99.31
3571.00,99.30
3570.00,99.31
3569.00,99.31
3568.00,99.32
3567.00,99.32
3566.00,99.33
3565.00,99.33
3564.00,99.29
3563.00,99.24
3562.00,99.19
3561.00,99.17
3560.00,99.17
3559.00,99.17
3558.00,99.18
3557.00,99.17
3556.00,99.15
3555.00,99.12
3554.00,99.09
3553.00,99.05
3552.00,99.02
3551.00,99.01
3550.00,99.01
3549.00,99.00
3548.00,98.99
3547.00,98.96
3546.00,98.94
3545.00,98.93
3544.00,98.93
3543.00,98.92
3542.00,98.91
3541.00,98.90
3540.00,98.90
3539.00,98.92
3538.00,98.94
3537.00,98.95
3536.00,98.94
3535.00,98.92
3534.00,98.89
3533.00,98.87
3532.00,98.84
3531.00,98.82
3530.00,98.79
3529.00,98.77
3528.00,98.77
3527.00,98.77
3526.00,98.78
3525.00,98.77
3524.00,98.77
3523.00,98.76
3522.00,98.76
3521.00,98.74
3520.00,98.72
3519.00,98.70
3518.00,98.70
3517.00,98.69
3516.00,98.67
3515.00,98.64
3514.00,98.60
3513.00,98.57
3512.00,98.54
3511.00,98.53
3510.00,98.53
3509.00,98.53
3508.00,98.52
3507.00,98.52
3506.00,98.51
3505.00,98.51
3504.00,98.51
3503.00,98.52
3502.00,98.52
3501.00,98.51
3500.00,98.50
3499.00,98.50
3498.00,98.51
3497.00,98.53
3496.00,98.55
3495.00,98.55
3494.00,98.53
3493.00,98.51
3492.00,98.48
3491.00,98.44
3490.00,98.41
3489.00,98.39
3488.00,98.38
3487.00,98.39
3486.00,98.40
3485.00,98.40
3484.00,98.41
3483.00,98.42
3482.00,98.42
3481.00,98.43
3480.00,98.43
3479.00,98.43
3478.00,98.42
3477.00,98.41
3476.00,98.41
3475.00,98.40
3474.00,98.39
3473.00,98.38
3472.00,98.38
3471.00,98.40
3470.00,98.43
3469.00,98.44
3468.00,98.45
3467.00,98.45
3466.00,98.44
3465.00,98.44
3464.00,98.42
3463.00,98.40
3462.00,98.40
3461.00,98.40
3460.00,98.42
3459.00,98.44
3458.00,98.43
3457.00,98.40
3456.00,98.37
3455.00,98.36
3454.00,98.36
3453.00,98.37
3452.00,98.38
3451.00,98.40
3450.00,98.41
3449.00,98.43
3448.00,98.44
3447.00,98.44
3446.00,98.43
3445.00,98.42
3444.00,98.41
3443.00,98.40
3442.00,98.40
3441.00,98.40
3440.00,98.42
3439.00,98.44
3438.00,98.45
3437.00,98.45
3436.00,98.46
3435.00,98.48
3434.00,98.51
3433.00,98.54
3432.00,98.56
3431.00,98.56
3430.00,98.55
3429.00,98.55
3428.00,98.54
3427.00,98.54
3426.00,98.55
3425.00,98.55
3424.00,98.54
3423.00,98.53
3422.00,98.52
3421.00,98.53
3420.00,98.57
3419.00,98.60
3418.00,98.62
3417.00,98.63
3416.00,98.63
3415.00,98.63
3414.00,98.62
3413.00,98.62
3412.00,98.62
3411.00,98.63
3410.00,98.63
3409.00,98.63
3408.00,98.63
3407.00,98.63
3406.00,98.64
3405.00,98.65
3404.00,98.66
3403.00,98.67
3402.00,98.68
3401.00,98.69
3400.00,98.68
3399.00,98.67
3398.00,98.66
3397.00,98.66
3396.00,98.67
3395.00,98.69
3394.00,98.71
3393.00,98.72
3392.00,98.72
3391.00,98.73
3390.00,98.73
3389.00,98.74
3388.00,98.75
3387.00,98.76
3386.00,98.76
3385.00,98.76
3384.00,98.76
3383.00,98.76
3382.00,98.75
3381.00,98.75
3380.00,98.76
3379.00,98.77
3378.00,98.78
3377.00,98.79
3376.00,98.80
3375.00,98.81
3374.00,98.81
3373.00,98.81
3372.00,98.80
3371.00,98.80
3370.00,98.80
3369.00,98.81
3368.00,98.82
3367.00,98.84
3366.00,98.84
3365.00,98.84
3364.00,98.83
3363.00,98.81
3362.00,98.78
3361.00,98.77
3360.00,98.78
3359.00,98.81
3358.00,98.85
3357.00,98.87
3356.00,98.89
3355.00,98.89
3354.00,98.89
3353.00,98.89
3352.00,98.89
3351.00,98.89
3350.00,98.88
3349.00,98.88
3348.00,98.87
3347.00,98.88
3346.00,98.88
3345.00,98.88
3344.00,98.88
3343.00,98.89
3342.00,98.89
3341.00,98.90
3340.00,98.90
3339.00,98.90
3338.00,98.91
3337.00,98.93
3336.00,98.95
3335.00,98.96
3334.00,98.95
3333.00,98.93
3332.00,98.92
3331.00,98.91
3330.00,98.93
3329.00,98.95
3328.00,98.96
3327.00,98.96
3326.00,98.96
3325.00,98.96
3324.00,98.96
3323.00,98.96
3322.00,98.96
3321.00,98.96
3320.00,98.95
3319.00,98.93
3318.00,98.92
3317.00,98.92
3316.00,98.94
3315.00,98.95
3314.00,98.97
3313.00,98.98
3312.00,98.98
3311.00,98.98
3310.00,98.97
3309.00,98.97
3308.00,98.97
3307.00,98.98
3306.00,98.98
3305.00,98.97
3304.00,98.96
3303.00,98.95
3302.00,98.95
3301.00,98.95
3300.00,98.96
3299.00,98.96
3298.00,98.96
3297.00,98.96
3296.00,98.96
3295.00,98.97
3294.00,98.99
3293.00,98.99
3292.00,99.00
3291.00,99.00
3290.00,98.99
3289.00,98.99
3288.00,99.00
3287.00,99.01
3286.00,99.04
3285.00,99.05
3284.00,99.05
3283.00,99.04
3282.00,99.02
3281.00,99.01
3280.00,98.99
3279.00,98.99
3278.00,98.99
3277.00,98.99
3276.00,98.99
3275.00,98.99
3274.00,99.00
3273.00,99.01
3272.00,99.02
3271.00,99.02
3270.00,99.02
3269.00,99.03
3268.00,99.05
3267.00,99.07
3266.00,99.08
3265.00,99.08
3264.00,99.07
3263.00,99.05
3262.00,99.04
3261.00,99.03
3260.00,99.03
3259.00,99.04
3258.00,99.06
3257.00,99.06
3256.00,99.06
3255.00,99.04
3254.00,99.03
3253.00,99.03
3252.00,99.04
3251.00,99.04
3250.00,99.03
3249.00,99.01
3248.00,98.99
3247.00,98.97
3246.00,98.97
3245.00,98.99
3244.00,99.01
3243.00,99.03
3242.00,99.04
3241.00,99.05
3240.00,99.06
3239.00,99.07
3238.00,99.06
3237.00,99.04
3236.00,99.01
3235.00,99.00
3234.00,99.01
3233.00,99.04
3232.00,99.07
3231.00,99.10
3230.00,99.12
3229.00,99.12
3228.00,99.10
3227.00,99.07
3226.00,99.04
3225.00,99.03
3224.00,99.04
3223.00,99.07
3222.00,99.10
3221.00,99.13
3220.00,99.14
3219.00,99.14
3218.00,99.12
3217.00,99.08
3216.00,99.06
3215.00,99.06
3214.00,99.08
3213.00,99.08
3212.00,99.07
3211.00,99.06
3210.00,99.06
3209.00,99.08
3208.00,99.11
3207.00,99.13
3206.00,99.15
3205.00,99.15
3204.00,99.14
3203.00,99.14
3202.00,99.15
3201.00,99.16
3200.00,99.17
3199.00,99.17
3198.00,99.16
3197.00,99.15
3196.00,99.14
3195.00,99.14
3194.00,99.15
3193.00,99.17
3192.00,99.18
3191.00,99.18
3190.00,99.19
3189.00,99.20
3188.00,99.21
3187.00,99.21
3186.00,99.21
3185.00,99.21
3184.00,99.21
3183.00,99.21
3182.00,99.20
3181.00,99.20
3180.00,99.20
3179.00,99.21
3178.00,99.24
3177.00,99.27
3176.00,99.28
3175.00,99.27
3174.00,99.26
3173.00,99.26
3172.00,99.27
3171.00,99.29
3170.00,99.31
3169.00,99.32
3168.00,99.33
3167.00,99.34
3166.00,99.35
3165.00,99.35
3164.00,99.34
3163.00,99.34
3162.00,99.35
3161.00,99.36
3160.00,99.37
3159.00,99.37
3158.00,99.37
3157.00,99.36
3156.00,99.35
3155.00,99.33
3154.00,99.32
3153.00,99.33
3152.00,99.36
3151.00,99.38
3150.00,99.39
3149.00,99.39
3148.00,99.39
3147.00,99.39
3146.00,99.40
3145.00,99.41
3144.00,99.42
3143.00,99.43
3142.00,99.45
3141.00,99.46
3140.00,99.47
3139.00,99.47
3138.00,99.48
3137.00,99.48
3136.00,99.48
3135.00,99.48
3134.00,99.47
3133.00,99.46
3132.00,99.45
3131.00,99.44
3130.00,99.44
3129.00,99.45
3128.00,99.46
3127.00,99.48
3126.00,99.48
3125.00,99.48
3124.00,99.49
3123.00,99.50
3122.00,99.51
3121.00,99.51
3120.00,99.50
3119.00,99.49
3118.00,99.48
3117.00,99.47
3116.00,99.48
3115.00,99.49
3114.00,99.51
3113.00,99.51
3112.00,99.51
3111.00,99.49
3110.00,99.48
3109.00,99.47
3108.00,99.45
3107.00,99.44
3106.00,99.44
3105.00,99.45
3104.00,99.46
3103.00,99.48
3102.00,99.48
3101.00,99.49
3100.00,99.48
3099.00,99.48
3098.00,99.48
3097.00,99.48
3096.00,99.49
3095.00,99.49
3094.00,99.50
3093.00,99.50
3092.00,99.50
3091.00,99.50
3090.00,99.50
3089.00,99.51
3088.00,99.52
3087.00,99.52
3086.00,99.51
3085.00,99.49
3084.00,99.47
3083.00,99.46
3082.00,99.46
3081.00,99.47
3080.00,99.47
3079.00,99.48
3078.00,99.48
3077.00,99.48
3076.00,99.47
3075.00,99.45
3074.00,99.43
3073.00,99.42
3072.00,99.43
3071.00,99.45
3070.00,99.48
3069.00,99.49
3068.00,99.49
3067.00,99.48
3066.00,99.47
3065.00,99.46
3064.00,99.46
3063.00,99.46
3062.00,99.47
3061.00,99.48
3060.00,99.48
3059.00,99.47
3058.00,99.46
3057.00,99.46
3056.00,99.46
3055.00,99.47
3054.00,99.48
3053.00,99.48
3052.00,99.48
3051.00,99.46
3050.00,99.45
3049.00,99.44
3048.00,99.43
3047.00,99.44
3046.00,99.45
3045.00,99.46
3044.00,99.46
3043.00,99.45
3042.00,99.44
3041.00,99.42
3040.00,99.42
3039.00,99.43
3038.00,99.44
3037.00,99.44
3036.00,99.44
3035.00,99.43
3034.00,99.42
3033.00,99.42
3032.00,99.42
3031.00,99.42
3030.00,99.41
3029.00,99.40
3028.00,99.39
3027.00,99.38
3026.00,99.38
3025.00,99.38
3024.00,99.37
3023.00,99.37
3022.00,99.36
3021.00,99.35
3020.00,99.35
3019.00,99.35
3018.00,99.34
3017.00,99.33
3016.00,99.32
3015.00,99.32
3014.00,99.32
3013.00,99.32
3012.00,99.31
3011.00,99.32
3010.00,99.32
3009.00,99.34
3008.00,99.35
3007.00,99.36
3006.00,99.36
3005.00,99.35
3004.00,99.34
3003.00,99.32
3002.00,99.29
3001.00,99.27
3000.00,99.25
2999.00,99.23
2998.00,99.22
2997.00,99.21
2996.00,99.19
2995.00,99.18
2994.00,99.18
2993.00,99.18
2992.00,99.17
2991.00,99.16
2990.00,99.14
2989.00,99.12
2988.00,99.11
2987.00,99.11
2986.00,99.11
2985.00,99.12
2984.00,99.13
2983.00,99.14
2982.00,99.14
2981.00,99.13
2980.00,99.11
2979.00,99.08
2978.00,99.05
2977.00,99.02
2976.00,99.01
2975.00,98.99
2974.00,98.96
2973.00,98.93
2972.00,98.89
2971.00,98.84
2970.00,98.80
2969.00,98.76
2968.00,98.72
2967.00,98.68
2966.00,98.63
2965.00,98.59
2964.00,98.55
2963.00,98.51
2962.00,98.47
2961.00,98.45
2960.00,98.44
2959.00,98.44
2958.00,98.43
2957.00,98.41
2956.00,98.39
2955.00,98.37
2954.00,98.35
2953.00,98.34
2952.00,98.31
2951.00,98.29
2950.00,98.27
2949.00,98.26
2948.00,98.24
2947.00,98.22
2946.00,98.20
2945.00,98.18
2944.00,98.16
2943.00,98.14
2942.00,98.11
2941.00,98.09
2940.00,98.07
2939.00,98.06
2938.00,98.08
2937.00,98.11
2936.00,98.13
2935.00,98.15
2934.00,98.16
2933.00,98.17
2932.00,98.18
2931.00,98.20
2930.00,98.21
2929.00,98.22
2928.00,98.22
2927.00,98.23
2926.00,98.25
2925.00,98.27
2924.00,98.29
2923.00,98.29
2922.00,98.29
2921.00,98.31
2920.00,98.34
2919.00,98.37
2918.00,98.41
2917.00,98.45
2916.00,98.47
2915.00,98.49
2914.00,98.50
2913.00,98.51
2912.00,98.52
2911.00,98.53
2910.00,98.55
2909.00,98.55
2908.00,98.56
2907.00,98.56
2906.00,98.56
2905.00,98.57
2904.00,98.58
2903.00,98.59
2902.00,98.59
2901.00,98.59
2900.00,98.57
2899.00,98.56
2898.00,98.55
2897.00,98.54
2896.00,98.55
2895.00,98.56
2894.00,98.57
2893.00,98.57
2892.00,98.56
2891.00,98.55
2890.00,98.55
2889.00,98.55
2888.00,98.57
2887.00,98.59
2886.00,98.61
2885.00,98.61
2884.00,98.60
2883.00,98.58
2882.00,98.58
2881.00,98.59
2880.00,98.60
2879.00,98.63
2878.00,98.64
2877.00,98.66
2876.00,98.67
2875.00,98.69
2874.00,98.70
2873.00,98.71
2872.00,98.70
2871.00,98.68
2870.00,98.68
2869.00,98.70
2868.00,98.71
2867.00,98.72
2866.00,98.71
2865.00,98.70
2864.00,98.71
2863.00,98.74
2862.00,98.78
2861.00,98.81
2860.00,98.82
2859.00,98.83
2858.00,98.82
2857.00,98.83
2856.00,98.84
2855.00,98.86
2854.00,98.89
2853.00,98.93
2852.00,98.97
2851.00,99.01
2850.00,99.05
2849.00,99.08
2848.00,99.11
2847.00,99.15
2846.00,99.18
2845.00,99.23
2844.00,99.27
2843.00,99.30
2842.00,99.34
2841.00,99.36
2840.00,99.39
2839.00,99.41
2838.00,99.43
2837.00,99.46
2836.00,99.49
2835.00,99.51
2834.00,99.53
2833.00,99.54
2832.00,99.54
2831.00,99.53
2830.00,99.53
2829.00,99.53
2828.00,99.54
2827.00,99.54
2826.00,99.55
2825.00,99.56
2824.00,99.58
2823.00,99.60
2822.00,99.62
2821.00,99.64
2820.00,99.63
2819.00,99.62
2818.00,99.61
2817.00,99.61
2816.00,99.61
2815.00,99.63
2814.00,99.64
2813.00,99.64
2812.00,99.63
2811.00,99.62
2810.00,99.62
2809.00,99.62
2808.00,99.63
2807.00,99.64
2806.00,99.64
2805.00,99.65
2804.00,99.66
2803.00,99.67
2802.00,99.67
2801.00,99.68
2800.00,99.68
2799.00,99.70
2798.00,99.72
2797.00,99.74
2796.00,99.75
2795.00,99.74
2794.00,99.72
2793.00,99.71
2792.00,99.69
2791.00,99.69
2790.00,99.70
2789.00,99.72
2788.00,99.74
2787.00,99.76
2786.00,99.78
2785.00,99.79
2784.00,99.80
2783.00,99.80
2782.00,99.80
2781.00,99.80
2780.00,99.78
2779.00,99.77
2778.00,99.76
2777.00,99.76
2776.00,99.76
2775.00,99.77
2774.00,99.80
2773.00,99.82
2772.00,99.83
2771.00,99.82
2770.00,99.82
2769.00,99.82
2768.00,99.83
2767.00,99.84
2766.00,99.85
2765.00,99.86
2764.00,99.85
2763.00,99.85
2762.00,99.86
2761.00,99.86
2760.00,99.86
2759.00,99.86
2758.00,99.85
2757.00,99.85
2756.00,99.85
2755.00,99.85
2754.00,99.85
2753.00,99.84
2752.00,99.84
2751.00,99.83
2750.00,99.83
2749.00,99.83
2748.00,99.83
2747.00,99.84
2746.00,99.83
2745.00,99.83
2744.00,99.82
2743.00,99.80
2742.00,99.79
2741.00,99.79
2740.00,99.79
2739.00,99.80
2738.00,99.80
2737.00,99.81
2736.00,99.81
2735.00,99.82
2734.00,99.82
2733.00,99.81
2732.00,99.81
2731.00,99.80
2730.00,99.80
2729.00,99.81
2728.00,99.82
2727.00,99.82
2726.00,99.81
2725.00,99.80
2724.00,99.79
2723.00,99.79
2722.00,99.80
2721.00,99.83
2720.00,99.85
2719.00,99.86
2718.00,99.86
2717.00,99.85
2716.00,99.84
2715.00,99.84
2714.00,99.84
2713.00,99.84
2712.00,99.85
2711.00,99.86
2710.00,99.87
2709.00,99.88
2708.00,99.89
2707.00,99.90
2706.00,99.91
2705.00,99.90
2704.00,99.90
2703.00,99.91
2702.00,99.92
2701.00,99.93
2700.00,99.93
2699.00,99.93
2698.00,99.93
2697.00,99.92
2696.00,99.92
2695.00,99.92
2694.00,99.92
2693.00,99.91
2692.00,99.90
2691.00,99.90
2690.00,99.89
2689.00,99.90
2688.00,99.91
2687.00,99.92
2686.00,99.93
2685.00,99.94
2684.00,99.93
2683.00,99.92
2682.00,99.92
2681.00,99.92
2680.00,99.92
2679.00,99.91
2678.00,99.91
2677.00,99.92
2676.00,99.92
2675.00,99.92
2674.00,99.93
2673.00,99.93
2672.00,99.94
2671.00,99.94
2670.00,99.95
2669.00,99.94
2668.00,99.94
2667.00,99.93
2666.00,99.92
2665.00,99.91
2664.00,99.89
2663.00,99.89
2662.00,99.89
2661.00,99.89
2660.00,99.89
2659.00,99.88
2658.00,99.87
2657.00,99.85
2656.00,99.84
2655.00,99.82
2654.00,99.81
2653.00,99.80
2652.00,99.79
2651.00,99.78
2650.00,99.77
2649.00,99.75
2648.00,99.74
2647.00,99.73
2646.00,99.72
2645.00,99.72
2644.00,99.72
2643.00,99.71
2642.00,99.69
2641.00,99.67
2640.00,99.66
2639.00,99.66
2638.00,99.65
2637.00,99.65
2636.00,99.64
2635.00,99.64
2634.00,99.64
2633.00,99.63
2632.00,99.62
2631.00,99.59
2630.00,99.57
2629.00,99.55
2628.00,99.53
2627.00,99.53
2626.00,99.54
2625.00,99.56
2624.00,99.57
2623.00,99.59
2622.00,99.59
2621.00,99.59
2620.00,99.59
2619.00,99.56
2618.00,99.54
2617.00,99.51
2616.00,99.48
2615.00,99.45
2614.00,99.43
2613.00,99.42
2612.00,99.43
2611.00,99.46
2610.00,99.49
2609.00,99.50
2608.00,99.50
2607.00,99.49
2606.00,99.48
2605.00,99.47
2604.00,99.46
2603.00,99.44
2602.00,99.42
2601.00,99.40
2600.00,99.39
2599.00,99.38
2598.00,99.38
2597.00,99.36
2596.00,99.34
2595.00,99.33
2594.00,99.32
2593.00,99.31
2592.00,99.31
2591.00,99.31
2590.00,99.31
2589.00,99.31
2588.00,99.32
2587.00,99.32
2586.00,99.32
2585.00,99.32
2584.00,99.32
2583.00,99.32
2582.00,99.34
2581.00,99.35
2580.00,99.36
2579.00,99.35
2578.00,99.33
2577.00,99.33
2576.00,99.33
2575.00,99.33
2574.00,99.32
2573.00,99.31
2572.00,99.29
2571.00,99.29
2570.00,99.28
2569.00,99.27
2568.00,99.25
2567.00,99.23
2566.00,99.22
2565.00,99.22
2564.00,99.23
2563.00,99.25
2562.00,99.27
2561.00,99.29
2560.00,99.31
2559.00,99.32
2558.00,99.32
2557.00,99.31
2556.00,99.30
2555.00,99.29
2554.00,99.28
2553.00,99.28
2552.00,99.28
2551.00,99.28
2550.00,99.29
2549.00,99.29
2548.00,99.29
2547.00,99.29
2546.00,99.29
2545.00,99.29
2544.00,99.29
2543.00,99.29
2542.00,99.26
2541.00,99.23
2540.00,99.21
2539.00,99.21
2538.00,99.23
2537.00,99.25
2536.00,99.27
2535.00,99.30
2534.00,99.31
2533.00,99.30
2532.00,99.26
2531.00,99.22
2530.00,99.20
2529.00,99.20
2528.00,99.23
2527.00,99.26
2526.00,99.29
2525.00,99.31
2524.00,99.32
2523.00,99.33
2522.00,99.34
2521.00,99.32
2520.00,99.29
2519.00,99.25
2518.00,99.22
2517.00,99.22
2516.00,99.22
2515.00,99.22
2514.00,99.22
2513.00,99.23
2512.00,99.24
2511.00,99.27
2510.00,99.29
2509.00,99.30
2508.00,99.30
2507.00,99.29
2506.00,99.28
2505.00,99.28
2504.00,99.29
2503.00,99.31
2502.00,99.31
2501.00,99.30
2500.00,99.29
2499.00,99.27
2498.00,99.26
2497.00,99.26
2496.00,99.26
2495.00,99.26
2494.00,99.26
2493.00,99.25
2492.00,99.24
2491.00,99.23
2490.00,99.22
2489.00,99.22
2488.00,99.24
2487.00,99.25
2486.00,99.24
2485.00,99.22
2484.00,99.19
2483.00,99.19
2482.00,99.20
2481.00,99.22
2480.00,99.23
2479.00,99.25
2478.00,99.27
2477.00,99.29
2476.00,99.30
2475.00,99.30
2474.00,99.30
2473.00,99.29
2472.00,99.29
2471.00,99.29
2470.00,99.29
2469.00,99.27
2468.00,99.24
2467.00,99.21
2466.00,99.17
2465.00,99.15
2464.00,99.16
2463.00,99.18
2462.00,99.22
2461.00,99.26
2460.00,99.28
2459.00,99.30
2458.00,99.29
2457.00,99.27
2456.00,99.25
2455.00,99.24
2454.00,99.23
2453.00,99.23
2452.00,99.23
2451.00,99.23
2450.00,99.25
2449.00,99.27
2448.00,99.29
2447.00,99.31
2446.00,99.31
2445.00,99.31
2444.00,99.30
2443.00,99.31
2442.00,99.32
2441.00,99.33
2440.00,99.33
2439.00,99.32
2438.00,99.30
2437.00,99.28
2436.00,99.28
2435.00,99.29
2434.00,99.31
2433.00,99.31
2432.00,99.29
2431.00,99.27
2430.00,99.26
2429.00,99.26
2428.00,99.27
2427.00,99.29
2426.00,99.31
2425.00,99.32
2424.00,99.31
2423.00,99.30
2422.00,99.30
2421.00,99.32
2420.00,99.34
2419.00,99.37
2418.00,99.38
2417.00,99.38
2416.00,99.36
2415.00,99.35
2414.00,99.35
2413.00,99.35
2412.00,99.35
2411.00,99.34
2410.00,99.33
2409.00,99.34
2408.00,99.37
2407.00,99.40
2406.00,99.42
2405.00,99.43
2404.00,99.43
2403.00,99.43
2402.00,99.44
2401.00,99.46
2400.00,99.48
2399.00,99.49
2398.00,99.50
2397.00,99.50
2396.00,99.51
2395.00,99.52
2394.00,99.53
2393.00,99.54
2392.00,99.55
2391.00,99.55
2390.00,99.55
2389.00,99.55
2388.00,99.56
2387.00,99.57
2386.00,99.58
2385.00,99.59
2384.00,99.61
2383.00,99.63
2382.00,99.67
2381.00,99.72
2380.00,99.76
2379.00,99.80
2378.00,99.83
2377.00,99.85
2376.00,99.86
2375.00,99.86
2374.00,99.84
2373.00,99.83
2372.00,99.84
2371.00,99.84
2370.00,99.85
2369.00,99.86
2368.00,99.87
2367.00,99.88
2366.00,99.89
2365.00,99.85
2364.00,99.77
2363.00,99.71
2362.00,99.74
2361.00,99.87
2360.00,100.02
2359.00,100.10
2358.00,100.10
2357.00,100.05
2356.00,100.01
2355.00,99.98
2354.00,99.96
2353.00,99.94
2352.00,99.93
2351.00,99.93
2350.00,99.94
2349.00,99.96
2348.00,99.97
2347.00,99.98
2346.00,99.98
2345.00,99.97
2344.00,99.96
2343.00,99.98
2342.00,100.00
2341.00,100.01
2340.00,100.00
2339.00,99.99
2338.00,99.98
2337.00,99.98
2336.00,99.98
2335.00,99.98
2334.00,99.98
2333.00,99.97
2332.00,99.94
2331.00,99.89
2330.00,99.85
2329.00,99.83
2328.00,99.83
2327.00,99.86
2326.00,99.86
2325.00,99.83
2324.00,99.79
2323.00,99.75
2322.00,99.73
2321.00,99.71
2320.00,99.67
2319.00,99.65
2318.00,99.66
2317.00,99.69
2316.00,99.72
2315.00,99.72
2314.00,99.70
2313.00,99.66
2312.00,99.63
2311.00,99.61
2310.00,99.60
2309.00,99.57
2308.00,99.53
2307.00,99.49
2306.00,99.46
2305.00,99.43
2304.00,99.41
2303.00,99.39
2302.00,99.38
2301.00,99.36
2300.00,99.33
2299.00,99.30
2298.00,99.27
2297.00,99.25
2296.00,99.24
2295.00,99.22
2294.00,99.18
2293.00,99.13
2292.00,99.07
2291.00,99.02
2290.00,98.98
2289.00,98.96
2288.00,98.92
2287.00,98.88
2286.00,98.83
2285.00,98.80
2284.00,98.78
2283.00,98.78
2282.00,98.79
2281.00,98.79
2280.00,98.78
2279.00,98.77
2278.00,98.74
2277.00,98.66
2276.00,98.58
2275.00,98.52
2274.00,98.51
2273.00,98.53
2272.00,98.54
2271.00,98.52
2270.00,98.47
2269.00,98.44
2268.00,98.43
2267.00,98.45
2266.00,98.47
2265.00,98.47
2264.00,98.44
2263.00,98.40
2262.00,98.37
2261.00,98.35
2260.00,98.31
2259.00,98.26
2258.00,98.23
2257.00,98.22
2256.00,98.24
2255.00,98.25
2254.00,98.26
2253.00,98.26
2252.00,98.26
2251.00,98.25
2250.00,98.23
2249.00,98.20
2248.00,98.17
2247.00,98.15
2246.00,98.15
2245.00,98.16
2244.00,98.17
2243.00,98.17
2242.00,98.15
2241.00,98.12
2240.00,98.10
2239.00,98.09
2238.00,98.07
2237.00,98.05
2236.00,98.05
2235.00,98.06
2234.00,98.08
2233.00,98.08
2232.00,98.05
2231.00,98.01
2230.00,97.97
2229.00,97.93
2228.00,97.90
2227.00,97.87
2226.00,97.87
2225.00,97.87
2224.00,97.86
2223.00,97.82
2222.00,97.76
2221.00,97.69
2220.00,97.66
2219.00,97.68
2218.00,97.72
2217.00,97.73
2216.00,97.68
2215.00,97.62
2214.00,97.56
2213.00,97.53
2212.00,97.52
2211.00,97.52
2210.00,97.55
2209.00,97.59
2208.00,97.61
2207.00,97.60
2206.00,97.58
2205.00,97.54
2204.00,97.49
2203.00,97.45
2202.00,97.42
2201.00,97.42
2200.00,97.40
2199.00,97.39
2198.00,97.41
2197.00,97.45
2196.00,97.47
2195.00,97.45
2194.00,97.37
2193.00,97.29
2192.00,97.23
2191.00,97.20
2190.00,97.19
2189.00,97.17
2188.00,97.14
2187.00,97.10
2186.00,97.06
2185.00,97.02
2184.00,96.96
2183.00,96.89
2182.00,96.85
2181.00,96.87
2180.00,96.90
2179.00,96.91
2178.00,96.87
2177.00,96.81
2176.00,96.80
2175.00,96.82
2174.00,96.86
2173.00,96.87
2172.00,96.84
2171.00,96.78
2170.00,96.72
2169.00,96.67
2168.00,96.64
2167.00,96.60
2166.00,96.55
2165.00,96.46
2164.00,96.32
2163.00,96.18
2162.00,96.08
2161.00,96.07
2160.00,96.16
2159.00,96.32
2158.00,96.51
2157.00,96.69
2156.00,96.81
2155.00,96.89
2154.00,96.96
2153.00,97.05
2152.00,97.15
2151.00,97.24
2150.00,97.30
2149.00,97.35
2148.00,97.38
2147.00,97.41
2146.00,97.46
2145.00,97.54
2144.00,97.62
2143.00,97.70
2142.00,97.76
2141.00,97.80
2140.00,97.82
2139.00,97.82
2138.00,97.82
2137.00,97.83
2136.00,97.87
2135.00,97.93
2134.00,98.01
2133.00,98.09
2132.00,98.15
2131.00,98.18
2130.00,98.20
2129.00,98.20
2128.00,98.21
2127.00,98.23
2126.00,98.26
2125.00,98.30
2124.00,98.31
2123.00,98.30
2122.00,98.28
2121.00,98.26
2120.00,98.27
2119.00,98.29
2118.00,98.32
2117.00,98.34
2116.00,98.34
2115.00,98.31
2114.00,98.28
2113.00,98.25
2112.00,98.24
2111.00,98.23
2110.00,98.24
2109.00,98.24
2108.00,98.22
2107.00,98.20
2106.00,98.19
2105.00,98.19
2104.00,98.21
2103.00,98.21
2102.00,98.19
2101.00,98.17
2100.00,98.14
2099.00,98.13
2098.00,98.13
2097.00,98.16
2096.00,98.20
2095.00,98.24
2094.00,98.28
2093.00,98.30
2092.00,98.31
2091.00,98.30
2090.00,98.28
2089.00,98.25
2088.00,98.23
2087.00,98.21
2086.00,98.19
2085.00,98.18
2084.00,98.18
2083.00,98.19
2082.00,98.18
2081.00,98.14
2080.00,98.10
2079.00,98.07
2078.00,98.06
2077.00,98.06
2076.00,98.06
2075.00,98.05
2074.00,98.05
2073.00,98.05
2072.00,98.05
2071.00,98.04
2070.00,98.01
2069.00,97.98
2068.00,97.94
2067.00,97.90
2066.00,97.87
2065.00,97.85
2064.00,97.85
2063.00,97.86
2062.00,97.87
2061.00,97.87
2060.00,97.85
2059.00,97.83
2058.00,97.81
2057.00,97.81
2056.00,97.83
2055.00,97.83
2054.00,97.79
2053.00,97.69
2052.00,97.54
2051.00,97.41
2050.00,97.33
2049.00,97.30
2048.00,97.29
2047.00,97.30
2046.00,97.30
2045.00,97.28
2044.00,97.22
2043.00,97.12
2042.00,97.02
2041.00,96.95
2040.00,96.93
2039.00,96.93
2038.00,96.93
2037.00,96.91
2036.00,96.90
2035.00,96.92
2034.00,96.96
2033.00,97.01
2032.00,97.00
2031.00,96.94
2030.00,96.84
2029.00,96.76
2028.00,96.72
2027.00,96.70
2026.00,96.69
2025.00,96.67
2024.00,96.67
2023.00,96.68
2022.00,96.74
2021.00,96.82
2020.00,96.93
2019.00,97.01
2018.00,97.05
2017.00,97.03
2016.00,96.97
2015.00,96.90
2014.00,96.88
2013.00,96.91
2012.00,96.98
2011.00,97.08
2010.00,97.18
2009.00,97.27
2008.00,97.35
2007.00,97.40
2006.00,97.44
2005.00,97.47
2004.00,97.48
2003.00,97.48
2002.00,97.47
2001.00,97.48
2000.00,97.49
1999.00,97.48
1998.00,97.45
1997.00,97.43
1996.00,97.45
1995.00,97.50
1994.00,97.54
1993.00,97.54
1992.00,97.48
1991.00,97.38
1990.00,97.30
1989.00,97.28
1988.00,97.29
1987.00,97.32
1986.00,97.35
1985.00,97.36
1984.00,97.32
1983.00,97.21
1982.00,97.05
1981.00,96.90
1980.00,96.79
1979.00,96.74
1978.00,96.74
1977.00,96.81
1976.00,96.92
1975.00,97.04
1974.00,97.13
1973.00,97.18
1972.00,97.21
1971.00,97.22
1970.00,97.25
1969.00,97.30
1968.00,97.36
1967.00,97.42
1966.00,97.46
1965.00,97.49
1964.00,97.52
1963.00,97.57
1962.00,97.64
1961.00,97.71
1960.00,97.77
1959.00,97.80
1958.00,97.82
1957.00,97.84
1956.00,97.87
1955.00,97.90
1954.00,97.94
1953.00,97.96
1952.00,97.97
1951.00,97.98
1950.00,98.00
1949.00,98.03
1948.00,98.05
1947.00,98.07
1946.00,98.09
1945.00,98.12
1944.00,98.13
1943.00,98.14
1942.00,98.16
1941.00,98.20
1940.00,98.25
1939.00,98.31
1938.00,98.37
1937.00,98.41
1936.00,98.43
1935.00,98.42
1934.00,98.41
1933.00,98.42
1932.00,98.45
1931.00,98.47
1930.00,98.47
1929.00,98.48
1928.00,98.51
1927.00,98.56
1926.00,98.61
1925.00,98.65
1924.00,98.66
1923.00,98.67
1922.00,98.68
1921.00,98.69
1920.00,98.69
1919.00,98.67
1918.00,98.67
1917.00,98.70
1916.00,98.74
1915.00,98.77
1914.00,98.78
1913.00,98.79
1912.00,98.80
1911.00,98.81
1910.00,98.82
1909.00,98.83
1908.00,98.83
1907.00,98.82
1906.00,98.83
1905.00,98.85
1904.00,98.88
1903.00,98.92
1902.00,98.95
1901.00,98.97
1900.00,98.98
1899.00,99.00
1898.00,99.02
1897.00,99.05
1896.00,99.07
1895.00,99.08
1894.00,99.09
1893.00,99.10
1892.00,99.09
1891.00,99.08
1890.00,99.05
1889.00,99.03
1888.00,99.02
1887.00,99.02
1886.00,99.04
1885.00,99.06
1884.00,99.07
1883.00,99.07
1882.00,99.07
1881.00,99.08
1880.00,99.10
1879.00,99.12
1878.00,99.13
1877.00,99.13
1876.00,99.12
1875.00,99.13
1874.00,99.16
1873.00,99.20
1872.00,99.22
1871.00,99.21
1870.00,99.18
1869.00,99.14
1868.00,99.12
1867.00,99.12
1866.00,99.14
1865.00,99.15
1864.00,99.15
1863.00,99.15
1862.00,99.15
1861.00,99.17
1860.00,99.19
1859.00,99.20
1858.00,99.20
1857.00,99.20
1856.00,99.21
1855.00,99.22
1854.00,99.23
1853.00,99.23
1852.00,99.23
1851.00,99.24
1850.00,99.25
1849.00,99.26
1848.00,99.26
1847.00,99.26
1846.00,99.26
1845.00,99.25
1844.00,99.25
1843.00,99.26
1842.00,99.28
1841.00,99.30
1840.00,99.32
1839.00,99.32
1838.00,99.32
1837.00,99.32
1836.00,99.32
1835.00,99.32
1834.00,99.33
1833.00,99.32
1832.00,99.31
1831.00,99.28
1830.00,99.27
1829.00,99.28
1828.00,99.28
1827.00,99.26
1826.00,99.24
1825.00,99.23
1824.00,99.22
1823.00,99.21
1822.00,99.19
1821.00,99.19
1820.00,99.21
1819.00,99.23
1818.00,99.27
1817.00,99.28
1816.00,99.27
1815.00,99.23
1814.00,99.20
1813.00,99.20
1812.00,99.20
1811.00,99.20
1810.00,99.18
1809.00,99.15
1808.00,99.13
1807.00,99.11
1806.00,99.08
1805.00,99.07
1804.00,99.05
1803.00,99.03
1802.00,99.01
1801.00,98.98
1800.00,98.96
1799.00,98.94
1798.00,98.92
1797.00,98.91
1796.00,98.90
1795.00,98.89
1794.00,98.89
1793.00,98.86
1792.00,98.81
1791.00,98.75
1790.00,98.69
1789.00,98.64
1788.00,98.60
1787.00,98.56
1786.00,98.50
1785.00,98.44
1784.00,98.36
1783.00,98.27
1782.00,98.18
1781.00,98.08
1780.00,97.96
1779.00,97.84
1778.00,97.72
1777.00,97.59
1776.00,97.44
1775.00,97.26
1774.00,97.05
1773.00,96.78
1772.00,96.46
1771.00,96.12
1770.00,95.76
1769.00,95.36
1768.00,94.87
1767.00,94.32
1766.00,93.74
1765.00,93.16
1764.00,92.53
1763.00,91.83
1762.00,91.06
1761.00,90.30
1760.00,89.59
1759.00,88.93
1758.00,88.28
1757.00,87.63
1756.00,87.01
1755.00,86.49
1754.00,86.04
1753.00,85.61
1752.00,85.17
1751.00,84.73
1750.00,84.34
1749.00,84.00
1748.00,83.70
1747.00,83.43
1746.00,83.18
1745.00,82.93
1744.00,82.69
1743.00,82.45
1742.00,82.24
1741.00,82.04
1740.00,81.87
1739.00,81.74
1738.00,81.63
1737.00,81.56
1736.00,81.52
1735.00,81.53
1734.00,81.61
1733.00,81.74
1732.00,81.88
1731.00,82.02
1730.00,82.20
1729.00,82.42
1728.00,82.69
1727.00,82.97
1726.00,83.27
1725.00,83.60
1724.00,83.98
1723.00,84.38
1722.00,84.77
1721.00,85.16
1720.00,85.57
1719.00,86.07
1718.00,86.64
1717.00,87.25
1716.00,87.80
1715.00,88.31
1714.00,88.78
1713.00,89.24
1712.00,89.68
1711.00,90.11
1710.00,90.53
1709.00,90.93
1708.00,91.31
1707.00,91.69
1706.00,92.09
1705.00,92.46
1704.00,92.77
1703.00,93.03
1702.00,93.30
1701.00,93.63
1700.00,93.99
1699.00,94.27
1698.00,94.48
1697.00,94.67
1696.00,94.89
1695.00,95.12
1694.00,95.29
1693.00,95.41
1692.00,95.51
1691.00,95.63
1690.00,95.76
1689.00,95.88
1688.00,95.98
1687.00,96.07
1686.00,96.16
1685.00,96.26
1684.00,96.37
1683.00,96.47
1682.00,96.54
1681.00,96.58
1680.00,96.62
1679.00,96.66
1678.00,96.69
1677.00,96.72
1676.00,96.73
1675.00,96.75
1674.00,96.77
1673.00,96.79
1672.00,96.82
1671.00,96.84
1670.00,96.86
1669.00,96.87
1668.00,96.88
1667.00,96.88
1666.00,96.89
1665.00,96.89
1664.00,96.90
1663.00,96.91
1662.00,96.91
1661.00,96.92
1660.00,96.91
1659.00,96.92
1658.00,96.92
1657.00,96.93
1656.00,96.93
1655.00,96.92
1654.00,96.90
1653.00,96.87
1652.00,96.86
1651.00,96.86
1650.00,96.86
1649.00,96.87
1648.00,96.87
1647.00,96.86
1646.00,96.86
1645.00,96.87
1644.00,96.88
1643.00,96.88
1642.00,96.89
1641.00,96.89
1640.00,96.90
1639.00,96.92
1638.00,96.95
1637.00,96.98
1636.00,97.02
1635.00,97.05
1634.00,97.08
1633.00,97.09
1632.00,97.10
1631.00,97.11
1630.00,97.13
1629.00,97.16
1628.00,97.19
1627.00,97.22
1626.00,97.24
1625.00,97.27
1624.00,97.31
1623.00,97.36
1622.00,97.41
1621.00,97.44
1620.00,97.47
1619.00,97.50
1618.00,97.55
1617.00,97.61
1616.00,97.66
1615.00,97.71
1614.00,97.75
1613.00,97.79
1612.00,97.82
1611.00,97.84
1610.00,97.87
1609.00,97.89
1608.00,97.92
1607.00,97.95
1606.00,97.98
1605.00,98.02
1604.00,98.07
1603.00,98.11
1602.00,98.14
1601.00,98.17
1600.00,98.19
1599.00,98.21
1598.00,98.23
1597.00,98.24
1596.00,98.26
1595.00,98.27
1594.00,98.27
1593.00,98.28
1592.00,98.28
1591.00,98.28
1590.00,98.30
1589.00,98.32
1588.00,98.36
1587.00,98.39
1586.00,98.42
1585.00,98.44
1584.00,98.46
1583.00,98.47
1582.00,98.49
1581.00,98.50
1580.00,98.51
1579.00,98.52
1578.00,98.53
1577.00,98.53
1576.00,98.52
1575.00,98.52
1574.00,98.53
1573.00,98.54
1572.00,98.55
1571.00,98.56
1570.00,98.57
1569.00,98.59
1568.00,98.60
1567.00,98.62
1566.00,98.63
1565.00,98.64
1564.00,98.64
1563.00,98.64
1562.00,98.65
1561.00,98.66
1560.00,98.65
1559.00,98.64
1558.00,98.64
1557.00,98.65
1556.00,98.64
1555.00,98.64
1554.00,98.63
1553.00,98.63
1552.00,98.64
1551.00,98.65
1550.00,98.65
1549.00,98.65
1548.00,98.64
1547.00,98.64
1546.00,98.64
1545.00,98.64
1544.00,98.63
1543.00,98.62
1542.00,98.61
1541.00,98.63
1540.00,98.66
1539.00,98.69
1538.00,98.70
1537.00,98.69
1536.00,98.69
1535.00,98.68
1534.00,98.68
1533.00,98.67
1532.00,98.67
1531.00,98.66
1530.00,98.65
1529.00,98.64
1528.00,98.64
1527.00,98.64
1526.00,98.65
1525.00,98.65
1524.00,98.63
1523.00,98.62
1522.00,98.60
1521.00,98.61
1520.00,98.64
1519.00,98.66
1518.00,98.69
1517.00,98.70
1516.00,98.71
1515.00,98.71
1514.00,98.71
1513.00,98.70
1512.00,98.70
1511.00,98.69
1510.00,98.69
1509.00,98.70
1508.00,98.70
1507.00,98.71
1506.00,98.71
1505.00,98.70
1504.00,98.69
1503.00,98.69
1502.00,98.70
1501.00,98.70
1500.00,98.70
1499.00,98.69
1498.00,98.68
1497.00,98.67
1496.00,98.66
1495.00,98.65
1494.00,98.64
1493.00,98.63
1492.00,98.62
1491.00,98.61
1490.00,98.61
1489.00,98.59
1488.00,98.56
1487.00,98.53
1486.00,98.49
1485.00,98.46
1484.00,98.44
1483.00,98.42
1482.00,98.40
1481.00,98.36
1480.00,98.32
1479.00,98.28
1478.00,98.23
1477.00,98.19
1476.00,98.14
1475.00,98.09
1474.00,98.03
1473.00,97.95
1472.00,97.85
1471.00,97.75
1470.00,97.67
1469.00,97.58
1468.00,97.49
1467.00,97.40
1466.00,97.32
1465.00,97.24
1464.00,97.15
1463.00,97.05
1462.00,96.94
1461.00,96.85
1460.00,96.78
1459.00,96.74
1458.00,96.69
1457.00,96.62
1456.00,96.56
1455.00,96.51
1454.00,96.45
1453.00,96.39
1452.00,96.33
1451.00,96.26
1450.00,96.19
1449.00,96.12
1448.00,96.05
1447.00,95.97
1446.00,95.89
1445.00,95.79
1444.00,95.69
1443.00,95.59
1442.00,95.49
1441.00,95.39
1440.00,95.30
1439.00,95.21
1438.00,95.12
1437.00,95.03
1436.00,94.96
1435.00,94.89
1434.00,94.82
1433.00,94.76
1432.00,94.71
1431.00,94.68
1430.00,94.68
1429.00,94.70
1428.00,94.72
1427.00,94.76
1426.00,94.81
1425.00,94.86
1424.00,94.92
1423.00,94.98
1422.00,95.04
1421.00,95.10
1420.00,95.16
1419.00,95.23
1418.00,95.30
1417.00,95.34
1416.00,95.37
1415.00,95.39
1414.00,95.42
1413.00,95.45
1412.00,95.49
1411.00,95.53
1410.00,95.57
1409.00,95.61
1408.00,95.65
1407.00,95.69
1406.00,95.73
1405.00,95.77
1404.00,95.81
1403.00,95.82
1402.00,95.83
1401.00,95.82
1400.00,95.80
1399.00,95.77
1398.00,95.72
1397.00,95.65
1396.00,95.55
1395.00,95.41
1394.00,95.23
1393.00,95.03
1392.00,94.81
1391.00,94.58
1390.00,94.33
1389.00,94.04
1388.00,93.71
1387.00,93.35
1386.00,92.97
1385.00,92.60
1384.00,92.22
1383.00,91.85
1382.00,91.48
1381.00,91.12
1380.00,90.76
1379.00,90.43
1378.00,90.13
1377.00,89.84
1376.00,89.56
1375.00,89.27
1374.00,88.99
1373.00,88.72
1372.00,88.47
1371.00,88.25
1370.00,88.07
1369.00,87.93
1368.00,87.85
1367.00,87.83
1366.00,87.91
1365.00,88.07
1364.00,88.34
1363.00,88.75
1362.00,89.27
1361.00,89.86
1360.00,90.49
1359.00,91.15
1358.00,91.81
1357.00,92.46
1356.00,93.06
1355.00,93.60
1354.00,94.07
1353.00,94.47
1352.00,94.80
1351.00,95.10
1350.00,95.34
1349.00,95.53
1348.00,95.67
1347.00,95.77
1346.00,95.85
1345.00,95.92
1344.00,95.99
1343.00,96.06
1342.00,96.12
1341.00,96.18
1340.00,96.22
1339.00,96.25
1338.00,96.25
1337.00,96.24
1336.00,96.23
1335.00,96.23
1334.00,96.23
1333.00,96.21
1332.00,96.20
1331.00,96.18
1330.00,96.16
1329.00,96.15
1328.00,96.14
1327.00,96.13
1326.00,96.12
1325.00,96.10
1324.00,96.07
1323.00,96.06
1322.00,96.05
1321.00,96.06
1320.00,96.07
1319.00,96.08
1318.00,96.09
1317.00,96.11
1316.00,96.13
1315.00,96.15
1314.00,96.17
1313.00,96.19
1312.00,96.21
1311.00,96.23
1310.00,96.26
1309.00,96.31
1308.00,96.35
1307.00,96.38
1306.00,96.41
1305.00,96.41
1304.00,96.41
1303.00,96.40
1302.00,96.37
1301.00,96.33
1300.00,96.29
1299.00,96.26
1298.00,96.22
1297.00,96.16
1296.00,96.09
1295.00,96.02
1294.00,95.95
1293.00,95.88
1292.00,95.79
1291.00,95.70
1290.00,95.61
1289.00,95.50
1288.00,95.40
1287.00,95.28
1286.00,95.17
1285.00,95.04
1284.00,94.89
1283.00,94.73
1282.00,94.54
1281.00,94.34
1280.00,94.14
1279.00,93.92
1278.00,93.69
1277.00,93.45
1276.00,93.20
1275.00,92.95
1274.00,92.68
1273.00,92.40
1272.00,92.13
1271.00,91.85
1270.00,91.57
1269.00,91.27
1268.00,90.94
1267.00,90.60
1266.00,90.25
1265.00,89.90
1264.00,89.54
1263.00,89.17
1262.00,88.80
1261.00,88.41
1260.00,88.00
1259.00,87.59
1258.00,87.18
1257.00,86.76
1256.00,86.34
1255.00,85.92
1254.00,85.49
1253.00,85.06
1252.00,84.64
1251.00,84.22
1250.00,83.79
1249.00,83.34
1248.00,82.89
1247.00,82.45
1246.00,82.01
1245.00,81.58
1244.00,81.13
1243.00,80.68
1242.00,80.25
1241.00,79.83
1240.00,79.42
1239.00,79.04
1238.00,78.67
1237.00,78.29
1236.00,77.91
1235.00,77.55
1234.00,77.21
1233.00,76.89
1232.00,76.60
1231.00,76.33
1230.00,76.10
1229.00,75.90
1228.00,75.71
1227.00,75.54
1226.00,75.39
1225.00,75.26
1224.00,75.12
1223.00,75.00
1222.00,74.89
1221.00,74.80
1220.00,74.72
1219.00,74.65
1218.00,74.61
1217.00,74.59
1216.00,74.60
1215.00,74.67
1214.00,74.80
1213.00,74.97
1212.00,75.21
1211.00,75.53
1210.00,75.94
1209.00,76.42
1208.00,76.98
1207.00,77.61
1206.00,78.31
1205.00,79.05
1204.00,79.83
1203.00,80.65
1202.00,81.49
1201.00,82.32
1200.00,83.14
1199.00,83.93
1198.00,84.72
1197.00,85.46
1196.00,86.16
1195.00,86.80
1194.00,87.37
1193.00,87.87
1192.00,88.32
1191.00,88.76
1190.00,89.16
1189.00,89.50
1188.00,89.77
1187.00,89.97
1186.00,90.13
1185.00,90.25
1184.00,90.34
1183.00,90.39
1182.00,90.41
1181.00,90.40
1180.00,90.35
1179.00,90.28
1178.00,90.20
1177.00,90.11
1176.00,90.01
1175.00,89.91
1174.00,89.80
1173.00,89.68
1172.00,89.57
1171.00,89.47
1170.00,89.38
1169.00,89.29
1168.00,89.19
1167.00,89.07
1166.00,88.95
1165.00,88.82
1164.00,88.71
1163.00,88.64
1162.00,88.59
1161.00,88.56
1160.00,88.54
1159.00,88.53
1158.00,88.56
1157.00,88.61
1156.00,88.69
1155.00,88.79
1154.00,88.92
1153.00,89.04
1152.00,89.17
1151.00,89.31
1150.00,89.47
1149.00,89.65
1148.00,89.82
1147.00,89.98
1146.00,90.11
1145.00,90.21
1144.00,90.27
1143.00,90.30
1142.00,90.30
1141.00,90.27
1140.00,90.22
1139.00,90.16
1138.00,90.10
1137.00,90.03
1136.00,89.93
1135.00,89.82
1134.00,89.69
1133.00,89.56
1132.00,89.42
1131.00,89.27
1130.00,89.13
1129.00,88.99
1128.00,88.86
1127.00,88.75
1126.00,88.64
1125.00,88.55
1124.00,88.46
1123.00,88.39
1122.00,88.36
1121.00,88.34
1120.00,88.33
1119.00,88.32
1118.00,88.32
1117.00,88.31
1116.00,88.30
1115.00,88.31
1114.00,88.32
1113.00,88.34
1112.00,88.34
1111.00,88.31
1110.00,88.28
1109.00,88.24
1108.00,88.21
1107.00,88.21
1106.00,88.22
1105.00,88.20
1104.00,88.12
1103.00,88.00
1102.00,87.86
1101.00,87.71
1100.00,87.54
1099.00,87.35
1098.00,87.17
1097.00,86.99
1096.00,86.80
1095.00,86.57
1094.00,86.31
1093.00,86.01
1092.00,85.71
1091.00,85.41
1090.00,85.11
1089.00,84.83
1088.00,84.57
1087.00,84.31
1086.00,84.05
1085.00,83.77
1084.00,83.48
1083.00,83.20
1082.00,82.92
1081.00,82.64
1080.00,82.37
1079.00,82.10
1078.00,81.84
1077.00,81.56
1076.00,81.28
1075.00,81.01
1074.00,80.76
1073.00,80.51
1072.00,80.26
1071.00,80.01
1070.00,79.78
1069.00,79.55
1068.00,79.33
1067.00,79.12
1066.00,78.91
1065.00,78.68
1064.00,78.44
1063.00,78.21
1062.00,77.98
1061.00,77.73
1060.00,77.43
1059.00,77.10
1058.00,76.75
1057.00,76.39
1056.00,76.05
1055.00,75.71
1054.00,75.37
1053.00,75.02
1052.00,74.67
1051.00,74.33
1050.00,74.01
1049.00,73.70
1048.00,73.39
1047.00,73.10
1046.00,72.86
1045.00,72.64
1044.00,72.44
1043.00,72.25
1042.00,72.06
1041.00,71.86
1040.00,71.66
1039.00,71.48
1038.00,71.31
1037.00,71.15
1036.00,70.98
1035.00,70.83
1034.00,70.73
1033.00,70.66
1032.00,70.62
1031.00,70.61
1030.00,70.65
1029.00,70.73
1028.00,70.85
1027.00,71.01
1026.00,71.21
1025.00,71.45
1024.00,71.72
1023.00,72.01
1022.00,72.31
1021.00,72.61
1020.00,72.92
1019.00,73.27
1018.00,73.66
1017.00,74.05
1016.00,74.44
1015.00,74.83
1014.00,75.22
1013.00,75.61
1012.00,76.00
1011.00,76.39
1010.00,76.80
1009.00,77.21
1008.00,77.61
1007.00,77.99
1006.00,78.36
1005.00,78.72
1004.00,79.06
1003.00,79.40
1002.00,79.73
1001.00,80.03
1000.00,80.31
999.00,80.57
998.00,80.81
997.00,81.03
996.00,81.22
995.00,81.41
994.00,81.60
993.00,81.79
992.00,81.96
991.00,82.12
990.00,82.28
989.00,82.44
988.00,82.60
987.00,82.77
986.00,82.96
985.00,83.16
984.00,83.37
983.00,83.58
982.00,83.79
981.00,83.99
980.00,84.20
979.00,84.44
978.00,84.69
977.00,84.96
976.00,85.21
975.00,85.46
974.00,85.71
973.00,85.97
972.00,86.23
971.00,86.50
970.00,86.75
969.00,87.00
968.00,87.23
967.00,87.45
966.00,87.65
965.00,87.83
964.00,88.02
963.00,88.19
962.00,88.34
961.00,88.45
960.00,88.53
959.00,88.61
958.00,88.68
957.00,88.76
956.00,88.83
955.00,88.91
954.00,88.99
953.00,89.07
952.00,89.16
951.00,89.26
950.00,89.36
949.00,89.45
948.00,89.54
947.00,89.62
946.00,89.70
945.00,89.77
944.00,89.85
943.00,89.93
942.00,90.00
941.00,90.06
940.00,90.12
939.00,90.17
938.00,90.22
937.00,90.26
936.00,90.30
935.00,90.32
934.00,90.35
933.00,90.36
932.00,90.37
931.00,90.37
930.00,90.36
929.00,90.35
928.00,90.32
927.00,90.29
926.00,90.27
925.00,90.24
924.00,90.21
923.00,90.15
922.00,90.08
921.00,89.97
920.00,89.85
919.00,89.74
918.00,89.64
917.00,89.53
916.00,89.41
915.00,89.27
914.00,89.12
913.00,88.95
912.00,88.76
911.00,88.55
910.00,88.33
909.00,88.10
908.00,87.86
907.00,87.63
906.00,87.41
905.00,87.22
904.00,87.06
903.00,86.94
902.00,86.85
901.00,86.77
900.00,86.72
899.00,86.73
898.00,86.80
897.00,86.94
896.00,87.13
895.00,87.36
894.00,87.61
893.00,87.86
892.00,88.10
891.00,88.33
890.00,88.55
889.00,88.76
888.00,88.94
887.00,89.10
886.00,89.23
885.00,89.34
884.00,89.43
883.00,89.52
882.00,89.59
881.00,89.64
880.00,89.68
879.00,89.75
878.00,89.85
877.00,89.96
876.00,90.07
875.00,90.20
874.00,90.35
873.00,90.52
872.00,90.68
871.00,90.85
870.00,91.04
869.00,91.24
868.00,91.47
867.00,91.69
866.00,91.87
865.00,92.03
864.00,92.16
863.00,92.29
862.00,92.41
861.00,92.51
860.00,92.59
859.00,92.66
858.00,92.74
857.00,92.83
856.00,92.92
855.00,93.00
854.00,93.05
853.00,93.05
852.00,93.02
851.00,92.99
850.00,92.97
849.00,92.96
848.00,92.95
847.00,92.93
846.00,92.88
845.00,92.82
844.00,92.75
843.00,92.70
842.00,92.67
841.00,92.65
840.00,92.62
839.00,92.61
838.00,92.63
837.00,92.67
836.00,92.71
835.00,92.75
834.00,92.80
833.00,92.86
832.00,92.93
831.00,93.03
830.00,93.16
829.00,93.29
828.00,93.40
827.00,93.49
826.00,93.55
825.00,93.62
824.00,93.70
823.00,93.77
822.00,93.81
821.00,93.85
820.00,93.88
819.00,93.91
818.00,93.95
817.00,93.98
816.00,94.00
815.00,94.03
814.00,94.05
813.00,94.08
812.00,94.11
811.00,94.15
810.00,94.18
809.00,94.20
808.00,94.22
807.00,94.25
806.00,94.28
805.00,94.31
804.00,94.33
803.00,94.35
802.00,94.36
801.00,94.35
800.00,94.34
799.00,94.34
798.00,94.36
797.00,94.40
796.00,94.46
795.00,94.52
794.00,94.54
793.00,94.53
792.00,94.51
791.00,94.49
790.00,94.48
789.00,94.48
788.00,94.47
787.00,94.47
786.00,94.46
785.00,94.45
784.00,94.44
783.00,94.44
782.00,94.46
781.00,94.49
780.00,94.50
779.00,94.50
778.00,94.51
777.00,94.51
776.00,94.51
775.00,94.49
774.00,94.45
773.00,94.42
772.00,94.40
771.00,94.41
770.00,94.44
769.00,94.47
768.00,94.49
767.00,94.52
766.00,94.53
765.00,94.54
764.00,94.54
763.00,94.53
762.00,94.53
761.00,94.51
760.00,94.49
759.00,94.49
758.00,94.50
757.00,94.50
756.00,94.49
755.00,94.49
754.00,94.50
753.00,94.50
752.00,94.50
751.00,94.51
750.00,94.52
749.00,94.53
748.00,94.51
747.00,94.47
746.00,94.41
745.00,94.36
744.00,94.33
743.00,94.33
742.00,94.36
741.00,94.38
740.00,94.38
739.00,94.35
738.00,94.31
737.00,94.26
736.00,94.21
735.00,94.19
734.00,94.16
733.00,94.08
732.00,93.94
731.00,93.79
730.00,93.70
729.00,93.67
728.00,93.69
727.00,93.69
726.00,93.67
725.00,93.62
724.00,93.54
723.00,93.45
722.00,93.38
721.00,93.33
720.00,93.29
719.00,93.26
718.00,93.24
717.00,93.22
716.00,93.20
715.00,93.18
714.00,93.15
713.00,93.12
712.00,93.09
711.00,93.05
710.00,93.00
709.00,92.95
708.00,92.90
707.00,92.86
706.00,92.83
705.00,92.81
704.00,92.78
703.00,92.74
702.00,92.71
701.00,92.69
700.00,92.68
699.00,92.69
698.00,92.69
697.00,92.64
696.00,92.57
695.00,92.50
694.00,92.44
693.00,92.40
692.00,92.35
691.00,92.28
690.00,92.22
689.00,92.18
688.00,92.16
687.00,92.13
686.00,92.07
685.00,91.98
684.00,91.92
683.00,91.91
682.00,91.94
681.00,91.96
680.00,91.96
679.00,91.94
678.00,91.89
677.00,91.83
676.00,91.78
675.00,91.78
674.00,91.82
673.00,91.85
672.00,91.88
671.00,91.90
670.00,91.92
669.00,91.93
668.00,91.90
667.00,91.83
666.00,91.78
665.00,91.77
664.00,91.78
663.00,91.80
662.00,91.82
661.00,91.79
660.00,91.67
659.00,91.48
658.00,91.29
657.00,91.14
656.00,91.03
655.00,90.96
654.00,90.91
653.00,90.88
652.00,90.84
651.00,90.80
650.00,90.76
649.00,90.72
648.00,90.64
647.00,90.53
646.00,90.39
645.00,90.25
644.00,90.14
643.00,90.06
642.00,90.01
641.00,90.00
640.00,90.03
639.00,90.06
638.00,90.04
637.00,89.95
636.00,89.82
635.00,89.68
634.00,89.52
633.00,89.35
632.00,89.20
631.00,89.14
630.00,89.10
629.00,89.01
628.00,88.87
627.00,88.75
626.00,88.68
625.00,88.61
624.00,88.54
623.00,88.54
622.00,88.60
621.00,88.63
620.00,88.56
619.00,88.42
618.00,88.19
617.00,87.80
616.00,87.41
615.00,87.24
614.00,87.30
613.00,87.33
612.00,87.12
611.00,86.71
610.00,86.23
609.00,85.77
608.00,85.38
607.00,85.10
606.00,84.81
605.00,84.39
604.00,84.04
603.00,84.21
602.00,84.93
601.00,85.68
600.00,85.87
599.00,85.50
598.00,85.06
597.00,84.89
596.00,84.94
595.00,85.09
594.00,85.26
593.00,85.43
592.00,85.63
591.00,85.89
590.00,86.20
589.00,86.47
588.00,86.68
587.00,86.84
586.00,86.98
585.00,87.04
584.00,87.07
583.00,87.21
582.00,87.48
581.00,87.69
580.00,87.74
579.00,87.84
578.00,88.20
577.00,88.71
576.00,89.00
575.00,88.90
574.00,88.55
573.00,88.16
572.00,87.90
571.00,87.82
570.00,87.73
569.00,87.39
568.00,86.88
567.00,86.58
566.00,86.60
565.00,86.55
564.00,86.13
563.00,85.63
562.00,85.47
561.00,85.67
560.00,85.98
559.00,86.31
558.00,86.63
557.00,86.68
556.00,86.26
555.00,85.63
554.00,85.27
553.00,85.35
552.00,85.74
551.00,86.31
550.00,87.00
