Created as New Dataset,17. Cyanenka SA
cm-1,%T
4000.00,99.79
3999.00,99.81
3998.00,99.83
3997.00,99.83
3996.00,99.81
3995.00,99.79
3994.00,99.77
3993.00,99.77
3992.00,99.76
3991.00,99.75
3990.00,99.74
3989.00,99.72
3988.00,99.71
3987.00,99.72
3986.00,99.74
3985.00,99.76
3984.00,99.76
3983.00,99.75
3982.00,99.74
3981.00,99.73
3980.00,99.74
3979.00,99.77
3978.00,99.78
3977.00,99.78
3976.00,99.76
3975.00,99.74
3974.00,99.73
3973.00,99.74
3972.00,99.76
3971.00,99.77
3970.00,99.78
3969.00,99.79
3968.00,99.79
3967.00,99.78
3966.00,99.78
3965.00,99.78
3964.00,99.78
3963.00,99.78
3962.00,99.78
3961.00,99.77
3960.00,99.77
3959.00,99.77
3958.00,99.78
3957.00,99.79
3956.00,99.79
3955.00,99.78
3954.00,99.76
3953.00,99.74
3952.00,99.71
3951.00,99.70
3950.00,99.70
3949.00,99.72
3948.00,99.74
3947.00,99.75
3946.00,99.74
3945.00,99.72
3944.00,99.71
3943.00,99.72
3942.00,99.73
3941.00,99.74
3940.00,99.75
3939.00,99.74
3938.00,99.73
3937.00,99.72
3936.00,99.71
3935.00,99.71
3934.00,99.71
3933.00,99.72
3932.00,99.72
3931.00,99.72
3930.00,99.72
3929.00,99.72
3928.00,99.73
3927.00,99.73
3926.00,99.73
3925.00,99.73
3924.00,99.73
3923.00,99.72
3922.00,99.72
3921.00,99.73
3920.00,99.73
3919.00,99.73
3918.00,99.72
3917.00,99.72
3916.00,99.70
3915.00,99.69
3914.00,99.68
3913.00,99.67
3912.00,99.68
3911.00,99.69
3910.00,99.70
3909.00,99.70
3908.00,99.71
3907.00,99.73
3906.00,99.76
3905.00,99.78
3904.00,99.80
3903.00,99.79
3902.00,99.77
3901.00,99.76
3900.00,99.75
3899.00,99.75
3898.00,99.74
3897.00,99.72
3896.00,99.70
3895.00,99.69
3894.00,99.68
3893.00,99.69
3892.00,99.71
3891.00,99.74
3890.00,99.75
3889.00,99.74
3888.00,99.72
3887.00,99.71
3886.00,99.71
3885.00,99.72
3884.00,99.72
3883.00,99.71
3882.00,99.71
3881.00,99.69
3880.00,99.68
3879.00,99.67
3878.00,99.69
3877.00,99.71
3876.00,99.74
3875.00,99.75
3874.00,99.73
3873.00,99.69
3872.00,99.66
3871.00,99.67
3870.00,99.68
3869.00,99.69
3868.00,99.67
3867.00,99.65
3866.00,99.65
3865.00,99.65
3864.00,99.65
3863.00,99.64
3862.00,99.64
3861.00,99.64
3860.00,99.64
3859.00,99.65
3858.00,99.66
3857.00,99.67
3856.00,99.68
3855.00,99.69
3854.00,99.71
3853.00,99.70
3852.00,99.68
3851.00,99.65
3850.00,99.63
3849.00,99.61
3848.00,99.60
3847.00,99.59
3846.00,99.60
3845.00,99.62
3844.00,99.64
3843.00,99.65
3842.00,99.63
3841.00,99.61
3840.00,99.60
3839.00,99.61
3838.00,99.64
3837.00,99.67
3836.00,99.67
3835.00,99.66
3834.00,99.64
3833.00,99.64
3832.00,99.65
3831.00,99.65
3830.00,99.64
3829.00,99.61
3828.00,99.58
3827.00,99.58
3826.00,99.57
3825.00,99.56
3824.00,99.54
3823.00,99.53
3822.00,99.55
3821.00,99.58
3820.00,99.59
3819.00,99.58
3818.00,99.56
3817.00,99.54
3816.00,99.53
3815.00,99.52
3814.00,99.52
3813.00,99.52
3812.00,99.53
3811.00,99.52
3810.00,99.52
3809.00,99.52
3808.00,99.53
3807.00,99.55
3806.00,99.56
3805.00,99.56
3804.00,99.55
3803.00,99.54
3802.00,99.54
3801.00,99.52
3800.00,99.50
3799.00,99.49
3798.00,99.50
3797.00,99.53
3796.00,99.54
3795.00,99.54
3794.00,99.52
3793.00,99.51
3792.00,99.51
3791.00,99.52
3790.00,99.52
3789.00,99.50
3788.00,99.48
3787.00,99.46
3786.00,99.45
3785.00,99.45
3784.00,99.46
3783.00,99.46
3782.00,99.47
3781.00,99.47
3780.00,99.48
3779.00,99.47
3778.00,99.45
3777.00,99.43
3776.00,99.42
3775.00,99.43
3774.00,99.44
3773.00,99.45
3772.00,99.46
3771.00,99.47
3770.00,99.47
3769.00,99.46
3768.00,99.43
3767.00,99.41
3766.00,99.41
3765.00,99.41
3764.00,99.43
3763.00,99.43
3762.00,99.43
3761.00,99.41
3760.00,99.39
3759.00,99.37
3758.00,99.36
3757.00,99.35
3756.00,99.36
3755.00,99.37
3754.00,99.39
3753.00,99.41
3752.00,99.41
3751.00,99.40
3750.00,99.39
3749.00,99.38
3748.00,99.38
3747.00,99.37
3746.00,99.38
3745.00,99.39
3744.00,99.39
3743.00,99.38
3742.00,99.38
3741.00,99.40
3740.00,99.42
3739.00,99.45
3738.00,99.47
3737.00,99.48
3736.00,99.45
3735.00,99.41
3734.00,99.37
3733.00,99.37
3732.00,99.39
3731.00,99.41
3730.00,99.40
3729.00,99.38
3728.00,99.37
3727.00,99.37
3726.00,99.38
3725.00,99.39
3724.00,99.38
3723.00,99.36
3722.00,99.32
3721.00,99.29
3720.00,99.26
3719.00,99.26
3718.00,99.27
3717.00,99.29
3716.00,99.30
3715.00,99.32
3714.00,99.34
3713.00,99.35
3712.00,99.33
3711.00,99.29
3710.00,99.26
3709.00,99.25
3708.00,99.26
3707.00,99.28
3706.00,99.28
3705.00,99.26
3704.00,99.25
3703.00,99.25
3702.00,99.26
3701.00,99.28
3700.00,99.29
3699.00,99.30
3698.00,99.31
3697.00,99.32
3696.00,99.31
3695.00,99.29
3694.00,99.24
3693.00,99.19
3692.00,99.15
3691.00,99.14
3690.00,99.17
3689.00,99.20
3688.00,99.23
3687.00,99.23
3686.00,99.22
3685.00,99.23
3684.00,99.23
3683.00,99.22
3682.00,99.20
3681.00,99.18
3680.00,99.17
3679.00,99.17
3678.00,99.18
3677.00,99.19
3676.00,99.20
3675.00,99.20
3674.00,99.20
3673.00,99.19
3672.00,99.19
3671.00,99.18
3670.00,99.15
3669.00,99.10
3668.00,99.07
3667.00,99.06
3666.00,99.07
3665.00,99.08
3664.00,99.09
3663.00,99.09
3662.00,99.08
3661.00,99.06
3660.00,99.05
3659.00,99.03
3658.00,99.01
3657.00,99.00
3656.00,98.99
3655.00,98.99
3654.00,98.99
3653.00,98.99
3652.00,98.97
3651.00,98.94
3650.00,98.89
3649.00,98.86
3648.00,98.86
3647.00,98.87
3646.00,98.87
3645.00,98.88
3644.00,98.87
3643.00,98.86
3642.00,98.86
3641.00,98.87
3640.00,98.88
3639.00,98.90
3638.00,98.90
3637.00,98.90
3636.00,98.90
3635.00,98.91
3634.00,98.91
3633.00,98.89
3632.00,98.86
3631.00,98.83
3630.00,98.83
3629.00,98.84
3628.00,98.85
3627.00,98.85
3626.00,98.84
3625.00,98.83
3624.00,98.83
3623.00,98.83
3622.00,98.83
3621.00,98.83
3620.00,98.82
3619.00,98.82
3618.00,98.82
3617.00,98.83
3616.00,98.85
3615.00,98.88
3614.00,98.91
3613.00,98.94
3612.00,98.95
3611.00,98.93
3610.00,98.90
3609.00,98.87
3608.00,98.84
3607.00,98.83
3606.00,98.83
3605.00,98.83
3604.00,98.82
3603.00,98.80
3602.00,98.78
3601.00,98.77
3600.00,98.78
3599.00,98.80
3598.00,98.82
3597.00,98.83
3596.00,98.82
3595.00,98.82
3594.00,98.83
3593.00,98.86
3592.00,98.89
3591.00,98.91
3590.00,98.93
3589.00,98.95
3588.00,98.96
3587.00,98.97
3586.00,98.98
3585.00,98.98
3584.00,98.96
3583.00,98.93
3582.00,98.89
3581.00,98.87
3580.00,98.87
3579.00,98.88
3578.00,98.90
3577.00,98.91
3576.00,98.93
3575.00,98.97
3574.00,99.01
3573.00,99.03
3572.00,99.02
3571.00,98.98
3570.00,98.93
3569.00,98.88
3568.00,98.87
3567.00,98.88
3566.00,98.90
3565.00,98.93
3564.00,98.94
3563.00,98.93
3562.00,98.92
3561.00,98.90
3560.00,98.89
3559.00,98.89
3558.00,98.90
3557.00,98.91
3556.00,98.92
3555.00,98.94
3554.00,98.95
3553.00,98.95
3552.00,98.94
3551.00,98.93
3550.00,98.91
3549.00,98.90
3548.00,98.88
3547.00,98.86
3546.00,98.84
3545.00,98.83
3544.00,98.82
3543.00,98.82
3542.00,98.83
3541.00,98.85
3540.00,98.88
3539.00,98.89
3538.00,98.90
3537.00,98.89
3536.00,98.89
3535.00,98.88
3534.00,98.86
3533.00,98.83
3532.00,98.81
3531.00,98.80
3530.00,98.82
3529.00,98.85
3528.00,98.87
3527.00,98.87
3526.00,98.86
3525.00,98.84
3524.00,98.84
3523.00,98.86
3522.00,98.90
3521.00,98.92
3520.00,98.91
3519.00,98.89
3518.00,98.87
3517.00,98.85
3516.00,98.84
3515.00,98.84
3514.00,98.85
3513.00,98.86
3512.00,98.87
3511.00,98.88
3510.00,98.89
3509.00,98.89
3508.00,98.88
3507.00,98.87
3506.00,98.87
3505.00,98.87
3504.00,98.88
3503.00,98.90
3502.00,98.91
3501.00,98.93
3500.00,98.94
3499.00,98.94
3498.00,98.93
3497.00,98.91
3496.00,98.88
3495.00,98.87
3494.00,98.88
3493.00,98.90
3492.00,98.91
3491.00,98.91
3490.00,98.90
3489.00,98.90
3488.00,98.91
3487.00,98.94
3486.00,98.97
3485.00,98.99
3484.00,98.99
3483.00,98.99
3482.00,98.97
3481.00,98.96
3480.00,98.95
3479.00,98.94
3478.00,98.94
3477.00,98.93
3476.00,98.93
3475.00,98.92
3474.00,98.93
3473.00,98.94
3472.00,98.96
3471.00,98.98
3470.00,98.99
3469.00,98.98
3468.00,98.96
3467.00,98.95
3466.00,98.95
3465.00,98.95
3464.00,98.94
3463.00,98.92
3462.00,98.89
3461.00,98.87
3460.00,98.86
3459.00,98.86
3458.00,98.87
3457.00,98.89
3456.00,98.90
3455.00,98.91
3454.00,98.91
3453.00,98.91
3452.00,98.89
3451.00,98.88
3450.00,98.87
3449.00,98.87
3448.00,98.88
3447.00,98.90
3446.00,98.92
3445.00,98.93
3444.00,98.93
3443.00,98.91
3442.00,98.90
3441.00,98.89
3440.00,98.90
3439.00,98.91
3438.00,98.92
3437.00,98.92
3436.00,98.91
3435.00,98.90
3434.00,98.90
3433.00,98.91
3432.00,98.94
3431.00,98.96
3430.00,98.98
3429.00,98.98
3428.00,98.97
3427.00,98.95
3426.00,98.93
3425.00,98.92
3424.00,98.91
3423.00,98.90
3422.00,98.89
3421.00,98.89
3420.00,98.90
3419.00,98.94
3418.00,98.97
3417.00,99.00
3416.00,99.01
3415.00,99.00
3414.00,98.98
3413.00,98.96
3412.00,98.95
3411.00,98.95
3410.00,98.95
3409.00,98.94
3408.00,98.93
3407.00,98.92
3406.00,98.91
3405.00,98.92
3404.00,98.93
3403.00,98.94
3402.00,98.94
3401.00,98.93
3400.00,98.92
3399.00,98.92
3398.00,98.92
3397.00,98.94
3396.00,98.96
3395.00,98.96
3394.00,98.95
3393.00,98.93
3392.00,98.91
3391.00,98.90
3390.00,98.90
3389.00,98.91
3388.00,98.93
3387.00,98.96
3386.00,98.98
3385.00,99.00
3384.00,99.00
3383.00,98.99
3382.00,98.98
3381.00,98.97
3380.00,98.97
3379.00,98.96
3378.00,98.94
3377.00,98.92
3376.00,98.91
3375.00,98.90
3374.00,98.90
3373.00,98.90
3372.00,98.90
3371.00,98.90
3370.00,98.90
3369.00,98.90
3368.00,98.91
3367.00,98.92
3366.00,98.93
3365.00,98.94
3364.00,98.95
3363.00,98.95
3362.00,98.95
3361.00,98.96
3360.00,98.96
3359.00,98.95
3358.00,98.95
3357.00,98.95
3356.00,98.96
3355.00,98.96
3354.00,98.95
3353.00,98.92
3352.00,98.91
3351.00,98.90
3350.00,98.89
3349.00,98.89
3348.00,98.89
3347.00,98.89
3346.00,98.89
3345.00,98.90
3344.00,98.92
3343.00,98.95
3342.00,98.97
3341.00,98.98
3340.00,98.97
3339.00,98.95
3338.00,98.94
3337.00,98.93
3336.00,98.93
3335.00,98.93
3334.00,98.93
3333.00,98.93
3332.00,98.93
3331.00,98.93
3330.00,98.93
3329.00,98.92
3328.00,98.91
3327.00,98.91
3326.00,98.92
3325.00,98.93
3324.00,98.94
3323.00,98.94
3322.00,98.94
3321.00,98.93
3320.00,98.93
3319.00,98.93
3318.00,98.94
3317.00,98.96
3316.00,98.96
3315.00,98.95
3314.00,98.94
3313.00,98.92
3312.00,98.91
3311.00,98.91
3310.00,98.92
3309.00,98.93
3308.00,98.93
3307.00,98.92
3306.00,98.90
3305.00,98.89
3304.00,98.89
3303.00,98.91
3302.00,98.92
3301.00,98.93
3300.00,98.92
3299.00,98.91
3298.00,98.91
3297.00,98.91
3296.00,98.90
3295.00,98.89
3294.00,98.87
3293.00,98.87
3292.00,98.89
3291.00,98.91
3290.00,98.92
3289.00,98.92
3288.00,98.91
3287.00,98.89
3286.00,98.88
3285.00,98.87
3284.00,98.87
3283.00,98.87
3282.00,98.86
3281.00,98.86
3280.00,98.86
3279.00,98.86
3278.00,98.86
3277.00,98.86
3276.00,98.86
3275.00,98.85
3274.00,98.85
3273.00,98.85
3272.00,98.85
3271.00,98.85
3270.00,98.86
3269.00,98.86
3268.00,98.86
3267.00,98.87
3266.00,98.87
3265.00,98.86
3264.00,98.86
3263.00,98.86
3262.00,98.86
3261.00,98.85
3260.00,98.84
3259.00,98.84
3258.00,98.85
3257.00,98.87
3256.00,98.88
3255.00,98.87
3254.00,98.85
3253.00,98.83
3252.00,98.81
3251.00,98.81
3250.00,98.80
3249.00,98.81
3248.00,98.81
3247.00,98.82
3246.00,98.82
3245.00,98.82
3244.00,98.82
3243.00,98.84
3242.00,98.85
3241.00,98.87
3240.00,98.88
3239.00,98.88
3238.00,98.89
3237.00,98.88
3236.00,98.87
3235.00,98.85
3234.00,98.83
3233.00,98.82
3232.00,98.81
3231.00,98.82
3230.00,98.83
3229.00,98.83
3228.00,98.84
3227.00,98.83
3226.00,98.83
3225.00,98.82
3224.00,98.81
3223.00,98.80
3222.00,98.80
3221.00,98.80
3220.00,98.81
3219.00,98.82
3218.00,98.82
3217.00,98.82
3216.00,98.81
3215.00,98.82
3214.00,98.83
3213.00,98.84
3212.00,98.83
3211.00,98.81
3210.00,98.80
3209.00,98.80
3208.00,98.81
3207.00,98.83
3206.00,98.85
3205.00,98.86
3204.00,98.87
3203.00,98.88
3202.00,98.88
3201.00,98.88
3200.00,98.87
3199.00,98.86
3198.00,98.86
3197.00,98.85
3196.00,98.84
3195.00,98.84
3194.00,98.84
3193.00,98.85
3192.00,98.87
3191.00,98.89
3190.00,98.90
3189.00,98.91
3188.00,98.91
3187.00,98.91
3186.00,98.90
3185.00,98.89
3184.00,98.88
3183.00,98.86
3182.00,98.84
3181.00,98.82
3180.00,98.81
3179.00,98.81
3178.00,98.81
3177.00,98.82
3176.00,98.83
3175.00,98.85
3174.00,98.87
3173.00,98.89
3172.00,98.89
3171.00,98.88
3170.00,98.87
3169.00,98.86
3168.00,98.84
3167.00,98.83
3166.00,98.82
3165.00,98.82
3164.00,98.82
3163.00,98.83
3162.00,98.84
3161.00,98.83
3160.00,98.84
3159.00,98.85
3158.00,98.86
3157.00,98.87
3156.00,98.87
3155.00,98.87
3154.00,98.87
3153.00,98.87
3152.00,98.87
3151.00,98.87
3150.00,98.86
3149.00,98.87
3148.00,98.88
3147.00,98.88
3146.00,98.87
3145.00,98.86
3144.00,98.85
3143.00,98.84
3142.00,98.85
3141.00,98.86
3140.00,98.87
3139.00,98.87
3138.00,98.85
3137.00,98.84
3136.00,98.84
3135.00,98.84
3134.00,98.85
3133.00,98.85
3132.00,98.85
3131.00,98.84
3130.00,98.84
3129.00,98.83
3128.00,98.84
3127.00,98.84
3126.00,98.83
3125.00,98.83
3124.00,98.84
3123.00,98.85
3122.00,98.86
3121.00,98.86
3120.00,98.86
3119.00,98.85
3118.00,98.83
3117.00,98.81
3116.00,98.82
3115.00,98.85
3114.00,98.88
3113.00,98.91
3112.00,98.92
3111.00,98.91
3110.00,98.89
3109.00,98.86
3108.00,98.84
3107.00,98.83
3106.00,98.82
3105.00,98.83
3104.00,98.83
3103.00,98.83
3102.00,98.83
3101.00,98.82
3100.00,98.81
3099.00,98.79
3098.00,98.78
3097.00,98.78
3096.00,98.79
3095.00,98.80
3094.00,98.82
3093.00,98.83
3092.00,98.84
3091.00,98.84
3090.00,98.85
3089.00,98.85
3088.00,98.86
3087.00,98.86
3086.00,98.86
3085.00,98.85
3084.00,98.84
3083.00,98.84
3082.00,98.85
3081.00,98.87
3080.00,98.89
3079.00,98.90
3078.00,98.89
3077.00,98.86
3076.00,98.83
3075.00,98.81
3074.00,98.81
3073.00,98.81
3072.00,98.81
3071.00,98.79
3070.00,98.78
3069.00,98.76
3068.00,98.75
3067.00,98.75
3066.00,98.76
3065.00,98.77
3064.00,98.77
3063.00,98.78
3062.00,98.79
3061.00,98.79
3060.00,98.79
3059.00,98.79
3058.00,98.78
3057.00,98.78
3056.00,98.78
3055.00,98.78
3054.00,98.78
3053.00,98.77
3052.00,98.77
3051.00,98.77
3050.00,98.76
3049.00,98.75
3048.00,98.74
3047.00,98.73
3046.00,98.74
3045.00,98.74
3044.00,98.74
3043.00,98.74
3042.00,98.74
3041.00,98.74
3040.00,98.75
3039.00,98.74
3038.00,98.73
3037.00,98.72
3036.00,98.71
3035.00,98.71
3034.00,98.70
3033.00,98.70
3032.00,98.69
3031.00,98.69
3030.00,98.69
3029.00,98.69
3028.00,98.70
3027.00,98.71
3026.00,98.73
3025.00,98.73
3024.00,98.72
3023.00,98.70
3022.00,98.68
3021.00,98.67
3020.00,98.66
3019.00,98.65
3018.00,98.64
3017.00,98.63
3016.00,98.63
3015.00,98.62
3014.00,98.61
3013.00,98.60
3012.00,98.58
3011.00,98.57
3010.00,98.56
3009.00,98.56
3008.00,98.55
3007.00,98.55
3006.00,98.56
3005.00,98.55
3004.00,98.54
3003.00,98.52
3002.00,98.50
3001.00,98.49
3000.00,98.49
2999.00,98.48
2998.00,98.47
2997.00,98.45
2996.00,98.43
2995.00,98.43
2994.00,98.43
2993.00,98.43
2992.00,98.43
2991.00,98.42
2990.00,98.41
2989.00,98.40
2988.00,98.39
2987.00,98.38
2986.00,98.37
2985.00,98.36
2984.00,98.35
2983.00,98.34
2982.00,98.33
2981.00,98.31
2980.00,98.31
2979.00,98.31
2978.00,98.32
2977.00,98.33
2976.00,98.33
2975.00,98.32
2974.00,98.29
2973.00,98.25
2972.00,98.22
2971.00,98.20
2970.00,98.20
2969.00,98.20
2968.00,98.20
2967.00,98.19
2966.00,98.19
2965.00,98.20
2964.00,98.19
2963.00,98.16
2962.00,98.11
2961.00,98.06
2960.00,98.02
2959.00,97.99
2958.00,97.96
2957.00,97.94
2956.00,97.91
2955.00,97.89
2954.00,97.86
2953.00,97.84
2952.00,97.81
2951.00,97.79
2950.00,97.77
2949.00,97.76
2948.00,97.75
2947.00,97.74
2946.00,97.72
2945.00,97.67
2944.00,97.61
2943.00,97.57
2942.00,97.55
2941.00,97.54
2940.00,97.54
2939.00,97.53
2938.00,97.52
2937.00,97.51
2936.00,97.50
2935.00,97.49
2934.00,97.49
2933.00,97.49
2932.00,97.50
2931.00,97.49
2930.00,97.47
2929.00,97.45
2928.00,97.44
2927.00,97.44
2926.00,97.44
2925.00,97.45
2924.00,97.46
2923.00,97.48
2922.00,97.49
2921.00,97.51
2920.00,97.52
2919.00,97.53
2918.00,97.55
2917.00,97.59
2916.00,97.64
2915.00,97.70
2914.00,97.75
2913.00,97.80
2912.00,97.84
2911.00,97.88
2910.00,97.91
2909.00,97.94
2908.00,97.96
2907.00,97.98
2906.00,98.01
2905.00,98.03
2904.00,98.06
2903.00,98.10
2902.00,98.13
2901.00,98.16
2900.00,98.19
2899.00,98.22
2898.00,98.24
2897.00,98.25
2896.00,98.24
2895.00,98.23
2894.00,98.23
2893.00,98.24
2892.00,98.26
2891.00,98.28
2890.00,98.29
2889.00,98.29
2888.00,98.29
2887.00,98.29
2886.00,98.30
2885.00,98.32
2884.00,98.34
2883.00,98.36
2882.00,98.36
2881.00,98.34
2880.00,98.31
2879.00,98.29
2878.00,98.27
2877.00,98.27
2876.00,98.28
2875.00,98.29
2874.00,98.30
2873.00,98.30
2872.00,98.30
2871.00,98.31
2870.00,98.31
2869.00,98.32
2868.00,98.32
2867.00,98.32
2866.00,98.31
2865.00,98.29
2864.00,98.28
2863.00,98.28
2862.00,98.29
2861.00,98.31
2860.00,98.32
2859.00,98.32
2858.00,98.31
2857.00,98.30
2856.00,98.31
2855.00,98.32
2854.00,98.32
2853.00,98.32
2852.00,98.31
2851.00,98.30
2850.00,98.31
2849.00,98.33
2848.00,98.36
2847.00,98.39
2846.00,98.41
2845.00,98.43
2844.00,98.44
2843.00,98.45
2842.00,98.46
2841.00,98.48
2840.00,98.51
2839.00,98.54
2838.00,98.56
2837.00,98.56
2836.00,98.57
2835.00,98.58
2834.00,98.60
2833.00,98.61
2832.00,98.62
2831.00,98.62
2830.00,98.62
2829.00,98.62
2828.00,98.63
2827.00,98.64
2826.00,98.65
2825.00,98.66
2824.00,98.66
2823.00,98.67
2822.00,98.67
2821.00,98.66
2820.00,98.65
2819.00,98.65
2818.00,98.65
2817.00,98.65
2816.00,98.65
2815.00,98.63
2814.00,98.62
2813.00,98.60
2812.00,98.60
2811.00,98.61
2810.00,98.62
2809.00,98.62
2808.00,98.63
2807.00,98.64
2806.00,98.65
2805.00,98.65
2804.00,98.65
2803.00,98.63
2802.00,98.62
2801.00,98.62
2800.00,98.62
2799.00,98.64
2798.00,98.66
2797.00,98.67
2796.00,98.68
2795.00,98.67
2794.00,98.65
2793.00,98.64
2792.00,98.64
2791.00,98.66
2790.00,98.69
2789.00,98.70
2788.00,98.71
2787.00,98.70
2786.00,98.69
2785.00,98.68
2784.00,98.67
2783.00,98.66
2782.00,98.67
2781.00,98.69
2780.00,98.71
2779.00,98.73
2778.00,98.73
2777.00,98.72
2776.00,98.70
2775.00,98.69
2774.00,98.68
2773.00,98.68
2772.00,98.68
2771.00,98.69
2770.00,98.71
2769.00,98.72
2768.00,98.73
2767.00,98.73
2766.00,98.71
2765.00,98.69
2764.00,98.68
2763.00,98.68
2762.00,98.70
2761.00,98.72
2760.00,98.74
2759.00,98.74
2758.00,98.73
2757.00,98.72
2756.00,98.71
2755.00,98.69
2754.00,98.68
2753.00,98.67
2752.00,98.67
2751.00,98.68
2750.00,98.69
2749.00,98.70
2748.00,98.70
2747.00,98.69
2746.00,98.68
2745.00,98.68
2744.00,98.68
2743.00,98.69
2742.00,98.69
2741.00,98.68
2740.00,98.67
2739.00,98.65
2738.00,98.63
2737.00,98.62
2736.00,98.62
2735.00,98.63
2734.00,98.63
2733.00,98.63
2732.00,98.63
2731.00,98.63
2730.00,98.64
2729.00,98.65
2728.00,98.65
2727.00,98.63
2726.00,98.63
2725.00,98.63
2724.00,98.64
2723.00,98.66
2722.00,98.67
2721.00,98.68
2720.00,98.68
2719.00,98.68
2718.00,98.67
2717.00,98.65
2716.00,98.64
2715.00,98.63
2714.00,98.64
2713.00,98.65
2712.00,98.67
2711.00,98.68
2710.00,98.69
2709.00,98.69
2708.00,98.68
2707.00,98.67
2706.00,98.67
2705.00,98.67
2704.00,98.67
2703.00,98.66
2702.00,98.65
2701.00,98.64
2700.00,98.64
2699.00,98.64
2698.00,98.65
2697.00,98.64
2696.00,98.63
2695.00,98.62
2694.00,98.61
2693.00,98.61
2692.00,98.62
2691.00,98.62
2690.00,98.62
2689.00,98.62
2688.00,98.62
2687.00,98.62
2686.00,98.62
2685.00,98.62
2684.00,98.62
2683.00,98.62
2682.00,98.61
2681.00,98.60
2680.00,98.60
2679.00,98.60
2678.00,98.60
2677.00,98.61
2676.00,98.61
2675.00,98.59
2674.00,98.58
2673.00,98.58
2672.00,98.58
2671.00,98.59
2670.00,98.59
2669.00,98.59
2668.00,98.58
2667.00,98.57
2666.00,98.58
2665.00,98.59
2664.00,98.60
2663.00,98.59
2662.00,98.58
2661.00,98.57
2660.00,98.56
2659.00,98.56
2658.00,98.55
2657.00,98.53
2656.00,98.51
2655.00,98.48
2654.00,98.46
2653.00,98.45
2652.00,98.44
2651.00,98.44
2650.00,98.43
2649.00,98.42
2648.00,98.41
2647.00,98.40
2646.00,98.39
2645.00,98.39
2644.00,98.39
2643.00,98.39
2642.00,98.39
2641.00,98.37
2640.00,98.36
2639.00,98.34
2638.00,98.33
2637.00,98.32
2636.00,98.31
2635.00,98.29
2634.00,98.28
2633.00,98.26
2632.00,98.24
2631.00,98.24
2630.00,98.25
2629.00,98.26
2628.00,98.26
2627.00,98.26
2626.00,98.24
2625.00,98.23
2624.00,98.23
2623.00,98.24
2622.00,98.24
2621.00,98.23
2620.00,98.22
2619.00,98.21
2618.00,98.20
2617.00,98.19
2616.00,98.18
2615.00,98.17
2614.00,98.18
2613.00,98.20
2612.00,98.20
2611.00,98.18
2610.00,98.16
2609.00,98.14
2608.00,98.14
2607.00,98.13
2606.00,98.12
2605.00,98.10
2604.00,98.09
2603.00,98.09
2602.00,98.09
2601.00,98.09
2600.00,98.09
2599.00,98.08
2598.00,98.08
2597.00,98.07
2596.00,98.06
2595.00,98.04
2594.00,98.02
2593.00,98.01
2592.00,98.00
2591.00,98.00
2590.00,97.99
2589.00,97.99
2588.00,97.99
2587.00,97.98
2586.00,97.97
2585.00,97.97
2584.00,97.98
2583.00,97.99
2582.00,97.99
2581.00,97.98
2580.00,97.97
2579.00,97.97
2578.00,97.97
2577.00,97.96
2576.00,97.93
2575.00,97.90
2574.00,97.87
2573.00,97.86
2572.00,97.87
2571.00,97.88
2570.00,97.89
2569.00,97.89
2568.00,97.89
2567.00,97.90
2566.00,97.91
2565.00,97.92
2564.00,97.92
2563.00,97.92
2562.00,97.91
2561.00,97.90
2560.00,97.89
2559.00,97.88
2558.00,97.87
2557.00,97.87
2556.00,97.88
2555.00,97.90
2554.00,97.90
2553.00,97.89
2552.00,97.87
2551.00,97.85
2550.00,97.83
2549.00,97.83
2548.00,97.84
2547.00,97.85
2546.00,97.86
2545.00,97.85
2544.00,97.84
2543.00,97.82
2542.00,97.80
2541.00,97.78
2540.00,97.78
2539.00,97.78
2538.00,97.78
2537.00,97.77
2536.00,97.76
2535.00,97.75
2534.00,97.75
2533.00,97.76
2532.00,97.78
2531.00,97.80
2530.00,97.83
2529.00,97.84
2528.00,97.84
2527.00,97.83
2526.00,97.81
2525.00,97.80
2524.00,97.81
2523.00,97.83
2522.00,97.85
2521.00,97.86
2520.00,97.86
2519.00,97.85
2518.00,97.83
2517.00,97.82
2516.00,97.81
2515.00,97.79
2514.00,97.77
2513.00,97.76
2512.00,97.76
2511.00,97.76
2510.00,97.77
2509.00,97.79
2508.00,97.81
2507.00,97.82
2506.00,97.83
2505.00,97.82
2504.00,97.82
2503.00,97.81
2502.00,97.82
2501.00,97.83
2500.00,97.84
2499.00,97.83
2498.00,97.82
2497.00,97.81
2496.00,97.80
2495.00,97.81
2494.00,97.82
2493.00,97.82
2492.00,97.80
2491.00,97.78
2490.00,97.78
2489.00,97.80
2488.00,97.83
2487.00,97.85
2486.00,97.85
2485.00,97.84
2484.00,97.82
2483.00,97.82
2482.00,97.81
2481.00,97.80
2480.00,97.78
2479.00,97.75
2478.00,97.74
2477.00,97.75
2476.00,97.78
2475.00,97.80
2474.00,97.80
2473.00,97.79
2472.00,97.79
2471.00,97.79
2470.00,97.78
2469.00,97.77
2468.00,97.76
2467.00,97.75
2466.00,97.75
2465.00,97.75
2464.00,97.76
2463.00,97.78
2462.00,97.80
2461.00,97.81
2460.00,97.81
2459.00,97.80
2458.00,97.79
2457.00,97.77
2456.00,97.77
2455.00,97.78
2454.00,97.80
2453.00,97.81
2452.00,97.81
2451.00,97.79
2450.00,97.78
2449.00,97.77
2448.00,97.76
2447.00,97.76
2446.00,97.75
2445.00,97.75
2444.00,97.77
2443.00,97.79
2442.00,97.81
2441.00,97.83
2440.00,97.84
2439.00,97.84
2438.00,97.83
2437.00,97.82
2436.00,97.82
2435.00,97.82
2434.00,97.82
2433.00,97.80
2432.00,97.77
2431.00,97.74
2430.00,97.73
2429.00,97.74
2428.00,97.77
2427.00,97.80
2426.00,97.83
2425.00,97.84
2424.00,97.84
2423.00,97.84
2422.00,97.83
2421.00,97.82
2420.00,97.82
2419.00,97.82
2418.00,97.84
2417.00,97.86
2416.00,97.87
2415.00,97.88
2414.00,97.87
2413.00,97.86
2412.00,97.86
2411.00,97.85
2410.00,97.85
2409.00,97.84
2408.00,97.85
2407.00,97.87
2406.00,97.88
2405.00,97.90
2404.00,97.92
2403.00,97.94
2402.00,97.95
2401.00,97.95
2400.00,97.94
2399.00,97.95
2398.00,97.96
2397.00,97.96
2396.00,97.96
2395.00,97.97
2394.00,97.98
2393.00,98.00
2392.00,98.01
2391.00,98.01
2390.00,98.00
2389.00,98.00
2388.00,98.00
2387.00,98.03
2386.00,98.06
2385.00,98.08
2384.00,98.11
2383.00,98.12
2382.00,98.12
2381.00,98.13
2380.00,98.13
2379.00,98.14
2378.00,98.14
2377.00,98.15
2376.00,98.17
2375.00,98.19
2374.00,98.21
2373.00,98.22
2372.00,98.21
2371.00,98.20
2370.00,98.18
2369.00,98.16
2368.00,98.13
2367.00,98.10
2366.00,98.11
2365.00,98.13
2364.00,98.19
2363.00,98.25
2362.00,98.30
2361.00,98.31
2360.00,98.29
2359.00,98.25
2358.00,98.21
2357.00,98.18
2356.00,98.17
2355.00,98.18
2354.00,98.18
2353.00,98.17
2352.00,98.18
2351.00,98.20
2350.00,98.24
2349.00,98.28
2348.00,98.30
2347.00,98.30
2346.00,98.28
2345.00,98.24
2344.00,98.20
2343.00,98.18
2342.00,98.18
2341.00,98.20
2340.00,98.24
2339.00,98.27
2338.00,98.26
2337.00,98.20
2336.00,98.13
2335.00,98.08
2334.00,98.08
2333.00,98.09
2332.00,98.10
2331.00,98.09
2330.00,98.08
2329.00,98.07
2328.00,98.05
2327.00,98.02
2326.00,97.99
2325.00,97.95
2324.00,97.91
2323.00,97.88
2322.00,97.86
2321.00,97.84
2320.00,97.81
2319.00,97.80
2318.00,97.78
2317.00,97.77
2316.00,97.77
2315.00,97.77
2314.00,97.79
2313.00,97.80
2312.00,97.80
2311.00,97.79
2310.00,97.75
2309.00,97.72
2308.00,97.69
2307.00,97.67
2306.00,97.65
2305.00,97.63
2304.00,97.62
2303.00,97.60
2302.00,97.58
2301.00,97.54
2300.00,97.52
2299.00,97.51
2298.00,97.52
2297.00,97.54
2296.00,97.55
2295.00,97.55
2294.00,97.54
2293.00,97.52
2292.00,97.49
2291.00,97.47
2290.00,97.45
2289.00,97.44
2288.00,97.42
2287.00,97.40
2286.00,97.37
2285.00,97.33
2284.00,97.30
2283.00,97.28
2282.00,97.28
2281.00,97.28
2280.00,97.26
2279.00,97.22
2278.00,97.18
2277.00,97.14
2276.00,97.11
2275.00,97.10
2274.00,97.09
2273.00,97.09
2272.00,97.10
2271.00,97.10
2270.00,97.09
2269.00,97.05
2268.00,97.01
2267.00,96.96
2266.00,96.94
2265.00,96.93
2264.00,96.90
2263.00,96.87
2262.00,96.83
2261.00,96.79
2260.00,96.76
2259.00,96.71
2258.00,96.63
2257.00,96.53
2256.00,96.41
2255.00,96.28
2254.00,96.13
2253.00,95.97
2252.00,95.79
2251.00,95.59
2250.00,95.36
2249.00,95.11
2248.00,94.85
2247.00,94.58
2246.00,94.33
2245.00,94.10
2244.00,93.91
2243.00,93.78
2242.00,93.72
2241.00,93.74
2240.00,93.82
2239.00,93.97
2238.00,94.19
2237.00,94.47
2236.00,94.77
2235.00,95.03
2234.00,95.24
2233.00,95.42
2232.00,95.59
2231.00,95.74
2230.00,95.85
2229.00,95.90
2228.00,95.92
2227.00,95.92
2226.00,95.95
2225.00,96.00
2224.00,96.04
2223.00,96.05
2222.00,96.06
2221.00,96.08
2220.00,96.12
2219.00,96.14
2218.00,96.15
2217.00,96.14
2216.00,96.12
2215.00,96.11
2214.00,96.10
2213.00,96.10
2212.00,96.10
2211.00,96.08
2210.00,96.05
2209.00,96.03
2208.00,96.02
2207.00,96.02
2206.00,96.03
2205.00,96.04
2204.00,96.05
2203.00,96.00
2202.00,95.92
2201.00,95.84
2200.00,95.80
2199.00,95.81
2198.00,95.83
2197.00,95.85
2196.00,95.84
2195.00,95.82
2194.00,95.82
2193.00,95.82
2192.00,95.81
2191.00,95.75
2190.00,95.66
2189.00,95.57
2188.00,95.51
2187.00,95.49
2186.00,95.50
2185.00,95.53
2184.00,95.57
2183.00,95.60
2182.00,95.61
2181.00,95.58
2180.00,95.53
2179.00,95.49
2178.00,95.47
2177.00,95.49
2176.00,95.55
2175.00,95.61
2174.00,95.67
2173.00,95.70
2172.00,95.70
2171.00,95.64
2170.00,95.54
2169.00,95.42
2168.00,95.32
2167.00,95.25
2166.00,95.21
2165.00,95.17
2164.00,95.11
2163.00,95.01
2162.00,94.93
2161.00,94.97
2160.00,95.14
2159.00,95.35
2158.00,95.51
2157.00,95.61
2156.00,95.70
2155.00,95.80
2154.00,95.91
2153.00,95.98
2152.00,95.98
2151.00,95.93
2150.00,95.89
2149.00,95.89
2148.00,95.91
2147.00,95.94
2146.00,95.96
2145.00,96.01
2144.00,96.08
2143.00,96.15
2142.00,96.20
2141.00,96.23
2140.00,96.26
2139.00,96.28
2138.00,96.31
2137.00,96.36
2136.00,96.43
2135.00,96.52
2134.00,96.62
2133.00,96.69
2132.00,96.74
2131.00,96.75
2130.00,96.74
2129.00,96.74
2128.00,96.77
2127.00,96.80
2126.00,96.83
2125.00,96.83
2124.00,96.81
2123.00,96.78
2122.00,96.76
2121.00,96.76
2120.00,96.78
2119.00,96.81
2118.00,96.83
2117.00,96.82
2116.00,96.81
2115.00,96.81
2114.00,96.81
2113.00,96.81
2112.00,96.80
2111.00,96.78
2110.00,96.75
2109.00,96.73
2108.00,96.72
2107.00,96.71
2106.00,96.70
2105.00,96.68
2104.00,96.66
2103.00,96.64
2102.00,96.63
2101.00,96.62
2100.00,96.63
2099.00,96.66
2098.00,96.69
2097.00,96.71
2096.00,96.73
2095.00,96.75
2094.00,96.77
2093.00,96.79
2092.00,96.80
2091.00,96.78
2090.00,96.74
2089.00,96.68
2088.00,96.64
2087.00,96.63
2086.00,96.64
2085.00,96.66
2084.00,96.66
2083.00,96.64
2082.00,96.61
2081.00,96.58
2080.00,96.57
2079.00,96.57
2078.00,96.58
2077.00,96.57
2076.00,96.53
2075.00,96.48
2074.00,96.44
2073.00,96.44
2072.00,96.47
2071.00,96.49
2070.00,96.50
2069.00,96.50
2068.00,96.49
2067.00,96.48
2066.00,96.45
2065.00,96.42
2064.00,96.38
2063.00,96.34
2062.00,96.32
2061.00,96.31
2060.00,96.31
2059.00,96.28
2058.00,96.25
2057.00,96.22
2056.00,96.22
2055.00,96.25
2054.00,96.25
2053.00,96.20
2052.00,96.11
2051.00,96.00
2050.00,95.93
2049.00,95.90
2048.00,95.89
2047.00,95.85
2046.00,95.79
2045.00,95.71
2044.00,95.64
2043.00,95.60
2042.00,95.58
2041.00,95.59
2040.00,95.60
2039.00,95.60
2038.00,95.57
2037.00,95.53
2036.00,95.52
2035.00,95.52
2034.00,95.51
2033.00,95.50
2032.00,95.50
2031.00,95.54
2030.00,95.59
2029.00,95.62
2028.00,95.61
2027.00,95.56
2026.00,95.49
2025.00,95.42
2024.00,95.35
2023.00,95.29
2022.00,95.26
2021.00,95.26
2020.00,95.28
2019.00,95.32
2018.00,95.39
2017.00,95.47
2016.00,95.55
2015.00,95.59
2014.00,95.61
2013.00,95.63
2012.00,95.68
2011.00,95.73
2010.00,95.75
2009.00,95.73
2008.00,95.70
2007.00,95.68
2006.00,95.68
2005.00,95.71
2004.00,95.75
2003.00,95.80
2002.00,95.83
2001.00,95.83
2000.00,95.81
1999.00,95.78
1998.00,95.75
1997.00,95.75
1996.00,95.77
1995.00,95.80
1994.00,95.81
1993.00,95.79
1992.00,95.75
1991.00,95.72
1990.00,95.71
1989.00,95.73
1988.00,95.75
1987.00,95.77
1986.00,95.79
1985.00,95.79
1984.00,95.74
1983.00,95.66
1982.00,95.58
1981.00,95.52
1980.00,95.50
1979.00,95.49
1978.00,95.48
1977.00,95.47
1976.00,95.49
1975.00,95.53
1974.00,95.58
1973.00,95.60
1972.00,95.62
1971.00,95.67
1970.00,95.75
1969.00,95.83
1968.00,95.89
1967.00,95.90
1966.00,95.91
1965.00,95.94
1964.00,95.96
1963.00,95.98
1962.00,96.01
1961.00,96.07
1960.00,96.14
1959.00,96.21
1958.00,96.25
1957.00,96.27
1956.00,96.28
1955.00,96.27
1954.00,96.27
1953.00,96.27
1952.00,96.27
1951.00,96.29
1950.00,96.33
1949.00,96.38
1948.00,96.44
1947.00,96.49
1946.00,96.54
1945.00,96.57
1944.00,96.58
1943.00,96.57
1942.00,96.56
1941.00,96.56
1940.00,96.55
1939.00,96.55
1938.00,96.56
1937.00,96.60
1936.00,96.65
1935.00,96.70
1934.00,96.72
1933.00,96.71
1932.00,96.70
1931.00,96.69
1930.00,96.69
1929.00,96.69
1928.00,96.72
1927.00,96.75
1926.00,96.79
1925.00,96.81
1924.00,96.83
1923.00,96.85
1922.00,96.88
1921.00,96.90
1920.00,96.91
1919.00,96.90
1918.00,96.88
1917.00,96.85
1916.00,96.84
1915.00,96.85
1914.00,96.88
1913.00,96.91
1912.00,96.94
1911.00,96.98
1910.00,97.02
1909.00,97.05
1908.00,97.07
1907.00,97.07
1906.00,97.08
1905.00,97.10
1904.00,97.13
1903.00,97.15
1902.00,97.16
1901.00,97.15
1900.00,97.14
1899.00,97.12
1898.00,97.10
1897.00,97.08
1896.00,97.08
1895.00,97.08
1894.00,97.09
1893.00,97.10
1892.00,97.12
1891.00,97.14
1890.00,97.16
1889.00,97.18
1888.00,97.20
1887.00,97.20
1886.00,97.20
1885.00,97.18
1884.00,97.16
1883.00,97.15
1882.00,97.14
1881.00,97.14
1880.00,97.15
1879.00,97.17
1878.00,97.18
1877.00,97.20
1876.00,97.20
1875.00,97.20
1874.00,97.20
1873.00,97.20
1872.00,97.20
1871.00,97.20
1870.00,97.21
1869.00,97.22
1868.00,97.25
1867.00,97.28
1866.00,97.29
1865.00,97.30
1864.00,97.30
1863.00,97.29
1862.00,97.29
1861.00,97.28
1860.00,97.27
1859.00,97.28
1858.00,97.30
1857.00,97.33
1856.00,97.34
1855.00,97.34
1854.00,97.33
1853.00,97.33
1852.00,97.34
1851.00,97.33
1850.00,97.32
1849.00,97.30
1848.00,97.29
1847.00,97.31
1846.00,97.35
1845.00,97.38
1844.00,97.40
1843.00,97.41
1842.00,97.41
1841.00,97.41
1840.00,97.42
1839.00,97.43
1838.00,97.44
1837.00,97.46
1836.00,97.46
1835.00,97.44
1834.00,97.42
1833.00,97.39
1832.00,97.38
1831.00,97.38
1830.00,97.41
1829.00,97.44
1828.00,97.46
1827.00,97.47
1826.00,97.46
1825.00,97.46
1824.00,97.45
1823.00,97.44
1822.00,97.44
1821.00,97.44
1820.00,97.47
1819.00,97.51
1818.00,97.54
1817.00,97.55
1816.00,97.54
1815.00,97.51
1814.00,97.49
1813.00,97.48
1812.00,97.49
1811.00,97.51
1810.00,97.53
1809.00,97.54
1808.00,97.54
1807.00,97.54
1806.00,97.54
1805.00,97.54
1804.00,97.55
1803.00,97.55
1802.00,97.55
1801.00,97.55
1800.00,97.57
1799.00,97.58
1798.00,97.60
1797.00,97.61
1796.00,97.61
1795.00,97.61
1794.00,97.61
1793.00,97.62
1792.00,97.61
1791.00,97.60
1790.00,97.60
1789.00,97.59
1788.00,97.59
1787.00,97.59
1786.00,97.58
1785.00,97.57
1784.00,97.56
1783.00,97.56
1782.00,97.57
1781.00,97.58
1780.00,97.59
1779.00,97.59
1778.00,97.59
1777.00,97.60
1776.00,97.60
1775.00,97.61
1774.00,97.62
1773.00,97.63
1772.00,97.63
1771.00,97.63
1770.00,97.63
1769.00,97.62
1768.00,97.60
1767.00,97.59
1766.00,97.58
1765.00,97.58
1764.00,97.58
1763.00,97.57
1762.00,97.56
1761.00,97.55
1760.00,97.54
1759.00,97.54
1758.00,97.53
1757.00,97.53
1756.00,97.52
1755.00,97.51
1754.00,97.48
1753.00,97.46
1752.00,97.43
1751.00,97.38
1750.00,97.31
1749.00,97.23
1748.00,97.15
1747.00,97.06
1746.00,96.97
1745.00,96.86
1744.00,96.71
1743.00,96.54
1742.00,96.34
1741.00,96.13
1740.00,95.91
1739.00,95.68
1738.00,95.47
1737.00,95.29
1736.00,95.11
1735.00,94.85
1734.00,94.51
1733.00,94.23
1732.00,94.03
1731.00,93.89
1730.00,93.74
1729.00,93.59
1728.00,93.47
1727.00,93.36
1726.00,93.29
1725.00,93.24
1724.00,93.23
1723.00,93.24
1722.00,93.28
1721.00,93.36
1720.00,93.47
1719.00,93.63
1718.00,93.81
1717.00,94.00
1716.00,94.18
1715.00,94.36
1714.00,94.54
1713.00,94.73
1712.00,94.91
1711.00,95.10
1710.00,95.28
1709.00,95.44
1708.00,95.58
1707.00,95.72
1706.00,95.88
1705.00,96.02
1704.00,96.11
1703.00,96.18
1702.00,96.25
1701.00,96.35
1700.00,96.45
1699.00,96.54
1698.00,96.61
1697.00,96.65
1696.00,96.67
1695.00,96.69
1694.00,96.70
1693.00,96.72
1692.00,96.75
1691.00,96.78
1690.00,96.81
1689.00,96.83
1688.00,96.84
1687.00,96.86
1686.00,96.88
1685.00,96.91
1684.00,96.92
1683.00,96.92
1682.00,96.94
1681.00,96.95
1680.00,96.97
1679.00,96.98
1678.00,96.98
1677.00,96.97
1676.00,96.96
1675.00,96.96
1674.00,96.97
1673.00,96.97
1672.00,96.97
1671.00,96.97
1670.00,96.98
1669.00,96.99
1668.00,97.01
1667.00,97.03
1666.00,97.03
1665.00,97.02
1664.00,97.00
1663.00,96.99
1662.00,96.98
1661.00,96.98
1660.00,96.99
1659.00,96.98
1658.00,96.97
1657.00,96.94
1656.00,96.92
1655.00,96.91
1654.00,96.92
1653.00,96.92
1652.00,96.92
1651.00,96.92
1650.00,96.91
1649.00,96.91
1648.00,96.92
1647.00,96.92
1646.00,96.92
1645.00,96.91
1644.00,96.88
1643.00,96.86
1642.00,96.83
1641.00,96.82
1640.00,96.82
1639.00,96.82
1638.00,96.82
1637.00,96.81
1636.00,96.78
1635.00,96.75
1634.00,96.74
1633.00,96.74
1632.00,96.73
1631.00,96.72
1630.00,96.70
1629.00,96.68
1628.00,96.67
1627.00,96.66
1626.00,96.66
1625.00,96.66
1624.00,96.67
1623.00,96.68
1622.00,96.69
1621.00,96.70
1620.00,96.70
1619.00,96.71
1618.00,96.71
1617.00,96.72
1616.00,96.74
1615.00,96.76
1614.00,96.78
1613.00,96.79
1612.00,96.81
1611.00,96.83
1610.00,96.85
1609.00,96.85
1608.00,96.85
1607.00,96.85
1606.00,96.86
1605.00,96.88
1604.00,96.90
1603.00,96.92
1602.00,96.93
1601.00,96.94
1600.00,96.96
1599.00,96.98
1598.00,97.01
1597.00,97.03
1596.00,97.03
1595.00,97.03
1594.00,97.03
1593.00,97.04
1592.00,97.04
1591.00,97.06
1590.00,97.06
1589.00,97.06
1588.00,97.06
1587.00,97.06
1586.00,97.07
1585.00,97.08
1584.00,97.08
1583.00,97.08
1582.00,97.08
1581.00,97.09
1580.00,97.10
1579.00,97.10
1578.00,97.10
1577.00,97.09
1576.00,97.08
1575.00,97.07
1574.00,97.09
1573.00,97.10
1572.00,97.12
1571.00,97.15
1570.00,97.17
1569.00,97.17
1568.00,97.15
1567.00,97.13
1566.00,97.11
1565.00,97.12
1564.00,97.14
1563.00,97.15
1562.00,97.15
1561.00,97.14
1560.00,97.14
1559.00,97.14
1558.00,97.15
1557.00,97.16
1556.00,97.16
1555.00,97.14
1554.00,97.13
1553.00,97.12
1552.00,97.11
1551.00,97.11
1550.00,97.10
1549.00,97.08
1548.00,97.06
1547.00,97.06
1546.00,97.07
1545.00,97.08
1544.00,97.09
1543.00,97.08
1542.00,97.08
1541.00,97.08
1540.00,97.07
1539.00,97.06
1538.00,97.07
1537.00,97.07
1536.00,97.07
1535.00,97.08
1534.00,97.11
1533.00,97.14
1532.00,97.15
1531.00,97.16
1530.00,97.17
1529.00,97.18
1528.00,97.20
1527.00,97.21
1526.00,97.22
1525.00,97.21
1524.00,97.20
1523.00,97.18
1522.00,97.18
1521.00,97.18
1520.00,97.18
1519.00,97.19
1518.00,97.21
1517.00,97.22
1516.00,97.22
1515.00,97.22
1514.00,97.22
1513.00,97.21
1512.00,97.20
1511.00,97.19
1510.00,97.19
1509.00,97.20
1508.00,97.23
1507.00,97.24
1506.00,97.24
1505.00,97.24
1504.00,97.25
1503.00,97.25
1502.00,97.26
1501.00,97.26
1500.00,97.25
1499.00,97.23
1498.00,97.22
1497.00,97.21
1496.00,97.20
1495.00,97.19
1494.00,97.17
1493.00,97.15
1492.00,97.14
1491.00,97.14
1490.00,97.14
1489.00,97.13
1488.00,97.11
1487.00,97.08
1486.00,97.04
1485.00,96.99
1484.00,96.94
1483.00,96.89
1482.00,96.84
1481.00,96.78
1480.00,96.72
1479.00,96.66
1478.00,96.61
1477.00,96.55
1476.00,96.48
1475.00,96.42
1474.00,96.37
1473.00,96.33
1472.00,96.29
1471.00,96.27
1470.00,96.26
1469.00,96.24
1468.00,96.20
1467.00,96.15
1466.00,96.06
1465.00,95.91
1464.00,95.72
1463.00,95.51
1462.00,95.30
1461.00,95.06
1460.00,94.79
1459.00,94.49
1458.00,94.09
1457.00,93.62
1456.00,93.26
1455.00,93.07
1454.00,92.96
1453.00,92.87
1452.00,92.81
1451.00,92.79
1450.00,92.81
1449.00,92.87
1448.00,92.97
1447.00,93.08
1446.00,93.21
1445.00,93.34
1444.00,93.49
1443.00,93.64
1442.00,93.80
1441.00,93.93
1440.00,94.04
1439.00,94.15
1438.00,94.27
1437.00,94.42
1436.00,94.57
1435.00,94.71
1434.00,94.83
1433.00,94.94
1432.00,95.06
1431.00,95.19
1430.00,95.32
1429.00,95.45
1428.00,95.58
1427.00,95.70
1426.00,95.81
1425.00,95.91
1424.00,95.99
1423.00,96.06
1422.00,96.11
1421.00,96.17
1420.00,96.24
1419.00,96.31
1418.00,96.36
1417.00,96.39
1416.00,96.41
1415.00,96.43
1414.00,96.46
1413.00,96.49
1412.00,96.51
1411.00,96.52
1410.00,96.51
1409.00,96.51
1408.00,96.52
1407.00,96.53
1406.00,96.55
1405.00,96.57
1404.00,96.57
1403.00,96.55
1402.00,96.52
1401.00,96.49
1400.00,96.46
1399.00,96.40
1398.00,96.34
1397.00,96.28
1396.00,96.21
1395.00,96.14
1394.00,96.08
1393.00,96.05
1392.00,96.04
1391.00,96.04
1390.00,96.06
1389.00,96.07
1388.00,96.08
1387.00,96.09
1386.00,96.10
1385.00,96.10
1384.00,96.09
1383.00,96.06
1382.00,96.03
1381.00,96.00
1380.00,95.99
1379.00,95.97
1378.00,95.94
1377.00,95.89
1376.00,95.84
1375.00,95.78
1374.00,95.73
1373.00,95.68
1372.00,95.65
1371.00,95.62
1370.00,95.60
1369.00,95.57
1368.00,95.54
1367.00,95.50
1366.00,95.46
1365.00,95.43
1364.00,95.39
1363.00,95.37
1362.00,95.36
1361.00,95.36
1360.00,95.36
1359.00,95.37
1358.00,95.38
1357.00,95.38
1356.00,95.38
1355.00,95.37
1354.00,95.36
1353.00,95.35
1352.00,95.36
1351.00,95.38
1350.00,95.40
1349.00,95.42
1348.00,95.44
1347.00,95.46
1346.00,95.48
1345.00,95.51
1344.00,95.55
1343.00,95.59
1342.00,95.63
1341.00,95.66
1340.00,95.67
1339.00,95.68
1338.00,95.69
1337.00,95.72
1336.00,95.74
1335.00,95.77
1334.00,95.79
1333.00,95.82
1332.00,95.84
1331.00,95.85
1330.00,95.85
1329.00,95.86
1328.00,95.87
1327.00,95.88
1326.00,95.89
1325.00,95.90
1324.00,95.90
1323.00,95.90
1322.00,95.90
1321.00,95.89
1320.00,95.87
1319.00,95.86
1318.00,95.84
1317.00,95.83
1316.00,95.82
1315.00,95.80
1314.00,95.79
1313.00,95.78
1312.00,95.77
1311.00,95.75
1310.00,95.74
1309.00,95.73
1308.00,95.73
1307.00,95.72
1306.00,95.71
1305.00,95.70
1304.00,95.68
1303.00,95.68
1302.00,95.70
1301.00,95.73
1300.00,95.75
1299.00,95.75
1298.00,95.74
1297.00,95.71
1296.00,95.69
1295.00,95.69
1294.00,95.69
1293.00,95.69
1292.00,95.68
1291.00,95.68
1290.00,95.67
1289.00,95.67
1288.00,95.66
1287.00,95.65
1286.00,95.63
1285.00,95.62
1284.00,95.62
1283.00,95.62
1282.00,95.61
1281.00,95.60
1280.00,95.59
1279.00,95.59
1278.00,95.60
1277.00,95.61
1276.00,95.61
1275.00,95.59
1274.00,95.57
1273.00,95.54
1272.00,95.52
1271.00,95.51
1270.00,95.49
1269.00,95.45
1268.00,95.41
1267.00,95.37
1266.00,95.35
1265.00,95.34
1264.00,95.31
1263.00,95.28
1262.00,95.24
1261.00,95.20
1260.00,95.15
1259.00,95.09
1258.00,95.03
1257.00,94.98
1256.00,94.94
1255.00,94.89
1254.00,94.84
1253.00,94.79
1252.00,94.73
1251.00,94.68
1250.00,94.62
1249.00,94.57
1248.00,94.51
1247.00,94.47
1246.00,94.43
1245.00,94.41
1244.00,94.38
1243.00,94.35
1242.00,94.31
1241.00,94.28
1240.00,94.24
1239.00,94.20
1238.00,94.16
1237.00,94.10
1236.00,94.03
1235.00,93.96
1234.00,93.91
1233.00,93.86
1232.00,93.82
1231.00,93.76
1230.00,93.70
1229.00,93.62
1228.00,93.55
1227.00,93.50
1226.00,93.46
1225.00,93.42
1224.00,93.36
1223.00,93.29
1222.00,93.23
1221.00,93.19
1220.00,93.15
1219.00,93.12
1218.00,93.09
1217.00,93.06
1216.00,93.04
1215.00,93.04
1214.00,93.05
1213.00,93.06
1212.00,93.07
1211.00,93.08
1210.00,93.10
1209.00,93.14
1208.00,93.19
1207.00,93.24
1206.00,93.28
1205.00,93.33
1204.00,93.40
1203.00,93.48
1202.00,93.55
1201.00,93.61
1200.00,93.66
1199.00,93.70
1198.00,93.75
1197.00,93.81
1196.00,93.88
1195.00,93.95
1194.00,94.02
1193.00,94.09
1192.00,94.15
1191.00,94.20
1190.00,94.25
1189.00,94.29
1188.00,94.32
1187.00,94.33
1186.00,94.35
1185.00,94.37
1184.00,94.41
1183.00,94.45
1182.00,94.50
1181.00,94.53
1180.00,94.56
1179.00,94.58
1178.00,94.59
1177.00,94.58
1176.00,94.59
1175.00,94.61
1174.00,94.64
1173.00,94.64
1172.00,94.63
1171.00,94.63
1170.00,94.63
1169.00,94.65
1168.00,94.67
1167.00,94.68
1166.00,94.69
1165.00,94.71
1164.00,94.73
1163.00,94.76
1162.00,94.79
1161.00,94.82
1160.00,94.85
1159.00,94.90
1158.00,94.94
1157.00,94.96
1156.00,94.98
1155.00,94.99
1154.00,94.99
1153.00,94.99
1152.00,94.99
1151.00,95.01
1150.00,95.03
1149.00,95.04
1148.00,95.04
1147.00,95.01
1146.00,94.96
1145.00,94.91
1144.00,94.88
1143.00,94.84
1142.00,94.80
1141.00,94.74
1140.00,94.67
1139.00,94.60
1138.00,94.53
1137.00,94.46
1136.00,94.38
1135.00,94.27
1134.00,94.14
1133.00,93.99
1132.00,93.83
1131.00,93.68
1130.00,93.55
1129.00,93.46
1128.00,93.40
1127.00,93.37
1126.00,93.38
1125.00,93.40
1124.00,93.45
1123.00,93.51
1122.00,93.59
1121.00,93.68
1120.00,93.78
1119.00,93.88
1118.00,94.00
1117.00,94.12
1116.00,94.23
1115.00,94.34
1114.00,94.43
1113.00,94.49
1112.00,94.51
1111.00,94.54
1110.00,94.57
1109.00,94.63
1108.00,94.69
1107.00,94.73
1106.00,94.75
1105.00,94.76
1104.00,94.76
1103.00,94.77
1102.00,94.78
1101.00,94.79
1100.00,94.80
1099.00,94.80
1098.00,94.80
1097.00,94.82
1096.00,94.84
1095.00,94.86
1094.00,94.88
1093.00,94.89
1092.00,94.88
1091.00,94.87
1090.00,94.86
1089.00,94.86
1088.00,94.84
1087.00,94.83
1086.00,94.81
1085.00,94.77
1084.00,94.72
1083.00,94.67
1082.00,94.63
1081.00,94.60
1080.00,94.57
1079.00,94.54
1078.00,94.52
1077.00,94.49
1076.00,94.46
1075.00,94.43
1074.00,94.40
1073.00,94.37
1072.00,94.35
1071.00,94.34
1070.00,94.33
1069.00,94.32
1068.00,94.33
1067.00,94.35
1066.00,94.38
1065.00,94.41
1064.00,94.43
1063.00,94.45
1062.00,94.48
1061.00,94.50
1060.00,94.50
1059.00,94.49
1058.00,94.51
1057.00,94.55
1056.00,94.61
1055.00,94.66
1054.00,94.69
1053.00,94.68
1052.00,94.66
1051.00,94.65
1050.00,94.67
1049.00,94.70
1048.00,94.72
1047.00,94.73
1046.00,94.72
1045.00,94.71
1044.00,94.70
1043.00,94.69
1042.00,94.69
1041.00,94.69
1040.00,94.70
1039.00,94.72
1038.00,94.75
1037.00,94.79
1036.00,94.85
1035.00,94.91
1034.00,94.97
1033.00,95.03
1032.00,95.07
1031.00,95.09
1030.00,95.10
1029.00,95.12
1028.00,95.13
1027.00,95.12
1026.00,95.09
1025.00,95.08
1024.00,95.10
1023.00,95.12
1022.00,95.14
1021.00,95.16
1020.00,95.17
1019.00,95.18
1018.00,95.20
1017.00,95.22
1016.00,95.24
1015.00,95.24
1014.00,95.22
1013.00,95.20
1012.00,95.20
1011.00,95.21
1010.00,95.24
1009.00,95.27
1008.00,95.29
1007.00,95.30
1006.00,95.30
1005.00,95.30
1004.00,95.30
1003.00,95.31
1002.00,95.31
1001.00,95.29
1000.00,95.26
999.00,95.24
998.00,95.23
997.00,95.23
996.00,95.22
995.00,95.20
994.00,95.18
993.00,95.15
992.00,95.12
991.00,95.08
990.00,95.03
989.00,94.99
988.00,94.97
987.00,94.97
986.00,94.96
985.00,94.95
984.00,94.93
983.00,94.92
982.00,94.91
981.00,94.92
980.00,94.92
979.00,94.92
978.00,94.90
977.00,94.89
976.00,94.90
975.00,94.93
974.00,94.96
973.00,94.99
972.00,95.02
971.00,95.05
970.00,95.07
969.00,95.09
968.00,95.11
967.00,95.13
966.00,95.17
965.00,95.21
964.00,95.25
963.00,95.26
962.00,95.26
961.00,95.25
960.00,95.25
959.00,95.26
958.00,95.28
957.00,95.30
956.00,95.30
955.00,95.30
954.00,95.31
953.00,95.31
952.00,95.31
951.00,95.29
950.00,95.27
949.00,95.26
948.00,95.25
947.00,95.26
946.00,95.27
945.00,95.28
944.00,95.29
943.00,95.28
942.00,95.27
941.00,95.25
940.00,95.24
939.00,95.26
938.00,95.28
937.00,95.29
936.00,95.29
935.00,95.29
934.00,95.29
933.00,95.29
932.00,95.29
931.00,95.29
930.00,95.29
929.00,95.29
928.00,95.29
927.00,95.28
926.00,95.26
925.00,95.23
924.00,95.21
923.00,95.21
922.00,95.23
921.00,95.25
920.00,95.26
919.00,95.26
918.00,95.25
917.00,95.25
916.00,95.25
915.00,95.25
914.00,95.25
913.00,95.26
912.00,95.26
911.00,95.25
910.00,95.23
909.00,95.21
908.00,95.21
907.00,95.23
906.00,95.26
905.00,95.27
904.00,95.28
903.00,95.29
902.00,95.30
901.00,95.31
900.00,95.32
899.00,95.33
898.00,95.33
897.00,95.33
896.00,95.31
895.00,95.29
894.00,95.28
893.00,95.28
892.00,95.27
891.00,95.26
890.00,95.25
889.00,95.24
888.00,95.24
887.00,95.26
886.00,95.27
885.00,95.28
884.00,95.26
883.00,95.23
882.00,95.21
881.00,95.22
880.00,95.24
879.00,95.26
878.00,95.26
877.00,95.24
876.00,95.22
875.00,95.20
874.00,95.21
873.00,95.23
872.00,95.24
871.00,95.25
870.00,95.26
869.00,95.27
868.00,95.27
867.00,95.27
866.00,95.28
865.00,95.27
864.00,95.26
863.00,95.23
862.00,95.20
861.00,95.19
860.00,95.19
859.00,95.19
858.00,95.18
857.00,95.16
856.00,95.16
855.00,95.17
854.00,95.18
853.00,95.18
852.00,95.19
851.00,95.20
850.00,95.21
849.00,95.23
848.00,95.26
847.00,95.29
846.00,95.32
845.00,95.33
844.00,95.32
843.00,95.29
842.00,95.26
841.00,95.24
840.00,95.24
839.00,95.26
838.00,95.28
837.00,95.29
836.00,95.26
835.00,95.23
834.00,95.23
833.00,95.24
832.00,95.25
831.00,95.24
830.00,95.21
829.00,95.19
828.00,95.19
827.00,95.23
826.00,95.28
825.00,95.31
824.00,95.30
823.00,95.26
822.00,95.20
821.00,95.15
820.00,95.12
819.00,95.10
818.00,95.09
817.00,95.09
816.00,95.09
815.00,95.08
814.00,95.07
813.00,95.07
812.00,95.10
811.00,95.13
810.00,95.16
809.00,95.16
808.00,95.12
807.00,95.07
806.00,95.04
805.00,95.03
804.00,95.03
803.00,95.05
802.00,95.07
801.00,95.10
800.00,95.12
799.00,95.12
798.00,95.10
797.00,95.10
796.00,95.11
795.00,95.12
794.00,95.09
793.00,95.03
792.00,94.96
791.00,94.95
790.00,94.99
789.00,95.05
788.00,95.09
787.00,95.10
786.00,95.08
785.00,95.05
784.00,95.00
783.00,94.95
782.00,94.91
781.00,94.89
780.00,94.89
779.00,94.87
778.00,94.85
777.00,94.81
776.00,94.76
775.00,94.72
774.00,94.68
773.00,94.68
772.00,94.70
771.00,94.72
770.00,94.73
769.00,94.73
768.00,94.74
767.00,94.76
766.00,94.78
765.00,94.79
764.00,94.78
763.00,94.75
762.00,94.72
761.00,94.71
760.00,94.73
759.00,94.78
758.00,94.83
757.00,94.85
756.00,94.86
755.00,94.86
754.00,94.90
753.00,94.98
752.00,95.09
751.00,95.17
750.00,95.22
749.00,95.23
748.00,95.23
747.00,95.21
746.00,95.21
745.00,95.21
744.00,95.22
743.00,95.22
742.00,95.21
741.00,95.22
740.00,95.25
739.00,95.28
738.00,95.29
737.00,95.29
736.00,95.28
735.00,95.28
734.00,95.35
733.00,95.51
732.00,95.68
731.00,95.77
730.00,95.71
729.00,95.57
728.00,95.46
727.00,95.41
726.00,95.39
725.00,95.35
724.00,95.30
723.00,95.26
722.00,95.26
721.00,95.28
720.00,95.30
719.00,95.31
718.00,95.30
717.00,95.28
716.00,95.26
715.00,95.25
714.00,95.28
713.00,95.36
712.00,95.45
711.00,95.51
710.00,95.51
709.00,95.48
708.00,95.45
707.00,95.44
706.00,95.44
705.00,95.45
704.00,95.47
703.00,95.46
702.00,95.45
701.00,95.43
700.00,95.42
699.00,95.45
698.00,95.48
697.00,95.51
696.00,95.51
695.00,95.48
694.00,95.43
693.00,95.39
692.00,95.37
691.00,95.38
690.00,95.41
689.00,95.44
688.00,95.43
687.00,95.38
686.00,95.31
685.00,95.23
684.00,95.17
683.00,95.15
682.00,95.16
681.00,95.17
680.00,95.19
679.00,95.21
678.00,95.24
677.00,95.26
676.00,95.29
675.00,95.30
674.00,95.29
673.00,95.29
672.00,95.30
671.00,95.32
670.00,95.35
669.00,95.37
668.00,95.34
667.00,95.27
666.00,95.20
665.00,95.18
664.00,95.17
663.00,95.18
662.00,95.20
661.00,95.21
660.00,95.24
659.00,95.29
658.00,95.37
657.00,95.41
656.00,95.38
655.00,95.31
654.00,95.25
653.00,95.23
652.00,95.25
651.00,95.25
650.00,95.22
649.00,95.18
648.00,95.14
647.00,95.10
646.00,95.09
645.00,95.16
644.00,95.31
643.00,95.47
642.00,95.53
641.00,95.47
640.00,95.40
639.00,95.40
638.00,95.41
637.00,95.35
636.00,95.19
635.00,95.01
634.00,94.89
633.00,94.88
632.00,94.99
631.00,95.21
630.00,95.46
629.00,95.61
628.00,95.60
627.00,95.49
626.00,95.40
625.00,95.35
624.00,95.29
623.00,95.24
622.00,95.24
621.00,95.31
620.00,95.34
619.00,95.25
618.00,95.07
617.00,94.88
616.00,94.75
615.00,94.66
614.00,94.68
613.00,94.85
612.00,95.16
611.00,95.47
610.00,95.65
609.00,95.65
608.00,95.54
607.00,95.39
606.00,95.31
605.00,95.32
604.00,95.41
603.00,95.49
602.00,95.55
601.00,95.57
600.00,95.58
599.00,95.52
598.00,95.37
597.00,95.12
596.00,94.82
595.00,94.52
594.00,94.28
593.00,94.16
592.00,94.18
591.00,94.29
590.00,94.39
589.00,94.41
588.00,94.45
587.00,94.66
586.00,95.15
585.00,95.80
584.00,96.25
583.00,96.15
582.00,95.46
581.00,94.58
580.00,93.96
579.00,93.81
578.00,94.01
577.00,94.36
576.00,94.73
575.00,95.00
574.00,95.11
573.00,95.14
572.00,95.13
571.00,95.01
570.00,94.68
569.00,94.29
568.00,94.17
567.00,94.40
566.00,94.75
565.00,94.95
564.00,94.95
563.00,94.83
562.00,94.61
561.00,94.33
560.00,94.06
559.00,93.80
558.00,93.38
557.00,92.82
556.00,92.48
555.00,92.79
554.00,93.65
553.00,94.47
552.00,94.76
551.00,94.58
550.00,94.31
