Created as New Dataset,6. Acrylic Asahi Chemical Co
cm-1,%T
4000.00,99.78
3999.00,99.78
3998.00,99.77
3997.00,99.76
3996.00,99.75
3995.00,99.73
3994.00,99.73
3993.00,99.73
3992.00,99.74
3991.00,99.75
3990.00,99.75
3989.00,99.75
3988.00,99.74
3987.00,99.74
3986.00,99.74
3985.00,99.73
3984.00,99.72
3983.00,99.71
3982.00,99.71
3981.00,99.72
3980.00,99.74
3979.00,99.75
3978.00,99.75
3977.00,99.73
3976.00,99.72
3975.00,99.70
3974.00,99.70
3973.00,99.70
3972.00,99.71
3971.00,99.70
3970.00,99.70
3969.00,99.70
3968.00,99.71
3967.00,99.73
3966.00,99.74
3965.00,99.75
3964.00,99.75
3963.00,99.75
3962.00,99.76
3961.00,99.76
3960.00,99.76
3959.00,99.75
3958.00,99.76
3957.00,99.76
3956.00,99.77
3955.00,99.78
3954.00,99.78
3953.00,99.77
3952.00,99.77
3951.00,99.77
3950.00,99.77
3949.00,99.76
3948.00,99.74
3947.00,99.71
3946.00,99.69
3945.00,99.68
3944.00,99.70
3943.00,99.73
3942.00,99.75
3941.00,99.77
3940.00,99.76
3939.00,99.76
3938.00,99.76
3937.00,99.76
3936.00,99.76
3935.00,99.75
3934.00,99.74
3933.00,99.73
3932.00,99.73
3931.00,99.73
3930.00,99.74
3929.00,99.76
3928.00,99.76
3927.00,99.76
3926.00,99.75
3925.00,99.74
3924.00,99.73
3923.00,99.70
3922.00,99.68
3921.00,99.66
3920.00,99.66
3919.00,99.67
3918.00,99.69
3917.00,99.71
3916.00,99.71
3915.00,99.70
3914.00,99.68
3913.00,99.68
3912.00,99.69
3911.00,99.72
3910.00,99.74
3909.00,99.73
3908.00,99.70
3907.00,99.65
3906.00,99.61
3905.00,99.58
3904.00,99.57
3903.00,99.57
3902.00,99.56
3901.00,99.56
3900.00,99.58
3899.00,99.61
3898.00,99.64
3897.00,99.66
3896.00,99.66
3895.00,99.66
3894.00,99.66
3893.00,99.66
3892.00,99.66
3891.00,99.67
3890.00,99.66
3889.00,99.63
3888.00,99.58
3887.00,99.58
3886.00,99.62
3885.00,99.66
3884.00,99.66
3883.00,99.62
3882.00,99.58
3881.00,99.59
3880.00,99.61
3879.00,99.62
3878.00,99.60
3877.00,99.57
3876.00,99.56
3875.00,99.59
3874.00,99.61
3873.00,99.60
3872.00,99.56
3871.00,99.53
3870.00,99.56
3869.00,99.59
3868.00,99.59
3867.00,99.56
3866.00,99.56
3865.00,99.59
3864.00,99.62
3863.00,99.62
3862.00,99.61
3861.00,99.61
3860.00,99.63
3859.00,99.66
3858.00,99.68
3857.00,99.68
3856.00,99.65
3855.00,99.63
3854.00,99.62
3853.00,99.61
3852.00,99.58
3851.00,99.56
3850.00,99.54
3849.00,99.56
3848.00,99.60
3847.00,99.64
3846.00,99.66
3845.00,99.67
3844.00,99.66
3843.00,99.65
3842.00,99.62
3841.00,99.60
3840.00,99.57
3839.00,99.56
3838.00,99.54
3837.00,99.52
3836.00,99.49
3835.00,99.48
3834.00,99.48
3833.00,99.50
3832.00,99.53
3831.00,99.55
3830.00,99.55
3829.00,99.53
3828.00,99.52
3827.00,99.54
3826.00,99.57
3825.00,99.58
3824.00,99.54
3823.00,99.50
3822.00,99.50
3821.00,99.52
3820.00,99.53
3819.00,99.51
3818.00,99.48
3817.00,99.50
3816.00,99.56
3815.00,99.60
3814.00,99.59
3813.00,99.57
3812.00,99.56
3811.00,99.57
3810.00,99.58
3809.00,99.58
3808.00,99.59
3807.00,99.62
3806.00,99.63
3805.00,99.60
3804.00,99.55
3803.00,99.53
3802.00,99.55
3801.00,99.59
3800.00,99.57
3799.00,99.52
3798.00,99.47
3797.00,99.47
3796.00,99.51
3795.00,99.53
3794.00,99.54
3793.00,99.54
3792.00,99.55
3791.00,99.56
3790.00,99.56
3789.00,99.55
3788.00,99.54
3787.00,99.52
3786.00,99.50
3785.00,99.48
3784.00,99.48
3783.00,99.48
3782.00,99.48
3781.00,99.48
3780.00,99.49
3779.00,99.49
3778.00,99.49
3777.00,99.47
3776.00,99.47
3775.00,99.48
3774.00,99.48
3773.00,99.46
3772.00,99.43
3771.00,99.41
3770.00,99.41
3769.00,99.42
3768.00,99.43
3767.00,99.44
3766.00,99.45
3765.00,99.47
3764.00,99.47
3763.00,99.44
3762.00,99.42
3761.00,99.41
3760.00,99.43
3759.00,99.44
3758.00,99.45
3757.00,99.45
3756.00,99.46
3755.00,99.45
3754.00,99.45
3753.00,99.46
3752.00,99.46
3751.00,99.43
3750.00,99.40
3749.00,99.37
3748.00,99.33
3747.00,99.28
3746.00,99.24
3745.00,99.27
3744.00,99.33
3743.00,99.35
3742.00,99.33
3741.00,99.32
3740.00,99.34
3739.00,99.37
3738.00,99.39
3737.00,99.39
3736.00,99.38
3735.00,99.35
3734.00,99.31
3733.00,99.30
3732.00,99.32
3731.00,99.37
3730.00,99.40
3729.00,99.43
3728.00,99.45
3727.00,99.46
3726.00,99.46
3725.00,99.43
3724.00,99.39
3723.00,99.36
3722.00,99.34
3721.00,99.33
3720.00,99.32
3719.00,99.32
3718.00,99.35
3717.00,99.38
3716.00,99.40
3715.00,99.40
3714.00,99.39
3713.00,99.39
3712.00,99.39
3711.00,99.37
3710.00,99.34
3709.00,99.33
3708.00,99.35
3707.00,99.38
3706.00,99.42
3705.00,99.43
3704.00,99.43
3703.00,99.42
3702.00,99.41
3701.00,99.40
3700.00,99.39
3699.00,99.38
3698.00,99.37
3697.00,99.37
3696.00,99.37
3695.00,99.37
3694.00,99.36
3693.00,99.35
3692.00,99.36
3691.00,99.36
3690.00,99.33
3689.00,99.30
3688.00,99.28
3687.00,99.28
3686.00,99.29
3685.00,99.30
3684.00,99.30
3683.00,99.30
3682.00,99.29
3681.00,99.28
3680.00,99.27
3679.00,99.26
3678.00,99.22
3677.00,99.17
3676.00,99.14
3675.00,99.15
3674.00,99.15
3673.00,99.14
3672.00,99.11
3671.00,99.11
3670.00,99.13
3669.00,99.14
3668.00,99.15
3667.00,99.17
3666.00,99.20
3665.00,99.24
3664.00,99.26
3663.00,99.25
3662.00,99.23
3661.00,99.22
3660.00,99.19
3659.00,99.16
3658.00,99.13
3657.00,99.10
3656.00,99.09
3655.00,99.08
3654.00,99.06
3653.00,99.02
3652.00,99.00
3651.00,99.00
3650.00,99.00
3649.00,98.97
3648.00,98.94
3647.00,98.95
3646.00,98.97
3645.00,99.00
3644.00,99.01
3643.00,99.03
3642.00,99.04
3641.00,99.05
3640.00,99.05
3639.00,99.06
3638.00,99.06
3637.00,99.05
3636.00,99.04
3635.00,99.03
3634.00,99.03
3633.00,99.03
3632.00,99.02
3631.00,99.00
3630.00,98.99
3629.00,99.00
3628.00,99.00
3627.00,98.98
3626.00,98.96
3625.00,98.95
3624.00,98.95
3623.00,98.96
3622.00,98.95
3621.00,98.94
3620.00,98.95
3619.00,98.97
3618.00,98.98
3617.00,98.99
3616.00,98.99
3615.00,98.99
3614.00,99.02
3613.00,99.04
3612.00,99.04
3611.00,99.02
3610.00,99.00
3609.00,99.01
3608.00,99.02
3607.00,99.03
3606.00,99.03
3605.00,99.03
3604.00,99.03
3603.00,99.04
3602.00,99.05
3601.00,99.05
3600.00,99.06
3599.00,99.05
3598.00,99.05
3597.00,99.03
3596.00,99.03
3595.00,99.03
3594.00,99.04
3593.00,99.05
3592.00,99.07
3591.00,99.07
3590.00,99.07
3589.00,99.07
3588.00,99.07
3587.00,99.07
3586.00,99.07
3585.00,99.08
3584.00,99.07
3583.00,99.06
3582.00,99.06
3581.00,99.06
3580.00,99.07
3579.00,99.08
3578.00,99.08
3577.00,99.07
3576.00,99.08
3575.00,99.09
3574.00,99.11
3573.00,99.12
3572.00,99.12
3571.00,99.10
3570.00,99.07
3569.00,99.06
3568.00,99.06
3567.00,99.08
3566.00,99.09
3565.00,99.10
3564.00,99.10
3563.00,99.09
3562.00,99.08
3561.00,99.08
3560.00,99.07
3559.00,99.06
3558.00,99.05
3557.00,99.05
3556.00,99.04
3555.00,99.03
3554.00,99.02
3553.00,99.00
3552.00,98.99
3551.00,98.98
3550.00,98.97
3549.00,98.97
3548.00,98.97
3547.00,98.98
3546.00,98.99
3545.00,99.00
3544.00,99.01
3543.00,99.02
3542.00,99.01
3541.00,99.02
3540.00,99.03
3539.00,99.03
3538.00,99.04
3537.00,99.03
3536.00,99.03
3535.00,99.04
3534.00,99.05
3533.00,99.07
3532.00,99.08
3531.00,99.09
3530.00,99.08
3529.00,99.08
3528.00,99.07
3527.00,99.07
3526.00,99.06
3525.00,99.06
3524.00,99.05
3523.00,99.04
3522.00,99.04
3521.00,99.05
3520.00,99.07
3519.00,99.08
3518.00,99.09
3517.00,99.08
3516.00,99.06
3515.00,99.04
3514.00,99.03
3513.00,99.03
3512.00,99.03
3511.00,99.03
3510.00,99.04
3509.00,99.05
3508.00,99.05
3507.00,99.05
3506.00,99.04
3505.00,99.04
3504.00,99.04
3503.00,99.05
3502.00,99.04
3501.00,99.02
3500.00,98.99
3499.00,98.98
3498.00,98.98
3497.00,99.00
3496.00,99.02
3495.00,99.04
3494.00,99.05
3493.00,99.08
3492.00,99.10
3491.00,99.11
3490.00,99.10
3489.00,99.07
3488.00,99.05
3487.00,99.05
3486.00,99.07
3485.00,99.09
3484.00,99.10
3483.00,99.09
3482.00,99.07
3481.00,99.05
3480.00,99.06
3479.00,99.08
3478.00,99.11
3477.00,99.13
3476.00,99.14
3475.00,99.13
3474.00,99.12
3473.00,99.10
3472.00,99.09
3471.00,99.08
3470.00,99.07
3469.00,99.07
3468.00,99.08
3467.00,99.10
3466.00,99.12
3465.00,99.13
3464.00,99.13
3463.00,99.11
3462.00,99.08
3461.00,99.05
3460.00,99.03
3459.00,99.03
3458.00,99.04
3457.00,99.06
3456.00,99.10
3455.00,99.13
3454.00,99.15
3453.00,99.14
3452.00,99.11
3451.00,99.07
3450.00,99.06
3449.00,99.05
3448.00,99.06
3447.00,99.07
3446.00,99.08
3445.00,99.08
3444.00,99.08
3443.00,99.09
3442.00,99.09
3441.00,99.10
3440.00,99.11
3439.00,99.12
3438.00,99.13
3437.00,99.14
3436.00,99.16
3435.00,99.17
3434.00,99.17
3433.00,99.16
3432.00,99.14
3431.00,99.13
3430.00,99.12
3429.00,99.11
3428.00,99.12
3427.00,99.13
3426.00,99.15
3425.00,99.16
3424.00,99.17
3423.00,99.16
3422.00,99.15
3421.00,99.13
3420.00,99.13
3419.00,99.12
3418.00,99.12
3417.00,99.12
3416.00,99.11
3415.00,99.11
3414.00,99.11
3413.00,99.10
3412.00,99.09
3411.00,99.08
3410.00,99.07
3409.00,99.06
3408.00,99.07
3407.00,99.07
3406.00,99.07
3405.00,99.07
3404.00,99.07
3403.00,99.08
3402.00,99.10
3401.00,99.12
3400.00,99.14
3399.00,99.15
3398.00,99.14
3397.00,99.13
3396.00,99.12
3395.00,99.11
3394.00,99.11
3393.00,99.11
3392.00,99.12
3391.00,99.12
3390.00,99.13
3389.00,99.14
3388.00,99.16
3387.00,99.17
3386.00,99.18
3385.00,99.18
3384.00,99.16
3383.00,99.15
3382.00,99.15
3381.00,99.15
3380.00,99.17
3379.00,99.18
3378.00,99.19
3377.00,99.18
3376.00,99.17
3375.00,99.15
3374.00,99.15
3373.00,99.15
3372.00,99.15
3371.00,99.14
3370.00,99.13
3369.00,99.11
3368.00,99.10
3367.00,99.09
3366.00,99.09
3365.00,99.08
3364.00,99.08
3363.00,99.08
3362.00,99.09
3361.00,99.10
3360.00,99.11
3359.00,99.11
3358.00,99.09
3357.00,99.08
3356.00,99.09
3355.00,99.09
3354.00,99.10
3353.00,99.10
3352.00,99.11
3351.00,99.13
3350.00,99.14
3349.00,99.14
3348.00,99.12
3347.00,99.09
3346.00,99.06
3345.00,99.06
3344.00,99.07
3343.00,99.08
3342.00,99.09
3341.00,99.09
3340.00,99.09
3339.00,99.09
3338.00,99.09
3337.00,99.09
3336.00,99.09
3335.00,99.08
3334.00,99.06
3333.00,99.05
3332.00,99.04
3331.00,99.04
3330.00,99.05
3329.00,99.06
3328.00,99.06
3327.00,99.06
3326.00,99.06
3325.00,99.07
3324.00,99.06
3323.00,99.05
3322.00,99.05
3321.00,99.05
3320.00,99.05
3319.00,99.07
3318.00,99.07
3317.00,99.08
3316.00,99.07
3315.00,99.07
3314.00,99.06
3313.00,99.06
3312.00,99.05
3311.00,99.04
3310.00,99.04
3309.00,99.03
3308.00,99.03
3307.00,99.03
3306.00,99.04
3305.00,99.05
3304.00,99.07
3303.00,99.07
3302.00,99.07
3301.00,99.06
3300.00,99.06
3299.00,99.06
3298.00,99.06
3297.00,99.06
3296.00,99.06
3295.00,99.06
3294.00,99.06
3293.00,99.05
3292.00,99.05
3291.00,99.04
3290.00,99.03
3289.00,99.04
3288.00,99.05
3287.00,99.07
3286.00,99.08
3285.00,99.07
3284.00,99.05
3283.00,99.03
3282.00,99.01
3281.00,99.00
3280.00,98.99
3279.00,98.99
3278.00,99.00
3277.00,99.02
3276.00,99.04
3275.00,99.06
3274.00,99.06
3273.00,99.05
3272.00,99.04
3271.00,99.03
3270.00,99.02
3269.00,99.03
3268.00,99.03
3267.00,99.03
3266.00,99.01
3265.00,98.98
3264.00,98.95
3263.00,98.93
3262.00,98.93
3261.00,98.93
3260.00,98.94
3259.00,98.96
3258.00,98.98
3257.00,99.00
3256.00,99.01
3255.00,99.01
3254.00,99.00
3253.00,98.99
3252.00,98.99
3251.00,98.99
3250.00,98.99
3249.00,99.00
3248.00,99.00
3247.00,99.00
3246.00,99.00
3245.00,98.99
3244.00,98.98
3243.00,98.99
3242.00,99.00
3241.00,99.01
3240.00,99.02
3239.00,99.02
3238.00,99.01
3237.00,99.00
3236.00,98.99
3235.00,98.99
3234.00,98.99
3233.00,98.99
3232.00,98.99
3231.00,98.98
3230.00,98.97
3229.00,98.97
3228.00,98.97
3227.00,98.97
3226.00,98.97
3225.00,98.98
3224.00,98.99
3223.00,98.99
3222.00,98.97
3221.00,98.96
3220.00,98.96
3219.00,98.98
3218.00,99.00
3217.00,99.02
3216.00,99.02
3215.00,99.01
3214.00,99.00
3213.00,99.00
3212.00,98.99
3211.00,98.99
3210.00,98.99
3209.00,98.99
3208.00,98.99
3207.00,99.00
3206.00,98.99
3205.00,98.99
3204.00,98.99
3203.00,98.99
3202.00,99.00
3201.00,99.01
3200.00,99.02
3199.00,99.03
3198.00,99.04
3197.00,99.04
3196.00,99.02
3195.00,99.01
3194.00,98.99
3193.00,98.99
3192.00,99.00
3191.00,99.02
3190.00,99.02
3189.00,99.02
3188.00,99.02
3187.00,99.01
3186.00,99.01
3185.00,99.02
3184.00,99.02
3183.00,99.02
3182.00,99.01
3181.00,99.01
3180.00,99.01
3179.00,99.01
3178.00,99.01
3177.00,99.01
3176.00,99.00
3175.00,98.99
3174.00,98.99
3173.00,98.98
3172.00,98.99
3171.00,98.99
3170.00,98.99
3169.00,98.99
3168.00,99.00
3167.00,99.01
3166.00,99.02
3165.00,99.02
3164.00,99.02
3163.00,99.01
3162.00,99.02
3161.00,99.02
3160.00,99.01
3159.00,99.00
3158.00,98.99
3157.00,98.98
3156.00,98.98
3155.00,98.99
3154.00,99.00
3153.00,99.01
3152.00,99.02
3151.00,99.02
3150.00,99.02
3149.00,99.03
3148.00,99.02
3147.00,99.02
3146.00,99.00
3145.00,98.99
3144.00,98.98
3143.00,98.98
3142.00,98.98
3141.00,98.99
3140.00,98.99
3139.00,99.00
3138.00,99.01
3137.00,99.02
3136.00,99.02
3135.00,99.02
3134.00,99.02
3133.00,99.01
3132.00,99.00
3131.00,98.99
3130.00,98.99
3129.00,99.00
3128.00,99.01
3127.00,99.02
3126.00,99.03
3125.00,99.02
3124.00,99.01
3123.00,99.00
3122.00,99.00
3121.00,99.00
3120.00,99.01
3119.00,99.02
3118.00,99.02
3117.00,99.01
3116.00,98.99
3115.00,98.97
3114.00,98.96
3113.00,98.96
3112.00,98.97
3111.00,98.98
3110.00,99.00
3109.00,99.02
3108.00,99.03
3107.00,99.03
3106.00,99.01
3105.00,98.99
3104.00,98.97
3103.00,98.96
3102.00,98.97
3101.00,98.99
3100.00,99.00
3099.00,99.01
3098.00,99.01
3097.00,99.01
3096.00,98.99
3095.00,98.97
3094.00,98.95
3093.00,98.94
3092.00,98.94
3091.00,98.94
3090.00,98.94
3089.00,98.96
3088.00,98.98
3087.00,98.99
3086.00,98.99
3085.00,98.97
3084.00,98.94
3083.00,98.92
3082.00,98.89
3081.00,98.87
3080.00,98.86
3079.00,98.86
3078.00,98.87
3077.00,98.88
3076.00,98.89
3075.00,98.90
3074.00,98.90
3073.00,98.91
3072.00,98.92
3071.00,98.92
3070.00,98.91
3069.00,98.89
3068.00,98.88
3067.00,98.88
3066.00,98.88
3065.00,98.88
3064.00,98.89
3063.00,98.89
3062.00,98.89
3061.00,98.88
3060.00,98.88
3059.00,98.87
3058.00,98.87
3057.00,98.88
3056.00,98.89
3055.00,98.90
3054.00,98.91
3053.00,98.91
3052.00,98.89
3051.00,98.88
3050.00,98.86
3049.00,98.86
3048.00,98.86
3047.00,98.87
3046.00,98.88
3045.00,98.88
3044.00,98.88
3043.00,98.87
3042.00,98.87
3041.00,98.88
3040.00,98.89
3039.00,98.88
3038.00,98.87
3037.00,98.86
3036.00,98.85
3035.00,98.85
3034.00,98.84
3033.00,98.83
3032.00,98.82
3031.00,98.80
3030.00,98.79
3029.00,98.78
3028.00,98.76
3027.00,98.76
3026.00,98.78
3025.00,98.79
3024.00,98.81
3023.00,98.81
3022.00,98.80
3021.00,98.79
3020.00,98.76
3019.00,98.75
3018.00,98.74
3017.00,98.74
3016.00,98.74
3015.00,98.74
3014.00,98.74
3013.00,98.73
3012.00,98.72
3011.00,98.71
3010.00,98.68
3009.00,98.66
3008.00,98.65
3007.00,98.66
3006.00,98.67
3005.00,98.68
3004.00,98.68
3003.00,98.66
3002.00,98.65
3001.00,98.63
3000.00,98.61
2999.00,98.60
2998.00,98.59
2997.00,98.59
2996.00,98.58
2995.00,98.57
2994.00,98.56
2993.00,98.55
2992.00,98.55
2991.00,98.54
2990.00,98.53
2989.00,98.51
2988.00,98.50
2987.00,98.49
2986.00,98.47
2985.00,98.46
2984.00,98.45
2983.00,98.43
2982.00,98.42
2981.00,98.41
2980.00,98.40
2979.00,98.39
2978.00,98.39
2977.00,98.39
2976.00,98.39
2975.00,98.38
2974.00,98.37
2973.00,98.35
2972.00,98.33
2971.00,98.31
2970.00,98.29
2969.00,98.28
2968.00,98.27
2967.00,98.25
2966.00,98.22
2965.00,98.17
2964.00,98.12
2963.00,98.07
2962.00,98.04
2961.00,98.01
2960.00,97.98
2959.00,97.94
2958.00,97.90
2957.00,97.85
2956.00,97.82
2955.00,97.79
2954.00,97.77
2953.00,97.74
2952.00,97.71
2951.00,97.69
2950.00,97.66
2949.00,97.64
2948.00,97.60
2947.00,97.56
2946.00,97.53
2945.00,97.49
2944.00,97.45
2943.00,97.40
2942.00,97.35
2941.00,97.32
2940.00,97.30
2939.00,97.29
2938.00,97.28
2937.00,97.27
2936.00,97.25
2935.00,97.24
2934.00,97.24
2933.00,97.24
2932.00,97.24
2931.00,97.23
2930.00,97.21
2929.00,97.20
2928.00,97.19
2927.00,97.18
2926.00,97.17
2925.00,97.15
2924.00,97.14
2923.00,97.14
2922.00,97.14
2921.00,97.14
2920.00,97.15
2919.00,97.17
2918.00,97.21
2917.00,97.27
2916.00,97.34
2915.00,97.41
2914.00,97.48
2913.00,97.55
2912.00,97.63
2911.00,97.71
2910.00,97.79
2909.00,97.85
2908.00,97.91
2907.00,97.96
2906.00,98.02
2905.00,98.08
2904.00,98.12
2903.00,98.13
2902.00,98.14
2901.00,98.14
2900.00,98.16
2899.00,98.19
2898.00,98.22
2897.00,98.25
2896.00,98.26
2895.00,98.27
2894.00,98.29
2893.00,98.31
2892.00,98.33
2891.00,98.35
2890.00,98.37
2889.00,98.39
2888.00,98.40
2887.00,98.41
2886.00,98.42
2885.00,98.43
2884.00,98.43
2883.00,98.43
2882.00,98.42
2881.00,98.42
2880.00,98.41
2879.00,98.39
2878.00,98.37
2877.00,98.36
2876.00,98.34
2875.00,98.33
2874.00,98.33
2873.00,98.33
2872.00,98.34
2871.00,98.35
2870.00,98.36
2869.00,98.37
2868.00,98.38
2867.00,98.40
2866.00,98.41
2865.00,98.42
2864.00,98.42
2863.00,98.42
2862.00,98.42
2861.00,98.41
2860.00,98.41
2859.00,98.41
2858.00,98.41
2857.00,98.41
2856.00,98.40
2855.00,98.39
2854.00,98.37
2853.00,98.35
2852.00,98.33
2851.00,98.33
2850.00,98.34
2849.00,98.36
2848.00,98.41
2847.00,98.45
2846.00,98.50
2845.00,98.55
2844.00,98.59
2843.00,98.63
2842.00,98.66
2841.00,98.68
2840.00,98.70
2839.00,98.72
2838.00,98.73
2837.00,98.74
2836.00,98.76
2835.00,98.77
2834.00,98.79
2833.00,98.81
2832.00,98.81
2831.00,98.81
2830.00,98.79
2829.00,98.77
2828.00,98.76
2827.00,98.77
2826.00,98.78
2825.00,98.78
2824.00,98.77
2823.00,98.76
2822.00,98.76
2821.00,98.77
2820.00,98.78
2819.00,98.80
2818.00,98.80
2817.00,98.79
2816.00,98.77
2815.00,98.77
2814.00,98.77
2813.00,98.77
2812.00,98.78
2811.00,98.79
2810.00,98.79
2809.00,98.80
2808.00,98.79
2807.00,98.79
2806.00,98.79
2805.00,98.79
2804.00,98.80
2803.00,98.80
2802.00,98.81
2801.00,98.81
2800.00,98.81
2799.00,98.80
2798.00,98.79
2797.00,98.78
2796.00,98.76
2795.00,98.76
2794.00,98.77
2793.00,98.79
2792.00,98.81
2791.00,98.81
2790.00,98.80
2789.00,98.79
2788.00,98.78
2787.00,98.78
2786.00,98.79
2785.00,98.81
2784.00,98.82
2783.00,98.83
2782.00,98.84
2781.00,98.84
2780.00,98.85
2779.00,98.85
2778.00,98.85
2777.00,98.85
2776.00,98.84
2775.00,98.83
2774.00,98.83
2773.00,98.84
2772.00,98.85
2771.00,98.85
2770.00,98.84
2769.00,98.82
2768.00,98.81
2767.00,98.82
2766.00,98.83
2765.00,98.84
2764.00,98.84
2763.00,98.83
2762.00,98.81
2761.00,98.81
2760.00,98.81
2759.00,98.81
2758.00,98.80
2757.00,98.80
2756.00,98.81
2755.00,98.82
2754.00,98.83
2753.00,98.84
2752.00,98.83
2751.00,98.82
2750.00,98.79
2749.00,98.78
2748.00,98.78
2747.00,98.79
2746.00,98.80
2745.00,98.80
2744.00,98.79
2743.00,98.78
2742.00,98.77
2741.00,98.78
2740.00,98.79
2739.00,98.80
2738.00,98.80
2737.00,98.80
2736.00,98.80
2735.00,98.81
2734.00,98.81
2733.00,98.81
2732.00,98.81
2731.00,98.80
2730.00,98.80
2729.00,98.79
2728.00,98.80
2727.00,98.81
2726.00,98.82
2725.00,98.82
2724.00,98.82
2723.00,98.82
2722.00,98.81
2721.00,98.81
2720.00,98.80
2719.00,98.80
2718.00,98.80
2717.00,98.81
2716.00,98.83
2715.00,98.84
2714.00,98.83
2713.00,98.82
2712.00,98.80
2711.00,98.80
2710.00,98.80
2709.00,98.80
2708.00,98.80
2707.00,98.80
2706.00,98.80
2705.00,98.80
2704.00,98.80
2703.00,98.80
2702.00,98.81
2701.00,98.81
2700.00,98.81
2699.00,98.81
2698.00,98.80
2697.00,98.79
2696.00,98.78
2695.00,98.78
2694.00,98.78
2693.00,98.77
2692.00,98.77
2691.00,98.76
2690.00,98.76
2689.00,98.76
2688.00,98.77
2687.00,98.78
2686.00,98.78
2685.00,98.78
2684.00,98.78
2683.00,98.77
2682.00,98.77
2681.00,98.77
2680.00,98.78
2679.00,98.79
2678.00,98.81
2677.00,98.81
2676.00,98.81
2675.00,98.81
2674.00,98.79
2673.00,98.78
2672.00,98.77
2671.00,98.77
2670.00,98.78
2669.00,98.79
2668.00,98.79
2667.00,98.78
2666.00,98.78
2665.00,98.78
2664.00,98.77
2663.00,98.76
2662.00,98.74
2661.00,98.72
2660.00,98.70
2659.00,98.68
2658.00,98.67
2657.00,98.65
2656.00,98.64
2655.00,98.64
2654.00,98.64
2653.00,98.64
2652.00,98.64
2651.00,98.64
2650.00,98.64
2649.00,98.65
2648.00,98.65
2647.00,98.63
2646.00,98.62
2645.00,98.61
2644.00,98.60
2643.00,98.60
2642.00,98.59
2641.00,98.57
2640.00,98.55
2639.00,98.55
2638.00,98.56
2637.00,98.58
2636.00,98.60
2635.00,98.61
2634.00,98.61
2633.00,98.59
2632.00,98.57
2631.00,98.54
2630.00,98.52
2629.00,98.51
2628.00,98.51
2627.00,98.52
2626.00,98.52
2625.00,98.51
2624.00,98.50
2623.00,98.50
2622.00,98.51
2621.00,98.51
2620.00,98.51
2619.00,98.49
2618.00,98.47
2617.00,98.46
2616.00,98.47
2615.00,98.49
2614.00,98.51
2613.00,98.50
2612.00,98.49
2611.00,98.49
2610.00,98.49
2609.00,98.49
2608.00,98.48
2607.00,98.47
2606.00,98.46
2605.00,98.45
2604.00,98.44
2603.00,98.44
2602.00,98.44
2601.00,98.44
2600.00,98.44
2599.00,98.42
2598.00,98.41
2597.00,98.40
2596.00,98.40
2595.00,98.40
2594.00,98.41
2593.00,98.41
2592.00,98.40
2591.00,98.40
2590.00,98.40
2589.00,98.39
2588.00,98.38
2587.00,98.36
2586.00,98.34
2585.00,98.33
2584.00,98.33
2583.00,98.33
2582.00,98.34
2581.00,98.34
2580.00,98.35
2579.00,98.35
2578.00,98.33
2577.00,98.33
2576.00,98.33
2575.00,98.35
2574.00,98.37
2573.00,98.38
2572.00,98.38
2571.00,98.37
2570.00,98.36
2569.00,98.35
2568.00,98.35
2567.00,98.34
2566.00,98.32
2565.00,98.31
2564.00,98.31
2563.00,98.32
2562.00,98.32
2561.00,98.31
2560.00,98.28
2559.00,98.26
2558.00,98.24
2557.00,98.25
2556.00,98.27
2555.00,98.29
2554.00,98.30
2553.00,98.31
2552.00,98.31
2551.00,98.30
2550.00,98.29
2549.00,98.28
2548.00,98.28
2547.00,98.29
2546.00,98.30
2545.00,98.30
2544.00,98.30
2543.00,98.29
2542.00,98.27
2541.00,98.25
2540.00,98.23
2539.00,98.24
2538.00,98.26
2537.00,98.26
2536.00,98.25
2535.00,98.24
2534.00,98.22
2533.00,98.22
2532.00,98.22
2531.00,98.24
2530.00,98.26
2529.00,98.27
2528.00,98.26
2527.00,98.24
2526.00,98.22
2525.00,98.21
2524.00,98.22
2523.00,98.23
2522.00,98.25
2521.00,98.26
2520.00,98.28
2519.00,98.30
2518.00,98.32
2517.00,98.33
2516.00,98.33
2515.00,98.32
2514.00,98.32
2513.00,98.31
2512.00,98.29
2511.00,98.27
2510.00,98.26
2509.00,98.27
2508.00,98.29
2507.00,98.29
2506.00,98.29
2505.00,98.29
2504.00,98.29
2503.00,98.29
2502.00,98.28
2501.00,98.27
2500.00,98.25
2499.00,98.24
2498.00,98.22
2497.00,98.21
2496.00,98.20
2495.00,98.21
2494.00,98.23
2493.00,98.27
2492.00,98.31
2491.00,98.32
2490.00,98.33
2489.00,98.32
2488.00,98.31
2487.00,98.30
2486.00,98.29
2485.00,98.29
2484.00,98.28
2483.00,98.28
2482.00,98.28
2481.00,98.28
2480.00,98.28
2479.00,98.28
2478.00,98.28
2477.00,98.27
2476.00,98.26
2475.00,98.24
2474.00,98.24
2473.00,98.25
2472.00,98.26
2471.00,98.28
2470.00,98.28
2469.00,98.26
2468.00,98.24
2467.00,98.24
2466.00,98.25
2465.00,98.27
2464.00,98.28
2463.00,98.28
2462.00,98.27
2461.00,98.27
2460.00,98.27
2459.00,98.26
2458.00,98.25
2457.00,98.23
2456.00,98.21
2455.00,98.20
2454.00,98.18
2453.00,98.18
2452.00,98.21
2451.00,98.25
2450.00,98.29
2449.00,98.30
2448.00,98.30
2447.00,98.28
2446.00,98.26
2445.00,98.25
2444.00,98.24
2443.00,98.23
2442.00,98.22
2441.00,98.23
2440.00,98.25
2439.00,98.25
2438.00,98.25
2437.00,98.25
2436.00,98.25
2435.00,98.27
2434.00,98.29
2433.00,98.30
2432.00,98.30
2431.00,98.29
2430.00,98.27
2429.00,98.26
2428.00,98.26
2427.00,98.28
2426.00,98.31
2425.00,98.32
2424.00,98.33
2423.00,98.31
2422.00,98.29
2421.00,98.27
2420.00,98.26
2419.00,98.26
2418.00,98.28
2417.00,98.29
2416.00,98.30
2415.00,98.31
2414.00,98.32
2413.00,98.32
2412.00,98.31
2411.00,98.30
2410.00,98.29
2409.00,98.30
2408.00,98.33
2407.00,98.36
2406.00,98.39
2405.00,98.40
2404.00,98.40
2403.00,98.38
2402.00,98.36
2401.00,98.35
2400.00,98.35
2399.00,98.35
2398.00,98.36
2397.00,98.36
2396.00,98.38
2395.00,98.39
2394.00,98.39
2393.00,98.38
2392.00,98.38
2391.00,98.38
2390.00,98.38
2389.00,98.39
2388.00,98.41
2387.00,98.41
2386.00,98.42
2385.00,98.44
2384.00,98.45
2383.00,98.48
2382.00,98.51
2381.00,98.53
2380.00,98.55
2379.00,98.57
2378.00,98.57
2377.00,98.56
2376.00,98.55
2375.00,98.56
2374.00,98.60
2373.00,98.65
2372.00,98.70
2371.00,98.71
2370.00,98.69
2369.00,98.65
2368.00,98.61
2367.00,98.60
2366.00,98.59
2365.00,98.57
2364.00,98.53
2363.00,98.52
2362.00,98.59
2361.00,98.69
2360.00,98.76
2359.00,98.76
2358.00,98.70
2357.00,98.65
2356.00,98.63
2355.00,98.64
2354.00,98.65
2353.00,98.64
2352.00,98.65
2351.00,98.68
2350.00,98.71
2349.00,98.74
2348.00,98.76
2347.00,98.78
2346.00,98.78
2345.00,98.75
2344.00,98.67
2343.00,98.58
2342.00,98.51
2341.00,98.49
2340.00,98.50
2339.00,98.53
2338.00,98.54
2337.00,98.53
2336.00,98.52
2335.00,98.53
2334.00,98.55
2333.00,98.57
2332.00,98.56
2331.00,98.52
2330.00,98.47
2329.00,98.42
2328.00,98.39
2327.00,98.36
2326.00,98.32
2325.00,98.29
2324.00,98.25
2323.00,98.20
2322.00,98.13
2321.00,98.06
2320.00,98.04
2319.00,98.05
2318.00,98.10
2317.00,98.13
2316.00,98.14
2315.00,98.15
2314.00,98.17
2313.00,98.19
2312.00,98.19
2311.00,98.17
2310.00,98.15
2309.00,98.13
2308.00,98.14
2307.00,98.15
2306.00,98.16
2305.00,98.16
2304.00,98.15
2303.00,98.14
2302.00,98.14
2301.00,98.15
2300.00,98.14
2299.00,98.12
2298.00,98.09
2297.00,98.05
2296.00,98.02
2295.00,98.01
2294.00,98.00
2293.00,97.99
2292.00,97.98
2291.00,97.97
2290.00,97.97
2289.00,97.96
2288.00,97.94
2287.00,97.91
2286.00,97.87
2285.00,97.84
2284.00,97.83
2283.00,97.84
2282.00,97.85
2281.00,97.85
2280.00,97.86
2279.00,97.86
2278.00,97.85
2277.00,97.85
2276.00,97.84
2275.00,97.84
2274.00,97.83
2273.00,97.80
2272.00,97.75
2271.00,97.69
2270.00,97.64
2269.00,97.60
2268.00,97.58
2267.00,97.56
2266.00,97.55
2265.00,97.56
2264.00,97.56
2263.00,97.53
2262.00,97.46
2261.00,97.36
2260.00,97.24
2259.00,97.12
2258.00,96.97
2257.00,96.81
2256.00,96.62
2255.00,96.41
2254.00,96.17
2253.00,95.94
2252.00,95.69
2251.00,95.43
2250.00,95.14
2249.00,94.80
2248.00,94.45
2247.00,94.12
2246.00,93.84
2245.00,93.62
2244.00,93.48
2243.00,93.41
2242.00,93.44
2241.00,93.57
2240.00,93.80
2239.00,94.11
2238.00,94.49
2237.00,94.89
2236.00,95.29
2235.00,95.66
2234.00,95.98
2233.00,96.26
2232.00,96.50
2231.00,96.70
2230.00,96.84
2229.00,96.94
2228.00,97.01
2227.00,97.06
2226.00,97.07
2225.00,97.08
2224.00,97.07
2223.00,97.06
2222.00,97.06
2221.00,97.08
2220.00,97.11
2219.00,97.14
2218.00,97.14
2217.00,97.11
2216.00,97.04
2215.00,96.99
2214.00,96.99
2213.00,97.04
2212.00,97.09
2211.00,97.14
2210.00,97.17
2209.00,97.22
2208.00,97.28
2207.00,97.29
2206.00,97.24
2205.00,97.14
2204.00,97.03
2203.00,96.97
2202.00,96.97
2201.00,97.02
2200.00,97.09
2199.00,97.12
2198.00,97.11
2197.00,97.03
2196.00,96.92
2195.00,96.81
2194.00,96.75
2193.00,96.76
2192.00,96.85
2191.00,96.96
2190.00,97.03
2189.00,97.06
2188.00,97.06
2187.00,97.05
2186.00,97.02
2185.00,96.98
2184.00,96.95
2183.00,96.94
2182.00,96.95
2181.00,96.94
2180.00,96.93
2179.00,96.92
2178.00,96.92
2177.00,96.94
2176.00,96.93
2175.00,96.89
2174.00,96.83
2173.00,96.80
2172.00,96.80
2171.00,96.83
2170.00,96.84
2169.00,96.81
2168.00,96.77
2167.00,96.74
2166.00,96.73
2165.00,96.72
2164.00,96.68
2163.00,96.62
2162.00,96.58
2161.00,96.59
2160.00,96.68
2159.00,96.79
2158.00,96.87
2157.00,96.93
2156.00,96.96
2155.00,96.99
2154.00,97.02
2153.00,97.06
2152.00,97.13
2151.00,97.20
2150.00,97.27
2149.00,97.33
2148.00,97.39
2147.00,97.41
2146.00,97.39
2145.00,97.33
2144.00,97.30
2143.00,97.28
2142.00,97.27
2141.00,97.26
2140.00,97.26
2139.00,97.29
2138.00,97.34
2137.00,97.39
2136.00,97.44
2135.00,97.49
2134.00,97.52
2133.00,97.55
2132.00,97.58
2131.00,97.63
2130.00,97.67
2129.00,97.69
2128.00,97.69
2127.00,97.69
2126.00,97.69
2125.00,97.69
2124.00,97.69
2123.00,97.67
2122.00,97.63
2121.00,97.57
2120.00,97.54
2119.00,97.57
2118.00,97.63
2117.00,97.66
2116.00,97.66
2115.00,97.64
2114.00,97.62
2113.00,97.61
2112.00,97.61
2111.00,97.61
2110.00,97.60
2109.00,97.57
2108.00,97.55
2107.00,97.55
2106.00,97.56
2105.00,97.56
2104.00,97.54
2103.00,97.50
2102.00,97.46
2101.00,97.43
2100.00,97.43
2099.00,97.44
2098.00,97.47
2097.00,97.53
2096.00,97.58
2095.00,97.61
2094.00,97.62
2093.00,97.60
2092.00,97.58
2091.00,97.58
2090.00,97.57
2089.00,97.55
2088.00,97.53
2087.00,97.52
2086.00,97.53
2085.00,97.55
2084.00,97.56
2083.00,97.53
2082.00,97.49
2081.00,97.45
2080.00,97.44
2079.00,97.46
2078.00,97.48
2077.00,97.48
2076.00,97.46
2075.00,97.43
2074.00,97.39
2073.00,97.36
2072.00,97.35
2071.00,97.36
2070.00,97.37
2069.00,97.39
2068.00,97.41
2067.00,97.45
2066.00,97.47
2065.00,97.44
2064.00,97.37
2063.00,97.31
2062.00,97.30
2061.00,97.33
2060.00,97.38
2059.00,97.41
2058.00,97.44
2057.00,97.45
2056.00,97.44
2055.00,97.38
2054.00,97.27
2053.00,97.13
2052.00,97.02
2051.00,96.99
2050.00,97.02
2049.00,97.07
2048.00,97.12
2047.00,97.13
2046.00,97.11
2045.00,97.06
2044.00,96.99
2043.00,96.93
2042.00,96.88
2041.00,96.83
2040.00,96.79
2039.00,96.77
2038.00,96.79
2037.00,96.81
2036.00,96.80
2035.00,96.76
2034.00,96.70
2033.00,96.66
2032.00,96.65
2031.00,96.67
2030.00,96.71
2029.00,96.75
2028.00,96.78
2027.00,96.81
2026.00,96.84
2025.00,96.88
2024.00,96.90
2023.00,96.89
2022.00,96.83
2021.00,96.74
2020.00,96.66
2019.00,96.63
2018.00,96.66
2017.00,96.72
2016.00,96.77
2015.00,96.80
2014.00,96.82
2013.00,96.83
2012.00,96.83
2011.00,96.84
2010.00,96.84
2009.00,96.86
2008.00,96.90
2007.00,96.98
2006.00,97.07
2005.00,97.15
2004.00,97.18
2003.00,97.14
2002.00,97.06
2001.00,96.99
2000.00,96.95
1999.00,96.94
1998.00,96.95
1997.00,96.97
1996.00,97.01
1995.00,97.05
1994.00,97.09
1993.00,97.11
1992.00,97.12
1991.00,97.13
1990.00,97.13
1989.00,97.11
1988.00,97.07
1987.00,97.03
1986.00,96.98
1985.00,96.94
1984.00,96.89
1983.00,96.84
1982.00,96.79
1981.00,96.76
1980.00,96.76
1979.00,96.79
1978.00,96.85
1977.00,96.92
1976.00,96.99
1975.00,97.05
1974.00,97.11
1973.00,97.16
1972.00,97.17
1971.00,97.15
1970.00,97.11
1969.00,97.08
1968.00,97.08
1967.00,97.10
1966.00,97.12
1965.00,97.14
1964.00,97.15
1963.00,97.16
1962.00,97.18
1961.00,97.19
1960.00,97.17
1959.00,97.15
1958.00,97.14
1957.00,97.16
1956.00,97.22
1955.00,97.31
1954.00,97.40
1953.00,97.45
1952.00,97.46
1951.00,97.43
1950.00,97.40
1949.00,97.40
1948.00,97.43
1947.00,97.46
1946.00,97.49
1945.00,97.52
1944.00,97.54
1943.00,97.55
1942.00,97.56
1941.00,97.55
1940.00,97.56
1939.00,97.57
1938.00,97.59
1937.00,97.60
1936.00,97.61
1935.00,97.62
1934.00,97.62
1933.00,97.63
1932.00,97.63
1931.00,97.64
1930.00,97.66
1929.00,97.67
1928.00,97.68
1927.00,97.69
1926.00,97.71
1925.00,97.73
1924.00,97.76
1923.00,97.78
1922.00,97.80
1921.00,97.80
1920.00,97.80
1919.00,97.80
1918.00,97.82
1917.00,97.84
1916.00,97.85
1915.00,97.84
1914.00,97.82
1913.00,97.81
1912.00,97.81
1911.00,97.81
1910.00,97.80
1909.00,97.78
1908.00,97.77
1907.00,97.78
1906.00,97.79
1905.00,97.79
1904.00,97.79
1903.00,97.79
1902.00,97.78
1901.00,97.79
1900.00,97.80
1899.00,97.82
1898.00,97.83
1897.00,97.84
1896.00,97.87
1895.00,97.90
1894.00,97.93
1893.00,97.94
1892.00,97.93
1891.00,97.90
1890.00,97.88
1889.00,97.88
1888.00,97.89
1887.00,97.91
1886.00,97.91
1885.00,97.92
1884.00,97.93
1883.00,97.94
1882.00,97.94
1881.00,97.93
1880.00,97.91
1879.00,97.90
1878.00,97.91
1877.00,97.94
1876.00,97.96
1875.00,97.96
1874.00,97.94
1873.00,97.93
1872.00,97.94
1871.00,97.96
1870.00,97.98
1869.00,97.98
1868.00,97.97
1867.00,97.95
1866.00,97.94
1865.00,97.92
1864.00,97.90
1863.00,97.90
1862.00,97.91
1861.00,97.92
1860.00,97.94
1859.00,97.97
1858.00,98.01
1857.00,98.03
1856.00,98.03
1855.00,98.01
1854.00,97.99
1853.00,97.98
1852.00,98.00
1851.00,98.02
1850.00,98.04
1849.00,98.04
1848.00,98.04
1847.00,98.03
1846.00,98.04
1845.00,98.06
1844.00,98.06
1843.00,98.03
1842.00,98.00
1841.00,97.98
1840.00,97.98
1839.00,98.00
1838.00,98.02
1837.00,98.03
1836.00,98.03
1835.00,98.03
1834.00,98.03
1833.00,98.04
1832.00,98.05
1831.00,98.08
1830.00,98.10
1829.00,98.10
1828.00,98.09
1827.00,98.07
1826.00,98.05
1825.00,98.05
1824.00,98.05
1823.00,98.06
1822.00,98.07
1821.00,98.10
1820.00,98.13
1819.00,98.16
1818.00,98.17
1817.00,98.16
1816.00,98.15
1815.00,98.15
1814.00,98.17
1813.00,98.18
1812.00,98.19
1811.00,98.19
1810.00,98.17
1809.00,98.16
1808.00,98.15
1807.00,98.14
1806.00,98.14
1805.00,98.14
1804.00,98.14
1803.00,98.15
1802.00,98.15
1801.00,98.16
1800.00,98.17
1799.00,98.18
1798.00,98.20
1797.00,98.20
1796.00,98.19
1795.00,98.18
1794.00,98.18
1793.00,98.19
1792.00,98.21
1791.00,98.22
1790.00,98.21
1789.00,98.19
1788.00,98.17
1787.00,98.16
1786.00,98.16
1785.00,98.15
1784.00,98.15
1783.00,98.14
1782.00,98.14
1781.00,98.15
1780.00,98.16
1779.00,98.17
1778.00,98.18
1777.00,98.19
1776.00,98.20
1775.00,98.20
1774.00,98.20
1773.00,98.19
1772.00,98.18
1771.00,98.16
1770.00,98.14
1769.00,98.13
1768.00,98.12
1767.00,98.13
1766.00,98.13
1765.00,98.13
1764.00,98.12
1763.00,98.09
1762.00,98.05
1761.00,98.01
1760.00,97.98
1759.00,97.96
1758.00,97.92
1757.00,97.87
1756.00,97.80
1755.00,97.72
1754.00,97.63
1753.00,97.54
1752.00,97.43
1751.00,97.29
1750.00,97.11
1749.00,96.92
1748.00,96.70
1747.00,96.47
1746.00,96.23
1745.00,95.97
1744.00,95.68
1743.00,95.38
1742.00,95.08
1741.00,94.78
1740.00,94.46
1739.00,94.15
1738.00,93.88
1737.00,93.66
1736.00,93.46
1735.00,93.23
1734.00,93.00
1733.00,92.83
1732.00,92.74
1731.00,92.69
1730.00,92.68
1729.00,92.70
1728.00,92.77
1727.00,92.88
1726.00,93.04
1725.00,93.23
1724.00,93.46
1723.00,93.70
1722.00,93.94
1721.00,94.18
1720.00,94.43
1719.00,94.71
1718.00,95.04
1717.00,95.35
1716.00,95.60
1715.00,95.81
1714.00,96.01
1713.00,96.19
1712.00,96.36
1711.00,96.53
1710.00,96.68
1709.00,96.81
1708.00,96.92
1707.00,97.02
1706.00,97.09
1705.00,97.15
1704.00,97.19
1703.00,97.24
1702.00,97.29
1701.00,97.34
1700.00,97.40
1699.00,97.45
1698.00,97.50
1697.00,97.53
1696.00,97.55
1695.00,97.55
1694.00,97.56
1693.00,97.56
1692.00,97.57
1691.00,97.58
1690.00,97.59
1689.00,97.60
1688.00,97.61
1687.00,97.62
1686.00,97.62
1685.00,97.63
1684.00,97.63
1683.00,97.64
1682.00,97.66
1681.00,97.68
1680.00,97.71
1679.00,97.72
1678.00,97.72
1677.00,97.73
1676.00,97.75
1675.00,97.76
1674.00,97.76
1673.00,97.76
1672.00,97.76
1671.00,97.76
1670.00,97.75
1669.00,97.74
1668.00,97.73
1667.00,97.74
1666.00,97.74
1665.00,97.75
1664.00,97.75
1663.00,97.75
1662.00,97.75
1661.00,97.75
1660.00,97.75
1659.00,97.76
1658.00,97.76
1657.00,97.76
1656.00,97.74
1655.00,97.73
1654.00,97.71
1653.00,97.66
1652.00,97.64
1651.00,97.64
1650.00,97.65
1649.00,97.65
1648.00,97.65
1647.00,97.64
1646.00,97.62
1645.00,97.60
1644.00,97.59
1643.00,97.59
1642.00,97.59
1641.00,97.58
1640.00,97.56
1639.00,97.53
1638.00,97.50
1637.00,97.48
1636.00,97.46
1635.00,97.45
1634.00,97.46
1633.00,97.47
1632.00,97.47
1631.00,97.46
1630.00,97.45
1629.00,97.44
1628.00,97.42
1627.00,97.40
1626.00,97.39
1625.00,97.37
1624.00,97.37
1623.00,97.38
1622.00,97.39
1621.00,97.41
1620.00,97.44
1619.00,97.46
1618.00,97.48
1617.00,97.50
1616.00,97.51
1615.00,97.52
1614.00,97.54
1613.00,97.56
1612.00,97.58
1611.00,97.60
1610.00,97.61
1609.00,97.63
1608.00,97.65
1607.00,97.68
1606.00,97.69
1605.00,97.71
1604.00,97.73
1603.00,97.75
1602.00,97.77
1601.00,97.79
1600.00,97.81
1599.00,97.82
1598.00,97.82
1597.00,97.82
1596.00,97.83
1595.00,97.85
1594.00,97.87
1593.00,97.90
1592.00,97.92
1591.00,97.93
1590.00,97.93
1589.00,97.94
1588.00,97.95
1587.00,97.96
1586.00,97.96
1585.00,97.96
1584.00,97.96
1583.00,97.96
1582.00,97.95
1581.00,97.95
1580.00,97.95
1579.00,97.96
1578.00,97.98
1577.00,97.99
1576.00,97.99
1575.00,97.98
1574.00,97.97
1573.00,97.95
1572.00,97.95
1571.00,97.97
1570.00,97.98
1569.00,97.99
1568.00,97.99
1567.00,97.99
1566.00,97.98
1565.00,97.98
1564.00,97.99
1563.00,97.99
1562.00,97.99
1561.00,97.99
1560.00,98.01
1559.00,97.99
1558.00,97.96
1557.00,97.94
1556.00,97.94
1555.00,97.94
1554.00,97.95
1553.00,97.96
1552.00,97.96
1551.00,97.96
1550.00,97.95
1549.00,97.94
1548.00,97.94
1547.00,97.95
1546.00,97.96
1545.00,97.97
1544.00,97.96
1543.00,97.95
1542.00,97.95
1541.00,97.97
1540.00,97.98
1539.00,97.98
1538.00,97.99
1537.00,97.99
1536.00,97.98
1535.00,97.97
1534.00,97.97
1533.00,97.97
1532.00,97.96
1531.00,97.96
1530.00,97.96
1529.00,97.96
1528.00,97.95
1527.00,97.96
1526.00,97.97
1525.00,97.99
1524.00,98.00
1523.00,98.01
1522.00,98.01
1521.00,98.01
1520.00,98.00
1519.00,98.01
1518.00,98.01
1517.00,98.00
1516.00,97.99
1515.00,97.98
1514.00,97.98
1513.00,97.98
1512.00,97.98
1511.00,97.98
1510.00,97.98
1509.00,97.96
1508.00,97.95
1507.00,97.94
1506.00,97.94
1505.00,97.95
1504.00,97.95
1503.00,97.95
1502.00,97.96
1501.00,97.97
1500.00,97.97
1499.00,97.97
1498.00,97.97
1497.00,97.97
1496.00,97.97
1495.00,97.98
1494.00,97.98
1493.00,97.97
1492.00,97.96
1491.00,97.97
1490.00,97.97
1489.00,97.97
1488.00,97.95
1487.00,97.94
1486.00,97.94
1485.00,97.94
1484.00,97.93
1483.00,97.91
1482.00,97.89
1481.00,97.87
1480.00,97.85
1479.00,97.85
1478.00,97.84
1477.00,97.82
1476.00,97.77
1475.00,97.70
1474.00,97.63
1473.00,97.55
1472.00,97.47
1471.00,97.40
1470.00,97.33
1469.00,97.24
1468.00,97.11
1467.00,96.96
1466.00,96.74
1465.00,96.44
1464.00,96.10
1463.00,95.76
1462.00,95.43
1461.00,95.09
1460.00,94.72
1459.00,94.31
1458.00,93.82
1457.00,93.27
1456.00,92.81
1455.00,92.54
1454.00,92.37
1453.00,92.26
1452.00,92.18
1451.00,92.16
1450.00,92.19
1449.00,92.26
1448.00,92.38
1447.00,92.54
1446.00,92.72
1445.00,92.91
1444.00,93.11
1443.00,93.33
1442.00,93.57
1441.00,93.79
1440.00,93.99
1439.00,94.17
1438.00,94.35
1437.00,94.55
1436.00,94.78
1435.00,94.99
1434.00,95.17
1433.00,95.36
1432.00,95.57
1431.00,95.80
1430.00,96.02
1429.00,96.22
1428.00,96.40
1427.00,96.56
1426.00,96.70
1425.00,96.83
1424.00,96.94
1423.00,97.02
1422.00,97.07
1421.00,97.12
1420.00,97.17
1419.00,97.22
1418.00,97.27
1417.00,97.31
1416.00,97.34
1415.00,97.37
1414.00,97.40
1413.00,97.44
1412.00,97.46
1411.00,97.47
1410.00,97.48
1409.00,97.49
1408.00,97.50
1407.00,97.51
1406.00,97.52
1405.00,97.52
1404.00,97.51
1403.00,97.49
1402.00,97.47
1401.00,97.45
1400.00,97.43
1399.00,97.41
1398.00,97.37
1397.00,97.33
1396.00,97.27
1395.00,97.22
1394.00,97.16
1393.00,97.11
1392.00,97.05
1391.00,96.99
1390.00,96.93
1389.00,96.88
1388.00,96.83
1387.00,96.78
1386.00,96.73
1385.00,96.69
1384.00,96.65
1383.00,96.62
1382.00,96.58
1381.00,96.55
1380.00,96.51
1379.00,96.48
1378.00,96.45
1377.00,96.41
1376.00,96.36
1375.00,96.31
1374.00,96.25
1373.00,96.20
1372.00,96.16
1371.00,96.13
1370.00,96.09
1369.00,96.06
1368.00,96.03
1367.00,96.00
1366.00,95.98
1365.00,95.97
1364.00,95.95
1363.00,95.93
1362.00,95.90
1361.00,95.88
1360.00,95.86
1359.00,95.85
1358.00,95.85
1357.00,95.85
1356.00,95.84
1355.00,95.83
1354.00,95.82
1353.00,95.81
1352.00,95.81
1351.00,95.82
1350.00,95.84
1349.00,95.88
1348.00,95.92
1347.00,95.96
1346.00,95.99
1345.00,96.00
1344.00,96.03
1343.00,96.06
1342.00,96.11
1341.00,96.15
1340.00,96.19
1339.00,96.23
1338.00,96.26
1337.00,96.30
1336.00,96.32
1335.00,96.33
1334.00,96.35
1333.00,96.38
1332.00,96.41
1331.00,96.43
1330.00,96.44
1329.00,96.46
1328.00,96.47
1327.00,96.49
1326.00,96.50
1325.00,96.50
1324.00,96.49
1323.00,96.48
1322.00,96.47
1321.00,96.47
1320.00,96.47
1319.00,96.48
1318.00,96.49
1317.00,96.50
1316.00,96.51
1315.00,96.50
1314.00,96.49
1313.00,96.48
1312.00,96.48
1311.00,96.49
1310.00,96.51
1309.00,96.52
1308.00,96.53
1307.00,96.53
1306.00,96.52
1305.00,96.51
1304.00,96.51
1303.00,96.50
1302.00,96.50
1301.00,96.50
1300.00,96.50
1299.00,96.49
1298.00,96.48
1297.00,96.46
1296.00,96.45
1295.00,96.44
1294.00,96.42
1293.00,96.39
1292.00,96.37
1291.00,96.35
1290.00,96.34
1289.00,96.32
1288.00,96.29
1287.00,96.26
1286.00,96.22
1285.00,96.17
1284.00,96.13
1283.00,96.07
1282.00,96.01
1281.00,95.95
1280.00,95.90
1279.00,95.86
1278.00,95.82
1277.00,95.77
1276.00,95.71
1275.00,95.65
1274.00,95.61
1273.00,95.58
1272.00,95.57
1271.00,95.57
1270.00,95.56
1269.00,95.54
1268.00,95.51
1267.00,95.48
1266.00,95.45
1265.00,95.42
1264.00,95.41
1263.00,95.39
1262.00,95.38
1261.00,95.36
1260.00,95.34
1259.00,95.31
1258.00,95.29
1257.00,95.25
1256.00,95.21
1255.00,95.17
1254.00,95.13
1253.00,95.09
1252.00,95.05
1251.00,95.03
1250.00,95.02
1249.00,95.00
1248.00,94.99
1247.00,94.98
1246.00,94.98
1245.00,94.98
1244.00,94.98
1243.00,94.99
1242.00,94.99
1241.00,94.98
1240.00,94.96
1239.00,94.94
1238.00,94.92
1237.00,94.89
1236.00,94.87
1235.00,94.84
1234.00,94.80
1233.00,94.76
1232.00,94.72
1231.00,94.69
1230.00,94.68
1229.00,94.67
1228.00,94.66
1227.00,94.65
1226.00,94.64
1225.00,94.65
1224.00,94.66
1223.00,94.66
1222.00,94.65
1221.00,94.64
1220.00,94.63
1219.00,94.64
1218.00,94.66
1217.00,94.67
1216.00,94.65
1215.00,94.63
1214.00,94.61
1213.00,94.61
1212.00,94.62
1211.00,94.62
1210.00,94.60
1209.00,94.56
1208.00,94.52
1207.00,94.49
1206.00,94.47
1205.00,94.46
1204.00,94.44
1203.00,94.42
1202.00,94.42
1201.00,94.43
1200.00,94.44
1199.00,94.46
1198.00,94.48
1197.00,94.50
1196.00,94.51
1195.00,94.54
1194.00,94.58
1193.00,94.64
1192.00,94.72
1191.00,94.79
1190.00,94.85
1189.00,94.89
1188.00,94.92
1187.00,94.92
1186.00,94.92
1185.00,94.90
1184.00,94.87
1183.00,94.84
1182.00,94.80
1181.00,94.74
1180.00,94.67
1179.00,94.59
1178.00,94.51
1177.00,94.44
1176.00,94.36
1175.00,94.27
1174.00,94.19
1173.00,94.13
1172.00,94.07
1171.00,94.02
1170.00,93.99
1169.00,94.00
1168.00,94.05
1167.00,94.11
1166.00,94.18
1165.00,94.26
1164.00,94.36
1163.00,94.48
1162.00,94.61
1161.00,94.77
1160.00,94.93
1159.00,95.09
1158.00,95.27
1157.00,95.44
1156.00,95.60
1155.00,95.73
1154.00,95.85
1153.00,95.95
1152.00,96.05
1151.00,96.17
1150.00,96.28
1149.00,96.40
1148.00,96.48
1147.00,96.55
1146.00,96.59
1145.00,96.63
1144.00,96.66
1143.00,96.70
1142.00,96.75
1141.00,96.79
1140.00,96.84
1139.00,96.86
1138.00,96.85
1137.00,96.83
1136.00,96.82
1135.00,96.83
1134.00,96.85
1133.00,96.86
1132.00,96.84
1131.00,96.81
1130.00,96.78
1129.00,96.76
1128.00,96.74
1127.00,96.71
1126.00,96.69
1125.00,96.65
1124.00,96.60
1123.00,96.54
1122.00,96.46
1121.00,96.38
1120.00,96.31
1119.00,96.26
1118.00,96.22
1117.00,96.19
1116.00,96.15
1115.00,96.10
1114.00,96.07
1113.00,96.07
1112.00,96.08
1111.00,96.07
1110.00,96.01
1109.00,95.95
1108.00,95.92
1107.00,95.93
1106.00,95.94
1105.00,95.93
1104.00,95.90
1103.00,95.87
1102.00,95.84
1101.00,95.82
1100.00,95.80
1099.00,95.77
1098.00,95.76
1097.00,95.76
1096.00,95.74
1095.00,95.70
1094.00,95.67
1093.00,95.65
1092.00,95.63
1091.00,95.61
1090.00,95.56
1089.00,95.50
1088.00,95.44
1087.00,95.40
1086.00,95.36
1085.00,95.32
1084.00,95.25
1083.00,95.18
1082.00,95.11
1081.00,95.04
1080.00,94.98
1079.00,94.93
1078.00,94.88
1077.00,94.84
1076.00,94.82
1075.00,94.81
1074.00,94.80
1073.00,94.78
1072.00,94.75
1071.00,94.73
1070.00,94.72
1069.00,94.72
1068.00,94.71
1067.00,94.71
1066.00,94.73
1065.00,94.77
1064.00,94.82
1063.00,94.87
1062.00,94.91
1061.00,94.96
1060.00,95.00
1059.00,95.04
1058.00,95.09
1057.00,95.13
1056.00,95.18
1055.00,95.21
1054.00,95.25
1053.00,95.27
1052.00,95.30
1051.00,95.33
1050.00,95.37
1049.00,95.40
1048.00,95.43
1047.00,95.43
1046.00,95.42
1045.00,95.40
1044.00,95.38
1043.00,95.38
1042.00,95.38
1041.00,95.38
1040.00,95.37
1039.00,95.37
1038.00,95.41
1037.00,95.48
1036.00,95.57
1035.00,95.68
1034.00,95.77
1033.00,95.84
1032.00,95.89
1031.00,95.94
1030.00,96.00
1029.00,96.05
1028.00,96.08
1027.00,96.11
1026.00,96.13
1025.00,96.14
1024.00,96.15
1023.00,96.17
1022.00,96.18
1021.00,96.19
1020.00,96.20
1019.00,96.20
1018.00,96.21
1017.00,96.22
1016.00,96.22
1015.00,96.25
1014.00,96.28
1013.00,96.32
1012.00,96.34
1011.00,96.34
1010.00,96.35
1009.00,96.37
1008.00,96.41
1007.00,96.45
1006.00,96.50
1005.00,96.52
1004.00,96.53
1003.00,96.51
1002.00,96.50
1001.00,96.49
1000.00,96.50
999.00,96.53
998.00,96.56
997.00,96.61
996.00,96.64
995.00,96.65
994.00,96.63
993.00,96.60
992.00,96.58
991.00,96.58
990.00,96.60
989.00,96.62
988.00,96.62
987.00,96.62
986.00,96.63
985.00,96.65
984.00,96.68
983.00,96.70
982.00,96.70
981.00,96.71
980.00,96.70
979.00,96.70
978.00,96.69
977.00,96.67
976.00,96.66
975.00,96.65
974.00,96.65
973.00,96.66
972.00,96.67
971.00,96.67
970.00,96.68
969.00,96.67
968.00,96.66
967.00,96.63
966.00,96.60
965.00,96.58
964.00,96.59
963.00,96.60
962.00,96.62
961.00,96.62
960.00,96.61
959.00,96.59
958.00,96.57
957.00,96.57
956.00,96.57
955.00,96.57
954.00,96.57
953.00,96.58
952.00,96.59
951.00,96.60
950.00,96.62
949.00,96.63
948.00,96.64
947.00,96.65
946.00,96.66
945.00,96.67
944.00,96.69
943.00,96.71
942.00,96.74
941.00,96.77
940.00,96.78
939.00,96.76
938.00,96.75
937.00,96.74
936.00,96.75
935.00,96.76
934.00,96.78
933.00,96.80
932.00,96.82
931.00,96.81
930.00,96.78
929.00,96.76
928.00,96.75
927.00,96.76
926.00,96.78
925.00,96.79
924.00,96.80
923.00,96.80
922.00,96.80
921.00,96.79
920.00,96.79
919.00,96.80
918.00,96.80
917.00,96.80
916.00,96.81
915.00,96.81
914.00,96.82
913.00,96.83
912.00,96.84
911.00,96.86
910.00,96.88
909.00,96.89
908.00,96.87
907.00,96.84
906.00,96.82
905.00,96.82
904.00,96.84
903.00,96.87
902.00,96.90
901.00,96.93
900.00,96.95
899.00,96.95
898.00,96.93
897.00,96.92
896.00,96.91
895.00,96.91
894.00,96.90
893.00,96.89
892.00,96.89
891.00,96.90
890.00,96.91
889.00,96.91
888.00,96.91
887.00,96.91
886.00,96.91
885.00,96.90
884.00,96.89
883.00,96.88
882.00,96.89
881.00,96.91
880.00,96.91
879.00,96.89
878.00,96.85
877.00,96.82
876.00,96.81
875.00,96.83
874.00,96.86
873.00,96.89
872.00,96.90
871.00,96.89
870.00,96.87
869.00,96.86
868.00,96.87
867.00,96.86
866.00,96.84
865.00,96.83
864.00,96.84
863.00,96.85
862.00,96.84
861.00,96.80
860.00,96.78
859.00,96.77
858.00,96.78
857.00,96.79
856.00,96.80
855.00,96.80
854.00,96.79
853.00,96.77
852.00,96.73
851.00,96.70
850.00,96.66
849.00,96.63
848.00,96.62
847.00,96.62
846.00,96.62
845.00,96.62
844.00,96.61
843.00,96.58
842.00,96.57
841.00,96.57
840.00,96.59
839.00,96.60
838.00,96.59
837.00,96.55
836.00,96.52
835.00,96.51
834.00,96.51
833.00,96.52
832.00,96.53
831.00,96.53
830.00,96.52
829.00,96.50
828.00,96.49
827.00,96.50
826.00,96.53
825.00,96.55
824.00,96.54
823.00,96.52
822.00,96.50
821.00,96.51
820.00,96.54
819.00,96.58
818.00,96.60
817.00,96.63
816.00,96.66
815.00,96.68
814.00,96.68
813.00,96.64
812.00,96.59
811.00,96.55
810.00,96.54
809.00,96.55
808.00,96.56
807.00,96.57
806.00,96.57
805.00,96.57
804.00,96.57
803.00,96.56
802.00,96.54
801.00,96.52
800.00,96.51
799.00,96.50
798.00,96.49
797.00,96.47
796.00,96.46
795.00,96.46
794.00,96.47
793.00,96.49
792.00,96.51
791.00,96.52
790.00,96.49
789.00,96.44
788.00,96.39
787.00,96.36
786.00,96.34
785.00,96.32
784.00,96.30
783.00,96.28
782.00,96.26
781.00,96.26
780.00,96.27
779.00,96.27
778.00,96.25
777.00,96.21
776.00,96.16
775.00,96.14
774.00,96.14
773.00,96.16
772.00,96.20
771.00,96.23
770.00,96.25
769.00,96.25
768.00,96.25
767.00,96.25
766.00,96.24
765.00,96.24
764.00,96.25
763.00,96.27
762.00,96.29
761.00,96.31
760.00,96.32
759.00,96.32
758.00,96.29
757.00,96.22
756.00,96.16
755.00,96.11
754.00,96.06
753.00,96.01
752.00,95.98
751.00,95.99
750.00,96.06
749.00,96.15
748.00,96.23
747.00,96.30
746.00,96.34
745.00,96.36
744.00,96.38
743.00,96.42
742.00,96.45
741.00,96.48
740.00,96.49
739.00,96.51
738.00,96.53
737.00,96.57
736.00,96.58
735.00,96.57
734.00,96.56
733.00,96.57
732.00,96.60
731.00,96.62
730.00,96.62
729.00,96.60
728.00,96.59
727.00,96.58
726.00,96.58
725.00,96.60
724.00,96.64
723.00,96.70
722.00,96.73
721.00,96.73
720.00,96.71
719.00,96.68
718.00,96.67
717.00,96.67
716.00,96.68
715.00,96.69
714.00,96.70
713.00,96.69
712.00,96.65
711.00,96.63
710.00,96.64
709.00,96.66
708.00,96.65
707.00,96.60
706.00,96.54
705.00,96.54
704.00,96.58
703.00,96.62
702.00,96.61
701.00,96.58
700.00,96.55
699.00,96.53
698.00,96.53
697.00,96.54
696.00,96.56
695.00,96.58
694.00,96.60
693.00,96.60
692.00,96.59
691.00,96.55
690.00,96.50
689.00,96.46
688.00,96.45
687.00,96.45
686.00,96.44
685.00,96.41
684.00,96.37
683.00,96.36
682.00,96.37
681.00,96.38
680.00,96.38
679.00,96.36
678.00,96.34
677.00,96.36
676.00,96.40
675.00,96.44
674.00,96.41
673.00,96.35
672.00,96.30
671.00,96.28
670.00,96.32
669.00,96.39
668.00,96.45
667.00,96.46
666.00,96.44
665.00,96.41
664.00,96.39
663.00,96.36
662.00,96.32
661.00,96.25
660.00,96.17
659.00,96.09
658.00,96.06
657.00,96.08
656.00,96.16
655.00,96.29
654.00,96.46
653.00,96.57
652.00,96.56
651.00,96.41
650.00,96.18
649.00,95.96
648.00,95.81
647.00,95.77
646.00,95.83
645.00,95.95
644.00,96.02
643.00,95.99
642.00,95.90
641.00,95.89
640.00,95.97
639.00,96.05
638.00,96.03
637.00,95.98
636.00,95.97
635.00,96.01
634.00,96.04
633.00,96.09
632.00,96.21
631.00,96.36
630.00,96.42
629.00,96.28
628.00,96.04
627.00,95.85
626.00,95.79
625.00,95.81
624.00,95.85
623.00,95.93
622.00,96.09
621.00,96.34
620.00,96.58
619.00,96.63
618.00,96.42
617.00,96.10
616.00,95.85
615.00,95.65
614.00,95.41
613.00,95.17
612.00,95.05
611.00,95.11
610.00,95.24
609.00,95.33
608.00,95.35
607.00,95.34
606.00,95.30
605.00,95.24
604.00,95.05
603.00,94.57
602.00,93.78
601.00,93.01
600.00,92.77
599.00,93.32
598.00,94.33
597.00,95.26
596.00,95.82
595.00,96.08
594.00,96.19
593.00,96.23
592.00,96.20
591.00,96.02
590.00,95.69
589.00,95.34
588.00,95.32
587.00,95.78
586.00,96.45
585.00,96.72
584.00,96.34
583.00,95.60
582.00,95.04
581.00,94.86
580.00,94.86
579.00,94.88
578.00,94.96
577.00,95.23
576.00,95.63
575.00,95.95
574.00,96.15
573.00,96.49
572.00,97.11
571.00,97.71
570.00,97.71
569.00,96.94
568.00,95.72
567.00,94.58
566.00,93.96
565.00,93.98
564.00,94.57
563.00,95.44
562.00,96.17
561.00,96.47
560.00,96.30
559.00,95.75
558.00,95.09
557.00,94.70
556.00,94.73
555.00,94.84
554.00,94.48
553.00,93.66
552.00,92.99
551.00,93.02
550.00,93.65
