Created as New Dataset,12. Acrylic Courtaulds Dyed
cm-1,%T
4000.00,94.30
3999.00,94.29
3998.00,94.27
3997.00,94.25
3996.00,94.24
3995.00,94.23
3994.00,94.22
3993.00,94.21
3992.00,94.20
3991.00,94.20
3990.00,94.21
3989.00,94.23
3988.00,94.26
3987.00,94.27
3986.00,94.27
3985.00,94.26
3984.00,94.25
3983.00,94.24
3982.00,94.25
3981.00,94.25
3980.00,94.25
3979.00,94.23
3978.00,94.22
3977.00,94.20
3976.00,94.21
3975.00,94.23
3974.00,94.26
3973.00,94.28
3972.00,94.29
3971.00,94.30
3970.00,94.31
3969.00,94.32
3968.00,94.32
3967.00,94.31
3966.00,94.30
3965.00,94.29
3964.00,94.28
3963.00,94.29
3962.00,94.30
3961.00,94.31
3960.00,94.31
3959.00,94.32
3958.00,94.32
3957.00,94.31
3956.00,94.28
3955.00,94.26
3954.00,94.23
3953.00,94.21
3952.00,94.20
3951.00,94.20
3950.00,94.20
3949.00,94.20
3948.00,94.21
3947.00,94.21
3946.00,94.21
3945.00,94.21
3944.00,94.22
3943.00,94.23
3942.00,94.24
3941.00,94.22
3940.00,94.20
3939.00,94.19
3938.00,94.18
3937.00,94.19
3936.00,94.19
3935.00,94.19
3934.00,94.18
3933.00,94.19
3932.00,94.20
3931.00,94.22
3930.00,94.23
3929.00,94.22
3928.00,94.21
3927.00,94.18
3926.00,94.16
3925.00,94.16
3924.00,94.17
3923.00,94.18
3922.00,94.18
3921.00,94.18
3920.00,94.17
3919.00,94.17
3918.00,94.18
3917.00,94.20
3916.00,94.22
3915.00,94.24
3914.00,94.25
3913.00,94.26
3912.00,94.27
3911.00,94.27
3910.00,94.26
3909.00,94.25
3908.00,94.23
3907.00,94.21
3906.00,94.19
3905.00,94.18
3904.00,94.18
3903.00,94.19
3902.00,94.18
3901.00,94.17
3900.00,94.16
3899.00,94.16
3898.00,94.17
3897.00,94.17
3896.00,94.18
3895.00,94.18
3894.00,94.19
3893.00,94.20
3892.00,94.21
3891.00,94.22
3890.00,94.22
3889.00,94.20
3888.00,94.20
3887.00,94.21
3886.00,94.23
3885.00,94.23
3884.00,94.21
3883.00,94.17
3882.00,94.14
3881.00,94.13
3880.00,94.14
3879.00,94.16
3878.00,94.16
3877.00,94.16
3876.00,94.17
3875.00,94.19
3874.00,94.20
3873.00,94.20
3872.00,94.20
3871.00,94.19
3870.00,94.19
3869.00,94.18
3868.00,94.16
3867.00,94.14
3866.00,94.14
3865.00,94.14
3864.00,94.15
3863.00,94.15
3862.00,94.14
3861.00,94.13
3860.00,94.15
3859.00,94.16
3858.00,94.17
3857.00,94.14
3856.00,94.09
3855.00,94.03
3854.00,94.01
3853.00,94.02
3852.00,94.02
3851.00,94.00
3850.00,94.02
3849.00,94.07
3848.00,94.12
3847.00,94.15
3846.00,94.16
3845.00,94.16
3844.00,94.15
3843.00,94.14
3842.00,94.13
3841.00,94.13
3840.00,94.13
3839.00,94.14
3838.00,94.13
3837.00,94.11
3836.00,94.08
3835.00,94.07
3834.00,94.09
3833.00,94.13
3832.00,94.16
3831.00,94.17
3830.00,94.15
3829.00,94.12
3828.00,94.10
3827.00,94.09
3826.00,94.10
3825.00,94.11
3824.00,94.11
3823.00,94.11
3822.00,94.11
3821.00,94.11
3820.00,94.09
3819.00,94.06
3818.00,94.04
3817.00,94.06
3816.00,94.11
3815.00,94.14
3814.00,94.14
3813.00,94.13
3812.00,94.14
3811.00,94.15
3810.00,94.16
3809.00,94.15
3808.00,94.14
3807.00,94.15
3806.00,94.14
3805.00,94.13
3804.00,94.09
3803.00,94.06
3802.00,94.04
3801.00,94.04
3800.00,94.04
3799.00,94.04
3798.00,94.05
3797.00,94.09
3796.00,94.13
3795.00,94.16
3794.00,94.17
3793.00,94.18
3792.00,94.18
3791.00,94.19
3790.00,94.19
3789.00,94.19
3788.00,94.18
3787.00,94.17
3786.00,94.16
3785.00,94.17
3784.00,94.18
3783.00,94.19
3782.00,94.19
3781.00,94.19
3780.00,94.18
3779.00,94.17
3778.00,94.15
3777.00,94.14
3776.00,94.14
3775.00,94.14
3774.00,94.14
3773.00,94.13
3772.00,94.12
3771.00,94.11
3770.00,94.11
3769.00,94.11
3768.00,94.10
3767.00,94.09
3766.00,94.09
3765.00,94.09
3764.00,94.10
3763.00,94.09
3762.00,94.09
3761.00,94.08
3760.00,94.08
3759.00,94.09
3758.00,94.10
3757.00,94.10
3756.00,94.08
3755.00,94.04
3754.00,94.00
3753.00,93.95
3752.00,93.91
3751.00,93.88
3750.00,93.87
3749.00,93.84
3748.00,93.81
3747.00,93.79
3746.00,93.79
3745.00,93.83
3744.00,93.88
3743.00,93.90
3742.00,93.90
3741.00,93.90
3740.00,93.93
3739.00,93.97
3738.00,93.99
3737.00,94.00
3736.00,94.01
3735.00,94.00
3734.00,93.98
3733.00,93.95
3732.00,93.95
3731.00,93.95
3730.00,93.97
3729.00,93.98
3728.00,93.99
3727.00,94.00
3726.00,93.99
3725.00,93.98
3724.00,93.98
3723.00,93.99
3722.00,94.02
3721.00,94.03
3720.00,94.03
3719.00,94.03
3718.00,94.04
3717.00,94.04
3716.00,94.04
3715.00,94.02
3714.00,94.00
3713.00,93.97
3712.00,93.95
3711.00,93.94
3710.00,93.93
3709.00,93.93
3708.00,93.95
3707.00,93.98
3706.00,94.01
3705.00,94.03
3704.00,94.04
3703.00,94.03
3702.00,94.02
3701.00,94.01
3700.00,94.01
3699.00,94.02
3698.00,94.03
3697.00,94.05
3696.00,94.06
3695.00,94.05
3694.00,94.03
3693.00,94.00
3692.00,93.97
3691.00,93.95
3690.00,93.94
3689.00,93.96
3688.00,93.98
3687.00,93.99
3686.00,93.99
3685.00,94.00
3684.00,94.02
3683.00,94.04
3682.00,94.05
3681.00,94.04
3680.00,94.02
3679.00,94.01
3678.00,93.99
3677.00,93.99
3676.00,93.98
3675.00,93.95
3674.00,93.89
3673.00,93.81
3672.00,93.75
3671.00,93.74
3670.00,93.77
3669.00,93.81
3668.00,93.83
3667.00,93.85
3666.00,93.87
3665.00,93.90
3664.00,93.91
3663.00,93.92
3662.00,93.91
3661.00,93.89
3660.00,93.86
3659.00,93.83
3658.00,93.81
3657.00,93.81
3656.00,93.80
3655.00,93.79
3654.00,93.75
3653.00,93.71
3652.00,93.65
3651.00,93.59
3650.00,93.56
3649.00,93.57
3648.00,93.60
3647.00,93.63
3646.00,93.66
3645.00,93.70
3644.00,93.74
3643.00,93.78
3642.00,93.81
3641.00,93.82
3640.00,93.82
3639.00,93.79
3638.00,93.75
3637.00,93.71
3636.00,93.70
3635.00,93.71
3634.00,93.72
3633.00,93.72
3632.00,93.69
3631.00,93.63
3630.00,93.59
3629.00,93.59
3628.00,93.62
3627.00,93.63
3626.00,93.63
3625.00,93.63
3624.00,93.63
3623.00,93.62
3622.00,93.61
3621.00,93.61
3620.00,93.61
3619.00,93.63
3618.00,93.63
3617.00,93.62
3616.00,93.62
3615.00,93.61
3614.00,93.60
3613.00,93.59
3612.00,93.58
3611.00,93.59
3610.00,93.61
3609.00,93.63
3608.00,93.65
3607.00,93.65
3606.00,93.64
3605.00,93.64
3604.00,93.63
3603.00,93.63
3602.00,93.63
3601.00,93.64
3600.00,93.65
3599.00,93.66
3598.00,93.66
3597.00,93.67
3596.00,93.67
3595.00,93.68
3594.00,93.70
3593.00,93.72
3592.00,93.73
3591.00,93.72
3590.00,93.68
3589.00,93.65
3588.00,93.63
3587.00,93.64
3586.00,93.66
3585.00,93.66
3584.00,93.65
3583.00,93.63
3582.00,93.64
3581.00,93.66
3580.00,93.68
3579.00,93.71
3578.00,93.71
3577.00,93.71
3576.00,93.70
3575.00,93.70
3574.00,93.72
3573.00,93.73
3572.00,93.74
3571.00,93.73
3570.00,93.72
3569.00,93.70
3568.00,93.69
3567.00,93.68
3566.00,93.68
3565.00,93.68
3564.00,93.67
3563.00,93.67
3562.00,93.66
3561.00,93.66
3560.00,93.66
3559.00,93.67
3558.00,93.67
3557.00,93.67
3556.00,93.65
3555.00,93.64
3554.00,93.64
3553.00,93.64
3552.00,93.64
3551.00,93.63
3550.00,93.62
3549.00,93.60
3548.00,93.60
3547.00,93.60
3546.00,93.60
3545.00,93.59
3544.00,93.57
3543.00,93.56
3542.00,93.55
3541.00,93.57
3540.00,93.59
3539.00,93.62
3538.00,93.64
3537.00,93.65
3536.00,93.64
3535.00,93.62
3534.00,93.58
3533.00,93.56
3532.00,93.55
3531.00,93.55
3530.00,93.56
3529.00,93.57
3528.00,93.58
3527.00,93.59
3526.00,93.60
3525.00,93.60
3524.00,93.61
3523.00,93.62
3522.00,93.63
3521.00,93.64
3520.00,93.65
3519.00,93.66
3518.00,93.67
3517.00,93.68
3516.00,93.69
3515.00,93.70
3514.00,93.70
3513.00,93.70
3512.00,93.69
3511.00,93.66
3510.00,93.63
3509.00,93.61
3508.00,93.59
3507.00,93.57
3506.00,93.56
3505.00,93.57
3504.00,93.59
3503.00,93.63
3502.00,93.67
3501.00,93.69
3500.00,93.70
3499.00,93.69
3498.00,93.67
3497.00,93.66
3496.00,93.65
3495.00,93.65
3494.00,93.65
3493.00,93.64
3492.00,93.62
3491.00,93.62
3490.00,93.63
3489.00,93.65
3488.00,93.66
3487.00,93.67
3486.00,93.67
3485.00,93.67
3484.00,93.67
3483.00,93.67
3482.00,93.66
3481.00,93.65
3480.00,93.64
3479.00,93.63
3478.00,93.62
3477.00,93.62
3476.00,93.62
3475.00,93.63
3474.00,93.65
3473.00,93.67
3472.00,93.68
3471.00,93.67
3470.00,93.67
3469.00,93.67
3468.00,93.68
3467.00,93.69
3466.00,93.68
3465.00,93.66
3464.00,93.62
3463.00,93.59
3462.00,93.58
3461.00,93.59
3460.00,93.62
3459.00,93.67
3458.00,93.71
3457.00,93.73
3456.00,93.73
3455.00,93.73
3454.00,93.71
3453.00,93.69
3452.00,93.66
3451.00,93.63
3450.00,93.62
3449.00,93.63
3448.00,93.65
3447.00,93.67
3446.00,93.68
3445.00,93.69
3444.00,93.70
3443.00,93.71
3442.00,93.71
3441.00,93.71
3440.00,93.70
3439.00,93.69
3438.00,93.68
3437.00,93.68
3436.00,93.68
3435.00,93.67
3434.00,93.66
3433.00,93.65
3432.00,93.66
3431.00,93.67
3430.00,93.68
3429.00,93.70
3428.00,93.71
3427.00,93.72
3426.00,93.72
3425.00,93.72
3424.00,93.73
3423.00,93.73
3422.00,93.73
3421.00,93.71
3420.00,93.69
3419.00,93.69
3418.00,93.70
3417.00,93.72
3416.00,93.74
3415.00,93.75
3414.00,93.74
3413.00,93.73
3412.00,93.73
3411.00,93.72
3410.00,93.71
3409.00,93.70
3408.00,93.69
3407.00,93.68
3406.00,93.67
3405.00,93.67
3404.00,93.68
3403.00,93.70
3402.00,93.72
3401.00,93.73
3400.00,93.71
3399.00,93.68
3398.00,93.66
3397.00,93.66
3396.00,93.67
3395.00,93.68
3394.00,93.69
3393.00,93.69
3392.00,93.69
3391.00,93.69
3390.00,93.69
3389.00,93.69
3388.00,93.68
3387.00,93.68
3386.00,93.69
3385.00,93.70
3384.00,93.71
3383.00,93.72
3382.00,93.72
3381.00,93.71
3380.00,93.69
3379.00,93.68
3378.00,93.67
3377.00,93.67
3376.00,93.67
3375.00,93.67
3374.00,93.68
3373.00,93.70
3372.00,93.72
3371.00,93.73
3370.00,93.73
3369.00,93.71
3368.00,93.69
3367.00,93.68
3366.00,93.68
3365.00,93.68
3364.00,93.68
3363.00,93.68
3362.00,93.68
3361.00,93.69
3360.00,93.70
3359.00,93.72
3358.00,93.73
3357.00,93.72
3356.00,93.71
3355.00,93.70
3354.00,93.69
3353.00,93.70
3352.00,93.71
3351.00,93.72
3350.00,93.73
3349.00,93.73
3348.00,93.72
3347.00,93.70
3346.00,93.68
3345.00,93.67
3344.00,93.69
3343.00,93.70
3342.00,93.71
3341.00,93.71
3340.00,93.70
3339.00,93.70
3338.00,93.70
3337.00,93.70
3336.00,93.69
3335.00,93.69
3334.00,93.70
3333.00,93.72
3332.00,93.74
3331.00,93.76
3330.00,93.77
3329.00,93.76
3328.00,93.76
3327.00,93.75
3326.00,93.75
3325.00,93.75
3324.00,93.75
3323.00,93.74
3322.00,93.72
3321.00,93.70
3320.00,93.68
3319.00,93.68
3318.00,93.68
3317.00,93.70
3316.00,93.71
3315.00,93.72
3314.00,93.73
3313.00,93.73
3312.00,93.74
3311.00,93.74
3310.00,93.74
3309.00,93.74
3308.00,93.74
3307.00,93.74
3306.00,93.74
3305.00,93.73
3304.00,93.74
3303.00,93.75
3302.00,93.77
3301.00,93.77
3300.00,93.76
3299.00,93.74
3298.00,93.74
3297.00,93.74
3296.00,93.74
3295.00,93.74
3294.00,93.74
3293.00,93.75
3292.00,93.76
3291.00,93.77
3290.00,93.78
3289.00,93.78
3288.00,93.77
3287.00,93.76
3286.00,93.74
3285.00,93.73
3284.00,93.73
3283.00,93.73
3282.00,93.74
3281.00,93.75
3280.00,93.74
3279.00,93.73
3278.00,93.72
3277.00,93.72
3276.00,93.73
3275.00,93.74
3274.00,93.75
3273.00,93.76
3272.00,93.77
3271.00,93.78
3270.00,93.78
3269.00,93.78
3268.00,93.78
3267.00,93.78
3266.00,93.78
3265.00,93.78
3264.00,93.78
3263.00,93.78
3262.00,93.78
3261.00,93.79
3260.00,93.78
3259.00,93.76
3258.00,93.75
3257.00,93.75
3256.00,93.76
3255.00,93.77
3254.00,93.78
3253.00,93.79
3252.00,93.79
3251.00,93.79
3250.00,93.78
3249.00,93.77
3248.00,93.75
3247.00,93.75
3246.00,93.75
3245.00,93.77
3244.00,93.79
3243.00,93.79
3242.00,93.78
3241.00,93.77
3240.00,93.76
3239.00,93.75
3238.00,93.75
3237.00,93.75
3236.00,93.76
3235.00,93.78
3234.00,93.80
3233.00,93.81
3232.00,93.82
3231.00,93.82
3230.00,93.83
3229.00,93.83
3228.00,93.82
3227.00,93.81
3226.00,93.80
3225.00,93.80
3224.00,93.80
3223.00,93.79
3222.00,93.79
3221.00,93.80
3220.00,93.80
3219.00,93.80
3218.00,93.81
3217.00,93.81
3216.00,93.81
3215.00,93.81
3214.00,93.80
3213.00,93.81
3212.00,93.82
3211.00,93.84
3210.00,93.86
3209.00,93.86
3208.00,93.86
3207.00,93.86
3206.00,93.85
3205.00,93.85
3204.00,93.85
3203.00,93.85
3202.00,93.85
3201.00,93.85
3200.00,93.84
3199.00,93.84
3198.00,93.83
3197.00,93.83
3196.00,93.84
3195.00,93.85
3194.00,93.86
3193.00,93.87
3192.00,93.87
3191.00,93.87
3190.00,93.87
3189.00,93.88
3188.00,93.89
3187.00,93.91
3186.00,93.92
3185.00,93.93
3184.00,93.94
3183.00,93.95
3182.00,93.95
3181.00,93.95
3180.00,93.95
3179.00,93.94
3178.00,93.94
3177.00,93.94
3176.00,93.94
3175.00,93.94
3174.00,93.94
3173.00,93.93
3172.00,93.93
3171.00,93.93
3170.00,93.93
3169.00,93.94
3168.00,93.94
3167.00,93.95
3166.00,93.95
3165.00,93.96
3164.00,93.96
3163.00,93.96
3162.00,93.94
3161.00,93.93
3160.00,93.93
3159.00,93.94
3158.00,93.95
3157.00,93.97
3156.00,93.98
3155.00,93.97
3154.00,93.97
3153.00,93.98
3152.00,94.00
3151.00,94.01
3150.00,94.01
3149.00,94.00
3148.00,93.99
3147.00,93.99
3146.00,93.99
3145.00,94.00
3144.00,94.02
3143.00,94.02
3142.00,94.02
3141.00,94.02
3140.00,94.01
3139.00,94.00
3138.00,93.99
3137.00,93.99
3136.00,93.99
3135.00,94.00
3134.00,94.02
3133.00,94.02
3132.00,94.02
3131.00,94.01
3130.00,94.00
3129.00,93.99
3128.00,93.99
3127.00,93.98
3126.00,93.98
3125.00,93.98
3124.00,94.00
3123.00,94.02
3122.00,94.02
3121.00,94.02
3120.00,94.01
3119.00,94.00
3118.00,94.01
3117.00,94.03
3116.00,94.04
3115.00,94.04
3114.00,94.02
3113.00,94.01
3112.00,94.00
3111.00,94.02
3110.00,94.04
3109.00,94.07
3108.00,94.08
3107.00,94.09
3106.00,94.08
3105.00,94.07
3104.00,94.06
3103.00,94.06
3102.00,94.06
3101.00,94.06
3100.00,94.07
3099.00,94.06
3098.00,94.06
3097.00,94.06
3096.00,94.06
3095.00,94.06
3094.00,94.06
3093.00,94.06
3092.00,94.07
3091.00,94.09
3090.00,94.10
3089.00,94.11
3088.00,94.11
3087.00,94.12
3086.00,94.12
3085.00,94.12
3084.00,94.11
3083.00,94.10
3082.00,94.09
3081.00,94.09
3080.00,94.10
3079.00,94.11
3078.00,94.12
3077.00,94.12
3076.00,94.12
3075.00,94.12
3074.00,94.11
3073.00,94.10
3072.00,94.09
3071.00,94.08
3070.00,94.08
3069.00,94.08
3068.00,94.08
3067.00,94.08
3066.00,94.08
3065.00,94.07
3064.00,94.07
3063.00,94.09
3062.00,94.11
3061.00,94.13
3060.00,94.14
3059.00,94.14
3058.00,94.13
3057.00,94.13
3056.00,94.12
3055.00,94.12
3054.00,94.13
3053.00,94.13
3052.00,94.13
3051.00,94.13
3050.00,94.13
3049.00,94.13
3048.00,94.12
3047.00,94.11
3046.00,94.09
3045.00,94.07
3044.00,94.06
3043.00,94.06
3042.00,94.06
3041.00,94.08
3040.00,94.09
3039.00,94.11
3038.00,94.13
3037.00,94.13
3036.00,94.12
3035.00,94.10
3034.00,94.09
3033.00,94.09
3032.00,94.10
3031.00,94.12
3030.00,94.13
3029.00,94.12
3028.00,94.11
3027.00,94.09
3026.00,94.08
3025.00,94.08
3024.00,94.08
3023.00,94.08
3022.00,94.09
3021.00,94.09
3020.00,94.09
3019.00,94.09
3018.00,94.09
3017.00,94.09
3016.00,94.10
3015.00,94.09
3014.00,94.08
3013.00,94.06
3012.00,94.04
3011.00,94.04
3010.00,94.05
3009.00,94.05
3008.00,94.06
3007.00,94.06
3006.00,94.07
3005.00,94.08
3004.00,94.09
3003.00,94.08
3002.00,94.07
3001.00,94.06
3000.00,94.06
2999.00,94.06
2998.00,94.07
2997.00,94.07
2996.00,94.06
2995.00,94.04
2994.00,94.03
2993.00,94.02
2992.00,94.01
2991.00,94.01
2990.00,94.00
2989.00,94.00
2988.00,94.00
2987.00,94.00
2986.00,94.00
2985.00,94.00
2984.00,93.99
2983.00,93.98
2982.00,93.96
2981.00,93.95
2980.00,93.94
2979.00,93.94
2978.00,93.93
2977.00,93.93
2976.00,93.93
2975.00,93.93
2974.00,93.93
2973.00,93.92
2972.00,93.90
2971.00,93.89
2970.00,93.87
2969.00,93.86
2968.00,93.85
2967.00,93.84
2966.00,93.82
2965.00,93.80
2964.00,93.79
2963.00,93.78
2962.00,93.76
2961.00,93.75
2960.00,93.73
2959.00,93.71
2958.00,93.69
2957.00,93.67
2956.00,93.65
2955.00,93.63
2954.00,93.61
2953.00,93.58
2952.00,93.56
2951.00,93.55
2950.00,93.54
2949.00,93.53
2948.00,93.51
2947.00,93.49
2946.00,93.45
2945.00,93.41
2944.00,93.37
2943.00,93.34
2942.00,93.32
2941.00,93.32
2940.00,93.33
2939.00,93.34
2938.00,93.34
2937.00,93.33
2936.00,93.33
2935.00,93.33
2934.00,93.36
2933.00,93.39
2932.00,93.42
2931.00,93.42
2930.00,93.42
2929.00,93.41
2928.00,93.41
2927.00,93.41
2926.00,93.41
2925.00,93.42
2924.00,93.44
2923.00,93.45
2922.00,93.45
2921.00,93.45
2920.00,93.46
2919.00,93.50
2918.00,93.54
2917.00,93.59
2916.00,93.62
2915.00,93.64
2914.00,93.65
2913.00,93.67
2912.00,93.70
2911.00,93.73
2910.00,93.77
2909.00,93.79
2908.00,93.81
2907.00,93.82
2906.00,93.83
2905.00,93.84
2904.00,93.87
2903.00,93.90
2902.00,93.93
2901.00,93.96
2900.00,93.97
2899.00,93.97
2898.00,93.98
2897.00,93.99
2896.00,93.99
2895.00,93.99
2894.00,94.00
2893.00,94.01
2892.00,94.02
2891.00,94.03
2890.00,94.02
2889.00,94.02
2888.00,94.02
2887.00,94.02
2886.00,94.02
2885.00,94.03
2884.00,94.05
2883.00,94.06
2882.00,94.07
2881.00,94.06
2880.00,94.04
2879.00,94.03
2878.00,94.02
2877.00,94.01
2876.00,94.02
2875.00,94.04
2874.00,94.05
2873.00,94.06
2872.00,94.06
2871.00,94.05
2870.00,94.04
2869.00,94.03
2868.00,94.04
2867.00,94.05
2866.00,94.07
2865.00,94.09
2864.00,94.11
2863.00,94.12
2862.00,94.11
2861.00,94.10
2860.00,94.09
2859.00,94.10
2858.00,94.12
2857.00,94.14
2856.00,94.16
2855.00,94.18
2854.00,94.19
2853.00,94.19
2852.00,94.21
2851.00,94.23
2850.00,94.24
2849.00,94.25
2848.00,94.24
2847.00,94.25
2846.00,94.26
2845.00,94.27
2844.00,94.29
2843.00,94.30
2842.00,94.30
2841.00,94.32
2840.00,94.33
2839.00,94.33
2838.00,94.34
2837.00,94.33
2836.00,94.33
2835.00,94.33
2834.00,94.33
2833.00,94.33
2832.00,94.34
2831.00,94.35
2830.00,94.36
2829.00,94.36
2828.00,94.36
2827.00,94.36
2826.00,94.36
2825.00,94.36
2824.00,94.37
2823.00,94.38
2822.00,94.37
2821.00,94.37
2820.00,94.37
2819.00,94.38
2818.00,94.39
2817.00,94.41
2816.00,94.42
2815.00,94.42
2814.00,94.42
2813.00,94.42
2812.00,94.41
2811.00,94.42
2810.00,94.42
2809.00,94.42
2808.00,94.42
2807.00,94.43
2806.00,94.44
2805.00,94.44
2804.00,94.44
2803.00,94.44
2802.00,94.43
2801.00,94.43
2800.00,94.44
2799.00,94.45
2798.00,94.46
2797.00,94.46
2796.00,94.46
2795.00,94.46
2794.00,94.46
2793.00,94.47
2792.00,94.48
2791.00,94.48
2790.00,94.49
2789.00,94.48
2788.00,94.47
2787.00,94.46
2786.00,94.44
2785.00,94.44
2784.00,94.44
2783.00,94.44
2782.00,94.45
2781.00,94.46
2780.00,94.47
2779.00,94.47
2778.00,94.47
2777.00,94.47
2776.00,94.46
2775.00,94.46
2774.00,94.46
2773.00,94.47
2772.00,94.49
2771.00,94.49
2770.00,94.49
2769.00,94.48
2768.00,94.48
2767.00,94.47
2766.00,94.48
2765.00,94.49
2764.00,94.51
2763.00,94.52
2762.00,94.52
2761.00,94.51
2760.00,94.50
2759.00,94.50
2758.00,94.49
2757.00,94.49
2756.00,94.50
2755.00,94.50
2754.00,94.51
2753.00,94.50
2752.00,94.49
2751.00,94.49
2750.00,94.48
2749.00,94.48
2748.00,94.49
2747.00,94.50
2746.00,94.52
2745.00,94.53
2744.00,94.53
2743.00,94.52
2742.00,94.50
2741.00,94.48
2740.00,94.48
2739.00,94.48
2738.00,94.48
2737.00,94.49
2736.00,94.51
2735.00,94.51
2734.00,94.52
2733.00,94.54
2732.00,94.56
2731.00,94.56
2730.00,94.55
2729.00,94.53
2728.00,94.51
2727.00,94.50
2726.00,94.50
2725.00,94.51
2724.00,94.52
2723.00,94.52
2722.00,94.54
2721.00,94.55
2720.00,94.57
2719.00,94.58
2718.00,94.58
2717.00,94.58
2716.00,94.58
2715.00,94.58
2714.00,94.58
2713.00,94.57
2712.00,94.58
2711.00,94.59
2710.00,94.61
2709.00,94.62
2708.00,94.62
2707.00,94.62
2706.00,94.59
2705.00,94.57
2704.00,94.56
2703.00,94.57
2702.00,94.58
2701.00,94.59
2700.00,94.60
2699.00,94.60
2698.00,94.59
2697.00,94.59
2696.00,94.58
2695.00,94.57
2694.00,94.56
2693.00,94.55
2692.00,94.54
2691.00,94.54
2690.00,94.53
2689.00,94.54
2688.00,94.55
2687.00,94.56
2686.00,94.57
2685.00,94.57
2684.00,94.58
2683.00,94.58
2682.00,94.57
2681.00,94.57
2680.00,94.56
2679.00,94.56
2678.00,94.56
2677.00,94.57
2676.00,94.56
2675.00,94.56
2674.00,94.56
2673.00,94.57
2672.00,94.58
2671.00,94.58
2670.00,94.58
2669.00,94.57
2668.00,94.58
2667.00,94.59
2666.00,94.61
2665.00,94.62
2664.00,94.62
2663.00,94.62
2662.00,94.60
2661.00,94.58
2660.00,94.57
2659.00,94.56
2658.00,94.57
2657.00,94.57
2656.00,94.57
2655.00,94.55
2654.00,94.53
2653.00,94.51
2652.00,94.51
2651.00,94.51
2650.00,94.50
2649.00,94.49
2648.00,94.48
2647.00,94.48
2646.00,94.47
2645.00,94.46
2644.00,94.45
2643.00,94.44
2642.00,94.44
2641.00,94.45
2640.00,94.45
2639.00,94.46
2638.00,94.46
2637.00,94.46
2636.00,94.45
2635.00,94.44
2634.00,94.44
2633.00,94.43
2632.00,94.43
2631.00,94.42
2630.00,94.42
2629.00,94.41
2628.00,94.43
2627.00,94.45
2626.00,94.46
2625.00,94.47
2624.00,94.47
2623.00,94.44
2622.00,94.42
2621.00,94.40
2620.00,94.39
2619.00,94.38
2618.00,94.37
2617.00,94.36
2616.00,94.37
2615.00,94.39
2614.00,94.40
2613.00,94.40
2612.00,94.39
2611.00,94.36
2610.00,94.33
2609.00,94.31
2608.00,94.31
2607.00,94.31
2606.00,94.32
2605.00,94.33
2604.00,94.34
2603.00,94.34
2602.00,94.34
2601.00,94.32
2600.00,94.30
2599.00,94.28
2598.00,94.27
2597.00,94.26
2596.00,94.26
2595.00,94.25
2594.00,94.25
2593.00,94.24
2592.00,94.24
2591.00,94.24
2590.00,94.23
2589.00,94.22
2588.00,94.21
2587.00,94.21
2586.00,94.20
2585.00,94.20
2584.00,94.21
2583.00,94.23
2582.00,94.25
2581.00,94.26
2580.00,94.25
2579.00,94.23
2578.00,94.22
2577.00,94.20
2576.00,94.18
2575.00,94.17
2574.00,94.15
2573.00,94.15
2572.00,94.16
2571.00,94.17
2570.00,94.19
2569.00,94.21
2568.00,94.22
2567.00,94.22
2566.00,94.21
2565.00,94.20
2564.00,94.19
2563.00,94.19
2562.00,94.19
2561.00,94.20
2560.00,94.21
2559.00,94.21
2558.00,94.20
2557.00,94.18
2556.00,94.16
2555.00,94.15
2554.00,94.15
2553.00,94.16
2552.00,94.18
2551.00,94.19
2550.00,94.20
2549.00,94.20
2548.00,94.20
2547.00,94.18
2546.00,94.17
2545.00,94.16
2544.00,94.16
2543.00,94.16
2542.00,94.16
2541.00,94.16
2540.00,94.17
2539.00,94.18
2538.00,94.19
2537.00,94.20
2536.00,94.21
2535.00,94.21
2534.00,94.21
2533.00,94.21
2532.00,94.21
2531.00,94.22
2530.00,94.23
2529.00,94.22
2528.00,94.21
2527.00,94.19
2526.00,94.17
2525.00,94.15
2524.00,94.13
2523.00,94.12
2522.00,94.12
2521.00,94.12
2520.00,94.13
2519.00,94.15
2518.00,94.17
2517.00,94.19
2516.00,94.20
2515.00,94.18
2514.00,94.17
2513.00,94.16
2512.00,94.19
2511.00,94.23
2510.00,94.27
2509.00,94.29
2508.00,94.29
2507.00,94.27
2506.00,94.25
2505.00,94.23
2504.00,94.22
2503.00,94.23
2502.00,94.25
2501.00,94.26
2500.00,94.27
2499.00,94.26
2498.00,94.25
2497.00,94.25
2496.00,94.24
2495.00,94.23
2494.00,94.23
2493.00,94.23
2492.00,94.24
2491.00,94.25
2490.00,94.26
2489.00,94.27
2488.00,94.26
2487.00,94.25
2486.00,94.24
2485.00,94.25
2484.00,94.26
2483.00,94.27
2482.00,94.26
2481.00,94.26
2480.00,94.26
2479.00,94.27
2478.00,94.27
2477.00,94.28
2476.00,94.28
2475.00,94.27
2474.00,94.25
2473.00,94.22
2472.00,94.20
2471.00,94.19
2470.00,94.19
2469.00,94.19
2468.00,94.21
2467.00,94.24
2466.00,94.27
2465.00,94.30
2464.00,94.32
2463.00,94.33
2462.00,94.35
2461.00,94.36
2460.00,94.36
2459.00,94.34
2458.00,94.31
2457.00,94.30
2456.00,94.30
2455.00,94.31
2454.00,94.32
2453.00,94.31
2452.00,94.30
2451.00,94.29
2450.00,94.30
2449.00,94.31
2448.00,94.33
2447.00,94.35
2446.00,94.36
2445.00,94.35
2444.00,94.33
2443.00,94.31
2442.00,94.30
2441.00,94.29
2440.00,94.27
2439.00,94.26
2438.00,94.25
2437.00,94.26
2436.00,94.29
2435.00,94.32
2434.00,94.34
2433.00,94.35
2432.00,94.36
2431.00,94.37
2430.00,94.38
2429.00,94.38
2428.00,94.37
2427.00,94.35
2426.00,94.33
2425.00,94.31
2424.00,94.32
2423.00,94.33
2422.00,94.34
2421.00,94.34
2420.00,94.33
2419.00,94.31
2418.00,94.31
2417.00,94.32
2416.00,94.35
2415.00,94.37
2414.00,94.37
2413.00,94.37
2412.00,94.37
2411.00,94.39
2410.00,94.40
2409.00,94.42
2408.00,94.43
2407.00,94.44
2406.00,94.44
2405.00,94.44
2404.00,94.44
2403.00,94.45
2402.00,94.45
2401.00,94.44
2400.00,94.42
2399.00,94.42
2398.00,94.43
2397.00,94.45
2396.00,94.48
2395.00,94.51
2394.00,94.53
2393.00,94.54
2392.00,94.54
2391.00,94.52
2390.00,94.50
2389.00,94.47
2388.00,94.46
2387.00,94.46
2386.00,94.46
2385.00,94.46
2384.00,94.44
2383.00,94.42
2382.00,94.42
2381.00,94.44
2380.00,94.47
2379.00,94.49
2378.00,94.50
2377.00,94.51
2376.00,94.52
2375.00,94.52
2374.00,94.51
2373.00,94.50
2372.00,94.50
2371.00,94.50
2370.00,94.50
2369.00,94.48
2368.00,94.46
2367.00,94.46
2366.00,94.48
2365.00,94.51
2364.00,94.52
2363.00,94.48
2362.00,94.42
2361.00,94.41
2360.00,94.46
2359.00,94.51
2358.00,94.53
2357.00,94.52
2356.00,94.50
2355.00,94.49
2354.00,94.49
2353.00,94.51
2352.00,94.54
2351.00,94.54
2350.00,94.52
2349.00,94.52
2348.00,94.52
2347.00,94.51
2346.00,94.47
2345.00,94.42
2344.00,94.41
2343.00,94.45
2342.00,94.52
2341.00,94.57
2340.00,94.59
2339.00,94.59
2338.00,94.62
2337.00,94.65
2336.00,94.66
2335.00,94.62
2334.00,94.54
2333.00,94.47
2332.00,94.45
2331.00,94.47
2330.00,94.51
2329.00,94.55
2328.00,94.58
2327.00,94.59
2326.00,94.58
2325.00,94.55
2324.00,94.53
2323.00,94.50
2322.00,94.49
2321.00,94.48
2320.00,94.47
2319.00,94.48
2318.00,94.49
2317.00,94.52
2316.00,94.54
2315.00,94.54
2314.00,94.52
2313.00,94.49
2312.00,94.45
2311.00,94.42
2310.00,94.40
2309.00,94.40
2308.00,94.41
2307.00,94.40
2306.00,94.36
2305.00,94.32
2304.00,94.29
2303.00,94.29
2302.00,94.30
2301.00,94.30
2300.00,94.29
2299.00,94.27
2298.00,94.26
2297.00,94.27
2296.00,94.27
2295.00,94.27
2294.00,94.26
2293.00,94.25
2292.00,94.24
2291.00,94.26
2290.00,94.28
2289.00,94.29
2288.00,94.29
2287.00,94.26
2286.00,94.22
2285.00,94.18
2284.00,94.15
2283.00,94.14
2282.00,94.13
2281.00,94.12
2280.00,94.11
2279.00,94.10
2278.00,94.09
2277.00,94.08
2276.00,94.08
2275.00,94.08
2274.00,94.08
2273.00,94.06
2272.00,94.02
2271.00,93.97
2270.00,93.93
2269.00,93.91
2268.00,93.90
2267.00,93.90
2266.00,93.90
2265.00,93.90
2264.00,93.87
2263.00,93.84
2262.00,93.79
2261.00,93.74
2260.00,93.67
2259.00,93.59
2258.00,93.51
2257.00,93.42
2256.00,93.33
2255.00,93.22
2254.00,93.09
2253.00,92.93
2252.00,92.74
2251.00,92.53
2250.00,92.31
2249.00,92.09
2248.00,91.87
2247.00,91.66
2246.00,91.46
2245.00,91.27
2244.00,91.13
2243.00,91.06
2242.00,91.07
2241.00,91.16
2240.00,91.33
2239.00,91.56
2238.00,91.84
2237.00,92.14
2236.00,92.44
2235.00,92.70
2234.00,92.90
2233.00,93.02
2232.00,93.10
2231.00,93.16
2230.00,93.23
2229.00,93.30
2228.00,93.34
2227.00,93.36
2226.00,93.36
2225.00,93.37
2224.00,93.38
2223.00,93.41
2222.00,93.42
2221.00,93.44
2220.00,93.47
2219.00,93.49
2218.00,93.50
2217.00,93.48
2216.00,93.43
2215.00,93.34
2214.00,93.25
2213.00,93.18
2212.00,93.18
2211.00,93.22
2210.00,93.28
2209.00,93.33
2208.00,93.35
2207.00,93.35
2206.00,93.33
2205.00,93.31
2204.00,93.30
2203.00,93.30
2202.00,93.30
2201.00,93.30
2200.00,93.30
2199.00,93.30
2198.00,93.29
2197.00,93.28
2196.00,93.26
2195.00,93.26
2194.00,93.27
2193.00,93.29
2192.00,93.28
2191.00,93.23
2190.00,93.17
2189.00,93.12
2188.00,93.11
2187.00,93.12
2186.00,93.13
2185.00,93.13
2184.00,93.11
2183.00,93.10
2182.00,93.09
2181.00,93.08
2180.00,93.06
2179.00,93.02
2178.00,92.98
2177.00,92.96
2176.00,92.95
2175.00,92.96
2174.00,93.00
2173.00,93.06
2172.00,93.12
2171.00,93.14
2170.00,93.12
2169.00,93.08
2168.00,93.03
2167.00,92.97
2166.00,92.90
2165.00,92.82
2164.00,92.75
2163.00,92.71
2162.00,92.68
2161.00,92.67
2160.00,92.71
2159.00,92.81
2158.00,92.91
2157.00,92.97
2156.00,92.97
2155.00,92.96
2154.00,92.98
2153.00,93.04
2152.00,93.14
2151.00,93.22
2150.00,93.28
2149.00,93.29
2148.00,93.28
2147.00,93.27
2146.00,93.28
2145.00,93.33
2144.00,93.40
2143.00,93.48
2142.00,93.56
2141.00,93.61
2140.00,93.63
2139.00,93.65
2138.00,93.69
2137.00,93.74
2136.00,93.78
2135.00,93.81
2134.00,93.82
2133.00,93.82
2132.00,93.84
2131.00,93.86
2130.00,93.90
2129.00,93.95
2128.00,94.00
2127.00,94.02
2126.00,94.01
2125.00,94.01
2124.00,94.05
2123.00,94.10
2122.00,94.12
2121.00,94.11
2120.00,94.08
2119.00,94.07
2118.00,94.10
2117.00,94.14
2116.00,94.18
2115.00,94.20
2114.00,94.20
2113.00,94.17
2112.00,94.14
2111.00,94.10
2110.00,94.07
2109.00,94.05
2108.00,94.03
2107.00,94.01
2106.00,94.00
2105.00,94.01
2104.00,94.05
2103.00,94.08
2102.00,94.08
2101.00,94.06
2100.00,94.03
2099.00,94.02
2098.00,94.03
2097.00,94.06
2096.00,94.09
2095.00,94.11
2094.00,94.11
2093.00,94.10
2092.00,94.09
2091.00,94.07
2090.00,94.05
2089.00,94.04
2088.00,94.05
2087.00,94.07
2086.00,94.10
2085.00,94.11
2084.00,94.09
2083.00,94.05
2082.00,94.03
2081.00,94.03
2080.00,94.04
2079.00,94.03
2078.00,93.99
2077.00,93.94
2076.00,93.88
2075.00,93.84
2074.00,93.83
2073.00,93.85
2072.00,93.90
2071.00,93.94
2070.00,93.96
2069.00,93.98
2068.00,93.97
2067.00,93.94
2066.00,93.90
2065.00,93.87
2064.00,93.86
2063.00,93.88
2062.00,93.89
2061.00,93.89
2060.00,93.86
2059.00,93.82
2058.00,93.79
2057.00,93.78
2056.00,93.76
2055.00,93.74
2054.00,93.72
2053.00,93.72
2052.00,93.72
2051.00,93.71
2050.00,93.67
2049.00,93.62
2048.00,93.59
2047.00,93.56
2046.00,93.54
2045.00,93.50
2044.00,93.47
2043.00,93.42
2042.00,93.36
2041.00,93.29
2040.00,93.23
2039.00,93.15
2038.00,93.08
2037.00,93.04
2036.00,93.07
2035.00,93.14
2034.00,93.20
2033.00,93.23
2032.00,93.22
2031.00,93.22
2030.00,93.24
2029.00,93.27
2028.00,93.31
2027.00,93.32
2026.00,93.31
2025.00,93.28
2024.00,93.24
2023.00,93.23
2022.00,93.24
2021.00,93.27
2020.00,93.30
2019.00,93.29
2018.00,93.23
2017.00,93.17
2016.00,93.14
2015.00,93.17
2014.00,93.22
2013.00,93.28
2012.00,93.32
2011.00,93.34
2010.00,93.36
2009.00,93.38
2008.00,93.41
2007.00,93.43
2006.00,93.43
2005.00,93.43
2004.00,93.43
2003.00,93.45
2002.00,93.49
2001.00,93.56
2000.00,93.61
1999.00,93.62
1998.00,93.59
1997.00,93.53
1996.00,93.48
1995.00,93.45
1994.00,93.46
1993.00,93.48
1992.00,93.52
1991.00,93.57
1990.00,93.59
1989.00,93.58
1988.00,93.54
1987.00,93.50
1986.00,93.50
1985.00,93.52
1984.00,93.53
1983.00,93.50
1982.00,93.43
1981.00,93.35
1980.00,93.30
1979.00,93.27
1978.00,93.27
1977.00,93.27
1976.00,93.29
1975.00,93.33
1974.00,93.38
1973.00,93.45
1972.00,93.49
1971.00,93.52
1970.00,93.55
1969.00,93.60
1968.00,93.65
1967.00,93.68
1966.00,93.69
1965.00,93.70
1964.00,93.71
1963.00,93.71
1962.00,93.70
1961.00,93.68
1960.00,93.67
1959.00,93.68
1958.00,93.71
1957.00,93.76
1956.00,93.84
1955.00,93.93
1954.00,94.00
1953.00,94.02
1952.00,94.01
1951.00,94.00
1950.00,94.00
1949.00,94.01
1948.00,94.02
1947.00,94.02
1946.00,94.01
1945.00,94.00
1944.00,94.01
1943.00,94.04
1942.00,94.10
1941.00,94.16
1940.00,94.21
1939.00,94.23
1938.00,94.22
1937.00,94.20
1936.00,94.19
1935.00,94.21
1934.00,94.26
1933.00,94.31
1932.00,94.34
1931.00,94.34
1930.00,94.33
1929.00,94.32
1928.00,94.33
1927.00,94.36
1926.00,94.39
1925.00,94.41
1924.00,94.41
1923.00,94.43
1922.00,94.45
1921.00,94.48
1920.00,94.51
1919.00,94.54
1918.00,94.57
1917.00,94.58
1916.00,94.59
1915.00,94.59
1914.00,94.59
1913.00,94.58
1912.00,94.57
1911.00,94.55
1910.00,94.55
1909.00,94.56
1908.00,94.59
1907.00,94.60
1906.00,94.58
1905.00,94.55
1904.00,94.52
1903.00,94.51
1902.00,94.52
1901.00,94.54
1900.00,94.57
1899.00,94.59
1898.00,94.60
1897.00,94.61
1896.00,94.60
1895.00,94.61
1894.00,94.63
1893.00,94.66
1892.00,94.69
1891.00,94.70
1890.00,94.71
1889.00,94.71
1888.00,94.73
1887.00,94.75
1886.00,94.76
1885.00,94.77
1884.00,94.76
1883.00,94.74
1882.00,94.72
1881.00,94.71
1880.00,94.72
1879.00,94.74
1878.00,94.75
1877.00,94.75
1876.00,94.74
1875.00,94.74
1874.00,94.74
1873.00,94.76
1872.00,94.78
1871.00,94.79
1870.00,94.80
1869.00,94.80
1868.00,94.81
1867.00,94.82
1866.00,94.84
1865.00,94.86
1864.00,94.86
1863.00,94.85
1862.00,94.85
1861.00,94.86
1860.00,94.86
1859.00,94.86
1858.00,94.86
1857.00,94.87
1856.00,94.87
1855.00,94.89
1854.00,94.92
1853.00,94.95
1852.00,94.97
1851.00,94.96
1850.00,94.94
1849.00,94.91
1848.00,94.90
1847.00,94.90
1846.00,94.90
1845.00,94.91
1844.00,94.92
1843.00,94.92
1842.00,94.93
1841.00,94.95
1840.00,94.98
1839.00,95.01
1838.00,95.03
1837.00,95.04
1836.00,95.06
1835.00,95.07
1834.00,95.06
1833.00,95.05
1832.00,95.04
1831.00,95.03
1830.00,95.03
1829.00,95.03
1828.00,95.03
1827.00,95.04
1826.00,95.05
1825.00,95.07
1824.00,95.07
1823.00,95.07
1822.00,95.06
1821.00,95.05
1820.00,95.05
1819.00,95.05
1818.00,95.06
1817.00,95.08
1816.00,95.10
1815.00,95.12
1814.00,95.12
1813.00,95.12
1812.00,95.11
1811.00,95.10
1810.00,95.11
1809.00,95.11
1808.00,95.11
1807.00,95.11
1806.00,95.11
1805.00,95.12
1804.00,95.13
1803.00,95.15
1802.00,95.16
1801.00,95.18
1800.00,95.19
1799.00,95.19
1798.00,95.18
1797.00,95.18
1796.00,95.18
1795.00,95.18
1794.00,95.19
1793.00,95.18
1792.00,95.17
1791.00,95.16
1790.00,95.16
1789.00,95.17
1788.00,95.18
1787.00,95.20
1786.00,95.21
1785.00,95.21
1784.00,95.21
1783.00,95.21
1782.00,95.21
1781.00,95.21
1780.00,95.22
1779.00,95.21
1778.00,95.20
1777.00,95.21
1776.00,95.22
1775.00,95.24
1774.00,95.26
1773.00,95.27
1772.00,95.24
1771.00,95.21
1770.00,95.19
1769.00,95.19
1768.00,95.20
1767.00,95.21
1766.00,95.21
1765.00,95.20
1764.00,95.20
1763.00,95.19
1762.00,95.19
1761.00,95.18
1760.00,95.18
1759.00,95.16
1758.00,95.15
1757.00,95.14
1756.00,95.12
1755.00,95.11
1754.00,95.08
1753.00,95.04
1752.00,94.97
1751.00,94.88
1750.00,94.78
1749.00,94.69
1748.00,94.61
1747.00,94.51
1746.00,94.41
1745.00,94.28
1744.00,94.15
1743.00,94.01
1742.00,93.86
1741.00,93.71
1740.00,93.54
1739.00,93.37
1738.00,93.23
1737.00,93.11
1736.00,92.97
1735.00,92.81
1734.00,92.64
1733.00,92.53
1732.00,92.49
1731.00,92.51
1730.00,92.55
1729.00,92.60
1728.00,92.65
1727.00,92.71
1726.00,92.78
1725.00,92.86
1724.00,92.95
1723.00,93.06
1722.00,93.17
1721.00,93.29
1720.00,93.42
1719.00,93.54
1718.00,93.68
1717.00,93.80
1716.00,93.90
1715.00,94.00
1714.00,94.10
1713.00,94.19
1712.00,94.28
1711.00,94.34
1710.00,94.40
1709.00,94.45
1708.00,94.49
1707.00,94.54
1706.00,94.59
1705.00,94.63
1704.00,94.66
1703.00,94.67
1702.00,94.67
1701.00,94.68
1700.00,94.69
1699.00,94.70
1698.00,94.71
1697.00,94.72
1696.00,94.73
1695.00,94.72
1694.00,94.71
1693.00,94.71
1692.00,94.72
1691.00,94.72
1690.00,94.72
1689.00,94.71
1688.00,94.71
1687.00,94.72
1686.00,94.71
1685.00,94.68
1684.00,94.66
1683.00,94.65
1682.00,94.65
1681.00,94.66
1680.00,94.66
1679.00,94.66
1678.00,94.65
1677.00,94.64
1676.00,94.63
1675.00,94.63
1674.00,94.64
1673.00,94.64
1672.00,94.64
1671.00,94.63
1670.00,94.63
1669.00,94.63
1668.00,94.63
1667.00,94.64
1666.00,94.66
1665.00,94.68
1664.00,94.70
1663.00,94.72
1662.00,94.73
1661.00,94.72
1660.00,94.72
1659.00,94.72
1658.00,94.72
1657.00,94.73
1656.00,94.73
1655.00,94.73
1654.00,94.73
1653.00,94.76
1652.00,94.77
1651.00,94.75
1650.00,94.76
1649.00,94.76
1648.00,94.75
1647.00,94.73
1646.00,94.70
1645.00,94.67
1644.00,94.64
1643.00,94.63
1642.00,94.62
1641.00,94.61
1640.00,94.59
1639.00,94.57
1638.00,94.55
1637.00,94.52
1636.00,94.49
1635.00,94.46
1634.00,94.43
1633.00,94.41
1632.00,94.39
1631.00,94.38
1630.00,94.36
1629.00,94.34
1628.00,94.31
1627.00,94.29
1626.00,94.28
1625.00,94.26
1624.00,94.23
1623.00,94.20
1622.00,94.17
1621.00,94.14
1620.00,94.13
1619.00,94.11
1618.00,94.08
1617.00,94.05
1616.00,94.01
1615.00,93.99
1614.00,93.98
1613.00,93.97
1612.00,93.96
1611.00,93.95
1610.00,93.94
1609.00,93.93
1608.00,93.93
1607.00,93.93
1606.00,93.93
1605.00,93.92
1604.00,93.92
1603.00,93.92
1602.00,93.93
1601.00,93.95
1600.00,93.96
1599.00,93.96
1598.00,93.96
1597.00,93.95
1596.00,93.94
1595.00,93.94
1594.00,93.94
1593.00,93.95
1592.00,93.96
1591.00,93.97
1590.00,93.99
1589.00,94.00
1588.00,94.00
1587.00,94.00
1586.00,94.01
1585.00,94.01
1584.00,94.02
1583.00,94.02
1582.00,94.02
1581.00,94.02
1580.00,94.03
1579.00,94.04
1578.00,94.03
1577.00,94.02
1576.00,94.02
1575.00,94.02
1574.00,94.04
1573.00,94.07
1572.00,94.09
1571.00,94.11
1570.00,94.12
1569.00,94.13
1568.00,94.14
1567.00,94.15
1566.00,94.17
1565.00,94.19
1564.00,94.21
1563.00,94.22
1562.00,94.23
1561.00,94.22
1560.00,94.21
1559.00,94.25
1558.00,94.30
1557.00,94.32
1556.00,94.32
1555.00,94.34
1554.00,94.35
1553.00,94.36
1552.00,94.37
1551.00,94.39
1550.00,94.42
1549.00,94.44
1548.00,94.47
1547.00,94.50
1546.00,94.53
1545.00,94.57
1544.00,94.60
1543.00,94.63
1542.00,94.66
1541.00,94.70
1540.00,94.75
1539.00,94.78
1538.00,94.78
1537.00,94.79
1536.00,94.81
1535.00,94.85
1534.00,94.88
1533.00,94.92
1532.00,94.93
1531.00,94.92
1530.00,94.92
1529.00,94.92
1528.00,94.94
1527.00,94.96
1526.00,94.99
1525.00,95.01
1524.00,95.03
1523.00,95.04
1522.00,95.05
1521.00,95.06
1520.00,95.06
1519.00,95.07
1518.00,95.09
1517.00,95.11
1516.00,95.13
1515.00,95.14
1514.00,95.15
1513.00,95.15
1512.00,95.15
1511.00,95.16
1510.00,95.16
1509.00,95.16
1508.00,95.16
1507.00,95.18
1506.00,95.21
1505.00,95.21
1504.00,95.20
1503.00,95.21
1502.00,95.21
1501.00,95.20
1500.00,95.20
1499.00,95.21
1498.00,95.24
1497.00,95.26
1496.00,95.26
1495.00,95.24
1494.00,95.23
1493.00,95.22
1492.00,95.20
1491.00,95.18
1490.00,95.17
1489.00,95.17
1488.00,95.19
1487.00,95.20
1486.00,95.21
1485.00,95.19
1484.00,95.17
1483.00,95.15
1482.00,95.13
1481.00,95.14
1480.00,95.15
1479.00,95.16
1478.00,95.17
1477.00,95.17
1476.00,95.15
1475.00,95.12
1474.00,95.07
1473.00,94.99
1472.00,94.90
1471.00,94.82
1470.00,94.76
1469.00,94.72
1468.00,94.65
1467.00,94.56
1466.00,94.40
1465.00,94.19
1464.00,93.96
1463.00,93.74
1462.00,93.53
1461.00,93.30
1460.00,93.05
1459.00,92.75
1458.00,92.38
1457.00,91.97
1456.00,91.65
1455.00,91.46
1454.00,91.37
1453.00,91.31
1452.00,91.27
1451.00,91.25
1450.00,91.27
1449.00,91.32
1448.00,91.42
1447.00,91.54
1446.00,91.67
1445.00,91.79
1444.00,91.92
1443.00,92.05
1442.00,92.16
1441.00,92.26
1440.00,92.35
1439.00,92.45
1438.00,92.55
1437.00,92.68
1436.00,92.81
1435.00,92.93
1434.00,93.04
1433.00,93.13
1432.00,93.22
1431.00,93.31
1430.00,93.41
1429.00,93.49
1428.00,93.57
1427.00,93.64
1426.00,93.70
1425.00,93.74
1424.00,93.77
1423.00,93.79
1422.00,93.80
1421.00,93.81
1420.00,93.82
1419.00,93.85
1418.00,93.86
1417.00,93.87
1416.00,93.88
1415.00,93.89
1414.00,93.91
1413.00,93.93
1412.00,93.96
1411.00,93.99
1410.00,94.02
1409.00,94.05
1408.00,94.07
1407.00,94.09
1406.00,94.10
1405.00,94.10
1404.00,94.11
1403.00,94.12
1402.00,94.14
1401.00,94.15
1400.00,94.16
1399.00,94.16
1398.00,94.16
1397.00,94.15
1396.00,94.15
1395.00,94.14
1394.00,94.13
1393.00,94.12
1392.00,94.12
1391.00,94.11
1390.00,94.09
1389.00,94.06
1388.00,94.02
1387.00,94.00
1386.00,93.99
1385.00,93.98
1384.00,93.97
1383.00,93.96
1382.00,93.96
1381.00,93.96
1380.00,93.96
1379.00,93.95
1378.00,93.93
1377.00,93.91
1376.00,93.89
1375.00,93.87
1374.00,93.85
1373.00,93.85
1372.00,93.84
1371.00,93.84
1370.00,93.82
1369.00,93.80
1368.00,93.78
1367.00,93.78
1366.00,93.78
1365.00,93.78
1364.00,93.77
1363.00,93.76
1362.00,93.75
1361.00,93.75
1360.00,93.75
1359.00,93.76
1358.00,93.77
1357.00,93.78
1356.00,93.77
1355.00,93.76
1354.00,93.75
1353.00,93.75
1352.00,93.76
1351.00,93.77
1350.00,93.79
1349.00,93.81
1348.00,93.82
1347.00,93.84
1346.00,93.86
1345.00,93.88
1344.00,93.91
1343.00,93.94
1342.00,93.97
1341.00,93.99
1340.00,94.01
1339.00,94.02
1338.00,94.03
1337.00,94.05
1336.00,94.08
1335.00,94.11
1334.00,94.15
1333.00,94.18
1332.00,94.20
1331.00,94.21
1330.00,94.23
1329.00,94.24
1328.00,94.25
1327.00,94.26
1326.00,94.27
1325.00,94.28
1324.00,94.28
1323.00,94.29
1322.00,94.30
1321.00,94.30
1320.00,94.30
1319.00,94.29
1318.00,94.28
1317.00,94.28
1316.00,94.29
1315.00,94.31
1314.00,94.32
1313.00,94.33
1312.00,94.33
1311.00,94.33
1310.00,94.35
1309.00,94.37
1308.00,94.40
1307.00,94.42
1306.00,94.44
1305.00,94.45
1304.00,94.46
1303.00,94.48
1302.00,94.49
1301.00,94.50
1300.00,94.50
1299.00,94.51
1298.00,94.51
1297.00,94.51
1296.00,94.51
1295.00,94.52
1294.00,94.53
1293.00,94.53
1292.00,94.52
1291.00,94.51
1290.00,94.49
1289.00,94.47
1288.00,94.46
1287.00,94.44
1286.00,94.42
1285.00,94.40
1284.00,94.38
1283.00,94.36
1282.00,94.34
1281.00,94.31
1280.00,94.29
1279.00,94.26
1278.00,94.25
1277.00,94.24
1276.00,94.23
1275.00,94.22
1274.00,94.20
1273.00,94.19
1272.00,94.19
1271.00,94.18
1270.00,94.17
1269.00,94.15
1268.00,94.12
1267.00,94.10
1266.00,94.09
1265.00,94.09
1264.00,94.09
1263.00,94.08
1262.00,94.07
1261.00,94.06
1260.00,94.05
1259.00,94.05
1258.00,94.05
1257.00,94.04
1256.00,94.02
1255.00,94.01
1254.00,94.00
1253.00,93.98
1252.00,93.95
1251.00,93.93
1250.00,93.93
1249.00,93.93
1248.00,93.94
1247.00,93.95
1246.00,93.97
1245.00,93.99
1244.00,94.00
1243.00,93.99
1242.00,93.98
1241.00,93.97
1240.00,93.96
1239.00,93.95
1238.00,93.93
1237.00,93.91
1236.00,93.89
1235.00,93.87
1234.00,93.87
1233.00,93.88
1232.00,93.87
1231.00,93.85
1230.00,93.83
1229.00,93.82
1228.00,93.81
1227.00,93.82
1226.00,93.84
1225.00,93.86
1224.00,93.88
1223.00,93.90
1222.00,93.91
1221.00,93.91
1220.00,93.90
1219.00,93.91
1218.00,93.92
1217.00,93.94
1216.00,93.94
1215.00,93.94
1214.00,93.93
1213.00,93.93
1212.00,93.94
1211.00,93.95
1210.00,93.95
1209.00,93.95
1208.00,93.94
1207.00,93.92
1206.00,93.91
1205.00,93.90
1204.00,93.89
1203.00,93.87
1202.00,93.87
1201.00,93.87
1200.00,93.90
1199.00,93.94
1198.00,93.97
1197.00,93.99
1196.00,94.01
1195.00,94.03
1194.00,94.06
1193.00,94.10
1192.00,94.14
1191.00,94.19
1190.00,94.23
1189.00,94.25
1188.00,94.26
1187.00,94.26
1186.00,94.26
1185.00,94.26
1184.00,94.25
1183.00,94.23
1182.00,94.21
1181.00,94.19
1180.00,94.16
1179.00,94.12
1178.00,94.08
1177.00,94.03
1176.00,93.99
1175.00,93.95
1174.00,93.92
1173.00,93.90
1172.00,93.88
1171.00,93.88
1170.00,93.89
1169.00,93.90
1168.00,93.92
1167.00,93.94
1166.00,93.98
1165.00,94.03
1164.00,94.10
1163.00,94.18
1162.00,94.28
1161.00,94.40
1160.00,94.51
1159.00,94.61
1158.00,94.70
1157.00,94.79
1156.00,94.87
1155.00,94.95
1154.00,95.01
1153.00,95.06
1152.00,95.09
1151.00,95.13
1150.00,95.17
1149.00,95.21
1148.00,95.27
1147.00,95.32
1146.00,95.36
1145.00,95.38
1144.00,95.37
1143.00,95.34
1142.00,95.31
1141.00,95.29
1140.00,95.30
1139.00,95.35
1138.00,95.41
1137.00,95.46
1136.00,95.49
1135.00,95.49
1134.00,95.46
1133.00,95.42
1132.00,95.36
1131.00,95.31
1130.00,95.26
1129.00,95.23
1128.00,95.20
1127.00,95.17
1126.00,95.15
1125.00,95.13
1124.00,95.09
1123.00,95.03
1122.00,94.95
1121.00,94.86
1120.00,94.79
1119.00,94.74
1118.00,94.70
1117.00,94.65
1116.00,94.58
1115.00,94.52
1114.00,94.49
1113.00,94.48
1112.00,94.48
1111.00,94.49
1110.00,94.48
1109.00,94.44
1108.00,94.39
1107.00,94.35
1106.00,94.34
1105.00,94.35
1104.00,94.37
1103.00,94.39
1102.00,94.40
1101.00,94.39
1100.00,94.39
1099.00,94.39
1098.00,94.41
1097.00,94.42
1096.00,94.41
1095.00,94.39
1094.00,94.35
1093.00,94.32
1092.00,94.30
1091.00,94.30
1090.00,94.31
1089.00,94.31
1088.00,94.28
1087.00,94.25
1086.00,94.21
1085.00,94.19
1084.00,94.18
1083.00,94.16
1082.00,94.16
1081.00,94.15
1080.00,94.15
1079.00,94.12
1078.00,94.09
1077.00,94.04
1076.00,94.01
1075.00,93.98
1074.00,93.94
1073.00,93.90
1072.00,93.85
1071.00,93.81
1070.00,93.78
1069.00,93.76
1068.00,93.75
1067.00,93.74
1066.00,93.74
1065.00,93.73
1064.00,93.72
1063.00,93.68
1062.00,93.65
1061.00,93.65
1060.00,93.66
1059.00,93.66
1058.00,93.66
1057.00,93.65
1056.00,93.64
1055.00,93.65
1054.00,93.66
1053.00,93.67
1052.00,93.67
1051.00,93.66
1050.00,93.65
1049.00,93.64
1048.00,93.63
1047.00,93.63
1046.00,93.64
1045.00,93.64
1044.00,93.64
1043.00,93.64
1042.00,93.63
1041.00,93.63
1040.00,93.63
1039.00,93.65
1038.00,93.67
1037.00,93.69
1036.00,93.73
1035.00,93.77
1034.00,93.82
1033.00,93.86
1032.00,93.92
1031.00,93.97
1030.00,94.03
1029.00,94.07
1028.00,94.11
1027.00,94.15
1026.00,94.20
1025.00,94.25
1024.00,94.30
1023.00,94.34
1022.00,94.39
1021.00,94.44
1020.00,94.49
1019.00,94.54
1018.00,94.58
1017.00,94.62
1016.00,94.64
1015.00,94.66
1014.00,94.68
1013.00,94.70
1012.00,94.72
1011.00,94.74
1010.00,94.76
1009.00,94.80
1008.00,94.85
1007.00,94.89
1006.00,94.91
1005.00,94.93
1004.00,94.93
1003.00,94.93
1002.00,94.93
1001.00,94.91
1000.00,94.88
999.00,94.86
998.00,94.86
997.00,94.86
996.00,94.87
995.00,94.88
994.00,94.88
993.00,94.88
992.00,94.89
991.00,94.92
990.00,94.94
989.00,94.96
988.00,94.97
987.00,94.99
986.00,95.01
985.00,95.03
984.00,95.03
983.00,95.02
982.00,95.00
981.00,94.99
980.00,94.98
979.00,94.98
978.00,95.01
977.00,95.04
976.00,95.07
975.00,95.08
974.00,95.08
973.00,95.08
972.00,95.07
971.00,95.06
970.00,95.06
969.00,95.08
968.00,95.11
967.00,95.14
966.00,95.16
965.00,95.16
964.00,95.15
963.00,95.17
962.00,95.19
961.00,95.22
960.00,95.23
959.00,95.23
958.00,95.21
957.00,95.21
956.00,95.21
955.00,95.22
954.00,95.23
953.00,95.23
952.00,95.24
951.00,95.26
950.00,95.29
949.00,95.30
948.00,95.30
947.00,95.29
946.00,95.29
945.00,95.29
944.00,95.29
943.00,95.29
942.00,95.29
941.00,95.30
940.00,95.30
939.00,95.30
938.00,95.29
937.00,95.28
936.00,95.25
935.00,95.23
934.00,95.22
933.00,95.21
932.00,95.20
931.00,95.19
930.00,95.18
929.00,95.17
928.00,95.18
927.00,95.19
926.00,95.18
925.00,95.17
924.00,95.16
923.00,95.18
922.00,95.21
921.00,95.25
920.00,95.27
919.00,95.27
918.00,95.27
917.00,95.27
916.00,95.27
915.00,95.26
914.00,95.25
913.00,95.25
912.00,95.26
911.00,95.28
910.00,95.31
909.00,95.34
908.00,95.35
907.00,95.34
906.00,95.33
905.00,95.32
904.00,95.33
903.00,95.35
902.00,95.38
901.00,95.42
900.00,95.46
899.00,95.51
898.00,95.54
897.00,95.54
896.00,95.50
895.00,95.46
894.00,95.43
893.00,95.42
892.00,95.44
891.00,95.46
890.00,95.47
889.00,95.48
888.00,95.47
887.00,95.47
886.00,95.47
885.00,95.47
884.00,95.46
883.00,95.44
882.00,95.41
881.00,95.39
880.00,95.38
879.00,95.38
878.00,95.37
877.00,95.35
876.00,95.33
875.00,95.33
874.00,95.35
873.00,95.37
872.00,95.37
871.00,95.34
870.00,95.31
869.00,95.31
868.00,95.32
867.00,95.33
866.00,95.33
865.00,95.33
864.00,95.32
863.00,95.31
862.00,95.30
861.00,95.29
860.00,95.29
859.00,95.30
858.00,95.31
857.00,95.32
856.00,95.31
855.00,95.29
854.00,95.27
853.00,95.25
852.00,95.22
851.00,95.20
850.00,95.20
849.00,95.22
848.00,95.24
847.00,95.23
846.00,95.20
845.00,95.17
844.00,95.16
843.00,95.17
842.00,95.17
841.00,95.16
840.00,95.16
839.00,95.16
838.00,95.19
837.00,95.22
836.00,95.23
835.00,95.23
834.00,95.24
833.00,95.27
832.00,95.29
831.00,95.29
830.00,95.27
829.00,95.24
828.00,95.23
827.00,95.24
826.00,95.27
825.00,95.31
824.00,95.34
823.00,95.34
822.00,95.33
821.00,95.32
820.00,95.32
819.00,95.33
818.00,95.34
817.00,95.34
816.00,95.34
815.00,95.34
814.00,95.34
813.00,95.35
812.00,95.36
811.00,95.36
810.00,95.34
809.00,95.32
808.00,95.30
807.00,95.29
806.00,95.29
805.00,95.26
804.00,95.22
803.00,95.18
802.00,95.16
801.00,95.17
800.00,95.19
799.00,95.21
798.00,95.21
797.00,95.19
796.00,95.17
795.00,95.17
794.00,95.19
793.00,95.23
792.00,95.27
791.00,95.29
790.00,95.28
789.00,95.27
788.00,95.25
787.00,95.23
786.00,95.22
785.00,95.23
784.00,95.25
783.00,95.27
782.00,95.29
781.00,95.29
780.00,95.28
779.00,95.26
778.00,95.22
777.00,95.20
776.00,95.19
775.00,95.19
774.00,95.20
773.00,95.20
772.00,95.18
771.00,95.15
770.00,95.12
769.00,95.12
768.00,95.16
767.00,95.21
766.00,95.23
765.00,95.21
764.00,95.17
763.00,95.15
762.00,95.14
761.00,95.16
760.00,95.19
759.00,95.21
758.00,95.21
757.00,95.20
756.00,95.16
755.00,95.12
754.00,95.10
753.00,95.11
752.00,95.13
751.00,95.16
750.00,95.19
749.00,95.23
748.00,95.26
747.00,95.30
746.00,95.34
745.00,95.37
744.00,95.40
743.00,95.38
742.00,95.34
741.00,95.30
740.00,95.28
739.00,95.30
738.00,95.31
737.00,95.31
736.00,95.30
735.00,95.30
734.00,95.33
733.00,95.37
732.00,95.42
731.00,95.47
730.00,95.50
729.00,95.50
728.00,95.47
727.00,95.43
726.00,95.42
725.00,95.43
724.00,95.47
723.00,95.49
722.00,95.47
721.00,95.41
720.00,95.33
719.00,95.30
718.00,95.34
717.00,95.42
716.00,95.48
715.00,95.50
714.00,95.48
713.00,95.45
712.00,95.42
711.00,95.41
710.00,95.41
709.00,95.42
708.00,95.42
707.00,95.38
706.00,95.33
705.00,95.29
704.00,95.29
703.00,95.33
702.00,95.37
701.00,95.40
700.00,95.40
699.00,95.35
698.00,95.28
697.00,95.22
696.00,95.19
695.00,95.18
694.00,95.19
693.00,95.17
692.00,95.14
691.00,95.09
690.00,95.04
689.00,94.96
688.00,94.88
687.00,94.81
686.00,94.77
685.00,94.76
684.00,94.76
683.00,94.75
682.00,94.72
681.00,94.68
680.00,94.64
679.00,94.66
678.00,94.72
677.00,94.80
676.00,94.82
675.00,94.79
674.00,94.74
673.00,94.71
672.00,94.72
671.00,94.73
670.00,94.76
669.00,94.80
668.00,94.84
667.00,94.90
666.00,94.89
665.00,94.77
664.00,94.65
663.00,94.61
662.00,94.65
661.00,94.72
660.00,94.81
659.00,94.91
658.00,94.98
657.00,95.02
656.00,95.05
655.00,95.07
654.00,95.10
653.00,95.13
652.00,95.12
651.00,95.07
650.00,94.96
649.00,94.88
648.00,94.90
647.00,95.01
646.00,95.16
645.00,95.28
644.00,95.32
643.00,95.29
642.00,95.22
641.00,95.15
640.00,95.13
639.00,95.20
638.00,95.34
637.00,95.44
636.00,95.42
635.00,95.28
634.00,95.13
633.00,95.04
632.00,95.02
631.00,95.01
630.00,95.01
629.00,95.03
628.00,95.05
627.00,95.05
626.00,95.05
625.00,95.08
624.00,95.18
623.00,95.28
622.00,95.22
621.00,94.97
620.00,94.68
619.00,94.59
618.00,94.77
617.00,95.05
616.00,95.20
615.00,95.11
614.00,94.90
613.00,94.80
612.00,94.91
611.00,95.12
610.00,95.16
609.00,94.93
608.00,94.57
607.00,94.31
606.00,94.22
605.00,94.26
604.00,94.53
603.00,95.13
602.00,95.95
601.00,96.53
600.00,96.48
599.00,95.83
598.00,95.04
597.00,94.55
596.00,94.40
595.00,94.37
594.00,94.37
593.00,94.40
592.00,94.43
591.00,94.39
590.00,94.33
589.00,94.41
588.00,94.71
587.00,95.08
586.00,95.36
585.00,95.56
584.00,95.79
583.00,95.97
582.00,95.93
581.00,95.61
580.00,95.23
579.00,95.06
578.00,95.24
577.00,95.65
576.00,96.04
575.00,96.13
574.00,95.81
573.00,95.30
572.00,94.94
571.00,94.80
570.00,94.71
569.00,94.39
568.00,93.90
567.00,93.57
566.00,93.71
565.00,94.20
564.00,94.63
563.00,94.68
562.00,94.45
561.00,94.29
560.00,94.33
559.00,94.35
558.00,94.12
557.00,93.77
556.00,93.68
555.00,93.96
554.00,94.27
553.00,94.20
552.00,93.81
551.00,93.49
550.00,93.53
