Created as New Dataset,11. Acrylic Bayer
cm-1,%T
4000.00,100.32
3999.00,100.31
3998.00,100.30
3997.00,100.28
3996.00,100.27
3995.00,100.26
3994.00,100.26
3993.00,100.27
3992.00,100.27
3991.00,100.28
3990.00,100.29
3989.00,100.29
3988.00,100.27
3987.00,100.25
3986.00,100.23
3985.00,100.22
3984.00,100.23
3983.00,100.24
3982.00,100.24
3981.00,100.24
3980.00,100.24
3979.00,100.24
3978.00,100.24
3977.00,100.24
3976.00,100.24
3975.00,100.24
3974.00,100.23
3973.00,100.23
3972.00,100.22
3971.00,100.21
3970.00,100.22
3969.00,100.24
3968.00,100.26
3967.00,100.28
3966.00,100.29
3965.00,100.29
3964.00,100.29
3963.00,100.29
3962.00,100.28
3961.00,100.28
3960.00,100.28
3959.00,100.27
3958.00,100.25
3957.00,100.23
3956.00,100.21
3955.00,100.21
3954.00,100.22
3953.00,100.25
3952.00,100.27
3951.00,100.29
3950.00,100.30
3949.00,100.29
3948.00,100.28
3947.00,100.28
3946.00,100.28
3945.00,100.29
3944.00,100.30
3943.00,100.31
3942.00,100.31
3941.00,100.31
3940.00,100.30
3939.00,100.28
3938.00,100.26
3937.00,100.24
3936.00,100.24
3935.00,100.24
3934.00,100.24
3933.00,100.23
3932.00,100.22
3931.00,100.21
3930.00,100.22
3929.00,100.23
3928.00,100.25
3927.00,100.26
3926.00,100.26
3925.00,100.27
3924.00,100.27
3923.00,100.29
3922.00,100.29
3921.00,100.28
3920.00,100.26
3919.00,100.23
3918.00,100.21
3917.00,100.20
3916.00,100.21
3915.00,100.24
3914.00,100.26
3913.00,100.27
3912.00,100.27
3911.00,100.27
3910.00,100.28
3909.00,100.30
3908.00,100.31
3907.00,100.32
3906.00,100.32
3905.00,100.32
3904.00,100.31
3903.00,100.30
3902.00,100.31
3901.00,100.32
3900.00,100.33
3899.00,100.32
3898.00,100.30
3897.00,100.28
3896.00,100.27
3895.00,100.26
3894.00,100.25
3893.00,100.25
3892.00,100.23
3891.00,100.23
3890.00,100.23
3889.00,100.24
3888.00,100.25
3887.00,100.26
3886.00,100.24
3885.00,100.22
3884.00,100.21
3883.00,100.20
3882.00,100.20
3881.00,100.19
3880.00,100.20
3879.00,100.21
3878.00,100.22
3877.00,100.22
3876.00,100.21
3875.00,100.18
3874.00,100.17
3873.00,100.18
3872.00,100.18
3871.00,100.17
3870.00,100.17
3869.00,100.17
3868.00,100.19
3867.00,100.22
3866.00,100.23
3865.00,100.22
3864.00,100.21
3863.00,100.21
3862.00,100.22
3861.00,100.23
3860.00,100.24
3859.00,100.24
3858.00,100.24
3857.00,100.25
3856.00,100.26
3855.00,100.27
3854.00,100.27
3853.00,100.25
3852.00,100.23
3851.00,100.24
3850.00,100.24
3849.00,100.23
3848.00,100.23
3847.00,100.23
3846.00,100.23
3845.00,100.24
3844.00,100.25
3843.00,100.26
3842.00,100.28
3841.00,100.29
3840.00,100.29
3839.00,100.28
3838.00,100.27
3837.00,100.26
3836.00,100.26
3835.00,100.27
3834.00,100.26
3833.00,100.25
3832.00,100.23
3831.00,100.21
3830.00,100.19
3829.00,100.17
3828.00,100.15
3827.00,100.14
3826.00,100.14
3825.00,100.16
3824.00,100.17
3823.00,100.17
3822.00,100.14
3821.00,100.11
3820.00,100.10
3819.00,100.11
3818.00,100.12
3817.00,100.12
3816.00,100.12
3815.00,100.13
3814.00,100.14
3813.00,100.15
3812.00,100.15
3811.00,100.16
3810.00,100.18
3809.00,100.19
3808.00,100.19
3807.00,100.16
3806.00,100.13
3805.00,100.11
3804.00,100.11
3803.00,100.12
3802.00,100.14
3801.00,100.16
3800.00,100.18
3799.00,100.19
3798.00,100.18
3797.00,100.15
3796.00,100.13
3795.00,100.13
3794.00,100.15
3793.00,100.17
3792.00,100.17
3791.00,100.17
3790.00,100.16
3789.00,100.14
3788.00,100.14
3787.00,100.15
3786.00,100.17
3785.00,100.18
3784.00,100.17
3783.00,100.16
3782.00,100.14
3781.00,100.13
3780.00,100.12
3779.00,100.13
3778.00,100.14
3777.00,100.15
3776.00,100.16
3775.00,100.16
3774.00,100.15
3773.00,100.15
3772.00,100.16
3771.00,100.15
3770.00,100.14
3769.00,100.12
3768.00,100.11
3767.00,100.11
3766.00,100.11
3765.00,100.11
3764.00,100.11
3763.00,100.10
3762.00,100.10
3761.00,100.11
3760.00,100.12
3759.00,100.13
3758.00,100.14
3757.00,100.13
3756.00,100.12
3755.00,100.10
3754.00,100.10
3753.00,100.12
3752.00,100.15
3751.00,100.16
3750.00,100.16
3749.00,100.13
3748.00,100.12
3747.00,100.11
3746.00,100.10
3745.00,100.09
3744.00,100.09
3743.00,100.10
3742.00,100.13
3741.00,100.14
3740.00,100.14
3739.00,100.15
3738.00,100.16
3737.00,100.17
3736.00,100.17
3735.00,100.15
3734.00,100.13
3733.00,100.11
3732.00,100.09
3731.00,100.09
3730.00,100.09
3729.00,100.10
3728.00,100.10
3727.00,100.11
3726.00,100.11
3725.00,100.12
3724.00,100.11
3723.00,100.10
3722.00,100.09
3721.00,100.09
3720.00,100.10
3719.00,100.10
3718.00,100.09
3717.00,100.08
3716.00,100.08
3715.00,100.09
3714.00,100.08
3713.00,100.06
3712.00,100.02
3711.00,100.00
3710.00,100.01
3709.00,100.02
3708.00,100.02
3707.00,100.02
3706.00,100.00
3705.00,100.00
3704.00,100.00
3703.00,100.01
3702.00,100.05
3701.00,100.10
3700.00,100.15
3699.00,100.17
3698.00,100.16
3697.00,100.12
3696.00,100.10
3695.00,100.09
3694.00,100.09
3693.00,100.11
3692.00,100.12
3691.00,100.12
3690.00,100.11
3689.00,100.08
3688.00,100.07
3687.00,100.06
3686.00,100.05
3685.00,100.03
3684.00,100.01
3683.00,99.99
3682.00,99.98
3681.00,99.97
3680.00,99.98
3679.00,99.99
3678.00,100.01
3677.00,100.03
3676.00,100.03
3675.00,100.04
3674.00,100.05
3673.00,100.06
3672.00,100.06
3671.00,100.04
3670.00,100.04
3669.00,100.06
3668.00,100.07
3667.00,100.06
3666.00,100.02
3665.00,99.97
3664.00,99.94
3663.00,99.92
3662.00,99.92
3661.00,99.91
3660.00,99.92
3659.00,99.93
3658.00,99.94
3657.00,99.95
3656.00,99.95
3655.00,99.96
3654.00,99.98
3653.00,100.00
3652.00,100.02
3651.00,100.02
3650.00,100.00
3649.00,99.98
3648.00,99.98
3647.00,99.98
3646.00,99.98
3645.00,99.96
3644.00,99.93
3643.00,99.91
3642.00,99.89
3641.00,99.89
3640.00,99.89
3639.00,99.91
3638.00,99.93
3637.00,99.94
3636.00,99.95
3635.00,99.94
3634.00,99.93
3633.00,99.93
3632.00,99.95
3631.00,99.97
3630.00,99.99
3629.00,100.00
3628.00,100.00
3627.00,99.99
3626.00,99.96
3625.00,99.92
3624.00,99.88
3623.00,99.88
3622.00,99.89
3621.00,99.91
3620.00,99.91
3619.00,99.91
3618.00,99.90
3617.00,99.89
3616.00,99.88
3615.00,99.86
3614.00,99.85
3613.00,99.84
3612.00,99.85
3611.00,99.87
3610.00,99.87
3609.00,99.86
3608.00,99.85
3607.00,99.85
3606.00,99.85
3605.00,99.86
3604.00,99.86
3603.00,99.87
3602.00,99.86
3601.00,99.85
3600.00,99.84
3599.00,99.85
3598.00,99.86
3597.00,99.88
3596.00,99.88
3595.00,99.88
3594.00,99.88
3593.00,99.88
3592.00,99.89
3591.00,99.91
3590.00,99.93
3589.00,99.94
3588.00,99.95
3587.00,99.95
3586.00,99.95
3585.00,99.95
3584.00,99.94
3583.00,99.92
3582.00,99.91
3581.00,99.89
3580.00,99.88
3579.00,99.86
3578.00,99.85
3577.00,99.85
3576.00,99.85
3575.00,99.85
3574.00,99.85
3573.00,99.85
3572.00,99.87
3571.00,99.90
3570.00,99.92
3569.00,99.92
3568.00,99.91
3567.00,99.90
3566.00,99.90
3565.00,99.91
3564.00,99.93
3563.00,99.96
3562.00,99.97
3561.00,99.96
3560.00,99.94
3559.00,99.93
3558.00,99.92
3557.00,99.92
3556.00,99.93
3555.00,99.93
3554.00,99.90
3553.00,99.85
3552.00,99.81
3551.00,99.79
3550.00,99.79
3549.00,99.81
3548.00,99.83
3547.00,99.83
3546.00,99.84
3545.00,99.85
3544.00,99.87
3543.00,99.89
3542.00,99.89
3541.00,99.88
3540.00,99.87
3539.00,99.87
3538.00,99.87
3537.00,99.86
3536.00,99.86
3535.00,99.85
3534.00,99.84
3533.00,99.82
3532.00,99.81
3531.00,99.79
3530.00,99.79
3529.00,99.80
3528.00,99.81
3527.00,99.83
3526.00,99.86
3525.00,99.88
3524.00,99.89
3523.00,99.89
3522.00,99.89
3521.00,99.89
3520.00,99.89
3519.00,99.90
3518.00,99.90
3517.00,99.90
3516.00,99.90
3515.00,99.89
3514.00,99.88
3513.00,99.87
3512.00,99.87
3511.00,99.89
3510.00,99.90
3509.00,99.92
3508.00,99.93
3507.00,99.94
3506.00,99.95
3505.00,99.94
3504.00,99.91
3503.00,99.88
3502.00,99.86
3501.00,99.84
3500.00,99.83
3499.00,99.82
3498.00,99.82
3497.00,99.83
3496.00,99.85
3495.00,99.87
3494.00,99.89
3493.00,99.89
3492.00,99.89
3491.00,99.88
3490.00,99.89
3489.00,99.91
3488.00,99.92
3487.00,99.92
3486.00,99.90
3485.00,99.88
3484.00,99.87
3483.00,99.86
3482.00,99.87
3481.00,99.89
3480.00,99.92
3479.00,99.93
3478.00,99.93
3477.00,99.91
3476.00,99.88
3475.00,99.87
3474.00,99.87
3473.00,99.88
3472.00,99.89
3471.00,99.89
3470.00,99.88
3469.00,99.86
3468.00,99.86
3467.00,99.87
3466.00,99.88
3465.00,99.88
3464.00,99.89
3463.00,99.90
3462.00,99.91
3461.00,99.92
3460.00,99.92
3459.00,99.92
3458.00,99.92
3457.00,99.91
3456.00,99.91
3455.00,99.90
3454.00,99.90
3453.00,99.90
3452.00,99.90
3451.00,99.89
3450.00,99.89
3449.00,99.88
3448.00,99.87
3447.00,99.85
3446.00,99.84
3445.00,99.84
3444.00,99.84
3443.00,99.86
3442.00,99.88
3441.00,99.90
3440.00,99.91
3439.00,99.92
3438.00,99.93
3437.00,99.92
3436.00,99.91
3435.00,99.88
3434.00,99.85
3433.00,99.84
3432.00,99.85
3431.00,99.87
3430.00,99.88
3429.00,99.89
3428.00,99.89
3427.00,99.90
3426.00,99.91
3425.00,99.92
3424.00,99.92
3423.00,99.91
3422.00,99.90
3421.00,99.89
3420.00,99.89
3419.00,99.91
3418.00,99.94
3417.00,99.95
3416.00,99.95
3415.00,99.95
3414.00,99.96
3413.00,99.97
3412.00,99.98
3411.00,99.96
3410.00,99.93
3409.00,99.89
3408.00,99.86
3407.00,99.84
3406.00,99.85
3405.00,99.86
3404.00,99.89
3403.00,99.90
3402.00,99.89
3401.00,99.87
3400.00,99.86
3399.00,99.86
3398.00,99.88
3397.00,99.90
3396.00,99.90
3395.00,99.90
3394.00,99.89
3393.00,99.88
3392.00,99.87
3391.00,99.87
3390.00,99.88
3389.00,99.89
3388.00,99.90
3387.00,99.92
3386.00,99.92
3385.00,99.92
3384.00,99.92
3383.00,99.91
3382.00,99.91
3381.00,99.92
3380.00,99.92
3379.00,99.93
3378.00,99.92
3377.00,99.92
3376.00,99.92
3375.00,99.91
3374.00,99.91
3373.00,99.90
3372.00,99.90
3371.00,99.90
3370.00,99.89
3369.00,99.89
3368.00,99.89
3367.00,99.89
3366.00,99.89
3365.00,99.89
3364.00,99.89
3363.00,99.88
3362.00,99.89
3361.00,99.89
3360.00,99.90
3359.00,99.90
3358.00,99.90
3357.00,99.90
3356.00,99.90
3355.00,99.89
3354.00,99.89
3353.00,99.88
3352.00,99.88
3351.00,99.88
3350.00,99.88
3349.00,99.87
3348.00,99.86
3347.00,99.85
3346.00,99.85
3345.00,99.86
3344.00,99.86
3343.00,99.87
3342.00,99.86
3341.00,99.86
3340.00,99.86
3339.00,99.87
3338.00,99.88
3337.00,99.88
3336.00,99.88
3335.00,99.87
3334.00,99.87
3333.00,99.87
3332.00,99.87
3331.00,99.87
3330.00,99.86
3329.00,99.87
3328.00,99.89
3327.00,99.91
3326.00,99.92
3325.00,99.91
3324.00,99.88
3323.00,99.86
3322.00,99.84
3321.00,99.83
3320.00,99.83
3319.00,99.83
3318.00,99.82
3317.00,99.81
3316.00,99.80
3315.00,99.80
3314.00,99.81
3313.00,99.83
3312.00,99.85
3311.00,99.86
3310.00,99.88
3309.00,99.88
3308.00,99.87
3307.00,99.85
3306.00,99.85
3305.00,99.86
3304.00,99.87
3303.00,99.88
3302.00,99.90
3301.00,99.91
3300.00,99.91
3299.00,99.92
3298.00,99.92
3297.00,99.91
3296.00,99.90
3295.00,99.88
3294.00,99.87
3293.00,99.87
3292.00,99.88
3291.00,99.88
3290.00,99.89
3289.00,99.90
3288.00,99.91
3287.00,99.90
3286.00,99.89
3285.00,99.86
3284.00,99.84
3283.00,99.82
3282.00,99.82
3281.00,99.84
3280.00,99.86
3279.00,99.87
3278.00,99.87
3277.00,99.86
3276.00,99.85
3275.00,99.85
3274.00,99.85
3273.00,99.85
3272.00,99.83
3271.00,99.82
3270.00,99.83
3269.00,99.86
3268.00,99.89
3267.00,99.91
3266.00,99.91
3265.00,99.89
3264.00,99.86
3263.00,99.83
3262.00,99.81
3261.00,99.80
3260.00,99.79
3259.00,99.80
3258.00,99.82
3257.00,99.84
3256.00,99.85
3255.00,99.85
3254.00,99.84
3253.00,99.82
3252.00,99.80
3251.00,99.79
3250.00,99.77
3249.00,99.75
3248.00,99.75
3247.00,99.76
3246.00,99.78
3245.00,99.80
3244.00,99.82
3243.00,99.83
3242.00,99.83
3241.00,99.82
3240.00,99.82
3239.00,99.82
3238.00,99.82
3237.00,99.81
3236.00,99.81
3235.00,99.80
3234.00,99.81
3233.00,99.81
3232.00,99.80
3231.00,99.79
3230.00,99.78
3229.00,99.78
3228.00,99.80
3227.00,99.81
3226.00,99.83
3225.00,99.83
3224.00,99.82
3223.00,99.81
3222.00,99.80
3221.00,99.81
3220.00,99.82
3219.00,99.83
3218.00,99.84
3217.00,99.82
3216.00,99.80
3215.00,99.78
3214.00,99.77
3213.00,99.78
3212.00,99.79
3211.00,99.79
3210.00,99.79
3209.00,99.78
3208.00,99.77
3207.00,99.77
3206.00,99.76
3205.00,99.76
3204.00,99.76
3203.00,99.77
3202.00,99.79
3201.00,99.81
3200.00,99.82
3199.00,99.82
3198.00,99.82
3197.00,99.81
3196.00,99.81
3195.00,99.82
3194.00,99.82
3193.00,99.83
3192.00,99.82
3191.00,99.81
3190.00,99.80
3189.00,99.78
3188.00,99.77
3187.00,99.76
3186.00,99.77
3185.00,99.78
3184.00,99.78
3183.00,99.78
3182.00,99.77
3181.00,99.77
3180.00,99.77
3179.00,99.78
3178.00,99.78
3177.00,99.79
3176.00,99.79
3175.00,99.80
3174.00,99.81
3173.00,99.82
3172.00,99.82
3171.00,99.80
3170.00,99.78
3169.00,99.77
3168.00,99.76
3167.00,99.78
3166.00,99.81
3165.00,99.83
3164.00,99.83
3163.00,99.80
3162.00,99.76
3161.00,99.74
3160.00,99.73
3159.00,99.73
3158.00,99.74
3157.00,99.76
3156.00,99.77
3155.00,99.79
3154.00,99.79
3153.00,99.78
3152.00,99.78
3151.00,99.78
3150.00,99.80
3149.00,99.81
3148.00,99.83
3147.00,99.83
3146.00,99.84
3145.00,99.85
3144.00,99.85
3143.00,99.84
3142.00,99.82
3141.00,99.80
3140.00,99.79
3139.00,99.79
3138.00,99.79
3137.00,99.79
3136.00,99.80
3135.00,99.80
3134.00,99.81
3133.00,99.81
3132.00,99.81
3131.00,99.82
3130.00,99.82
3129.00,99.83
3128.00,99.83
3127.00,99.83
3126.00,99.82
3125.00,99.81
3124.00,99.82
3123.00,99.83
3122.00,99.84
3121.00,99.85
3120.00,99.84
3119.00,99.83
3118.00,99.81
3117.00,99.80
3116.00,99.80
3115.00,99.80
3114.00,99.81
3113.00,99.82
3112.00,99.82
3111.00,99.80
3110.00,99.79
3109.00,99.78
3108.00,99.79
3107.00,99.81
3106.00,99.82
3105.00,99.83
3104.00,99.83
3103.00,99.82
3102.00,99.80
3101.00,99.79
3100.00,99.78
3099.00,99.78
3098.00,99.79
3097.00,99.80
3096.00,99.80
3095.00,99.81
3094.00,99.80
3093.00,99.80
3092.00,99.78
3091.00,99.76
3090.00,99.74
3089.00,99.74
3088.00,99.75
3087.00,99.78
3086.00,99.80
3085.00,99.81
3084.00,99.81
3083.00,99.82
3082.00,99.82
3081.00,99.82
3080.00,99.80
3079.00,99.78
3078.00,99.77
3077.00,99.77
3076.00,99.78
3075.00,99.78
3074.00,99.78
3073.00,99.77
3072.00,99.76
3071.00,99.75
3070.00,99.74
3069.00,99.73
3068.00,99.74
3067.00,99.75
3066.00,99.76
3065.00,99.76
3064.00,99.77
3063.00,99.78
3062.00,99.79
3061.00,99.79
3060.00,99.78
3059.00,99.76
3058.00,99.74
3057.00,99.75
3056.00,99.76
3055.00,99.77
3054.00,99.77
3053.00,99.77
3052.00,99.76
3051.00,99.76
3050.00,99.76
3049.00,99.75
3048.00,99.75
3047.00,99.74
3046.00,99.73
3045.00,99.72
3044.00,99.72
3043.00,99.74
3042.00,99.77
3041.00,99.79
3040.00,99.80
3039.00,99.79
3038.00,99.78
3037.00,99.76
3036.00,99.75
3035.00,99.74
3034.00,99.74
3033.00,99.74
3032.00,99.74
3031.00,99.74
3030.00,99.74
3029.00,99.73
3028.00,99.72
3027.00,99.72
3026.00,99.72
3025.00,99.71
3024.00,99.71
3023.00,99.71
3022.00,99.72
3021.00,99.73
3020.00,99.74
3019.00,99.74
3018.00,99.74
3017.00,99.73
3016.00,99.73
3015.00,99.72
3014.00,99.71
3013.00,99.69
3012.00,99.68
3011.00,99.68
3010.00,99.68
3009.00,99.69
3008.00,99.69
3007.00,99.68
3006.00,99.68
3005.00,99.68
3004.00,99.67
3003.00,99.66
3002.00,99.64
3001.00,99.63
3000.00,99.62
2999.00,99.62
2998.00,99.62
2997.00,99.61
2996.00,99.60
2995.00,99.58
2994.00,99.58
2993.00,99.58
2992.00,99.59
2991.00,99.60
2990.00,99.61
2989.00,99.61
2988.00,99.61
2987.00,99.60
2986.00,99.59
2985.00,99.57
2984.00,99.57
2983.00,99.57
2982.00,99.58
2981.00,99.58
2980.00,99.58
2979.00,99.59
2978.00,99.60
2977.00,99.61
2976.00,99.60
2975.00,99.58
2974.00,99.55
2973.00,99.52
2972.00,99.49
2971.00,99.47
2970.00,99.46
2969.00,99.46
2968.00,99.46
2967.00,99.47
2966.00,99.47
2965.00,99.47
2964.00,99.46
2963.00,99.44
2962.00,99.43
2961.00,99.43
2960.00,99.43
2959.00,99.44
2958.00,99.44
2957.00,99.43
2956.00,99.42
2955.00,99.40
2954.00,99.36
2953.00,99.32
2952.00,99.29
2951.00,99.27
2950.00,99.27
2949.00,99.26
2948.00,99.24
2947.00,99.22
2946.00,99.20
2945.00,99.18
2944.00,99.17
2943.00,99.18
2942.00,99.18
2941.00,99.18
2940.00,99.17
2939.00,99.15
2938.00,99.13
2937.00,99.10
2936.00,99.08
2935.00,99.05
2934.00,99.05
2933.00,99.05
2932.00,99.06
2931.00,99.06
2930.00,99.06
2929.00,99.03
2928.00,99.01
2927.00,98.99
2926.00,98.98
2925.00,98.98
2924.00,98.97
2923.00,98.97
2922.00,98.98
2921.00,99.00
2920.00,99.01
2919.00,99.03
2918.00,99.04
2917.00,99.05
2916.00,99.08
2915.00,99.11
2914.00,99.15
2913.00,99.20
2912.00,99.24
2911.00,99.28
2910.00,99.31
2909.00,99.34
2908.00,99.36
2907.00,99.37
2906.00,99.37
2905.00,99.38
2904.00,99.39
2903.00,99.41
2902.00,99.43
2901.00,99.44
2900.00,99.44
2899.00,99.44
2898.00,99.44
2897.00,99.46
2896.00,99.47
2895.00,99.49
2894.00,99.51
2893.00,99.53
2892.00,99.55
2891.00,99.55
2890.00,99.56
2889.00,99.56
2888.00,99.56
2887.00,99.56
2886.00,99.56
2885.00,99.56
2884.00,99.56
2883.00,99.56
2882.00,99.57
2881.00,99.56
2880.00,99.55
2879.00,99.54
2878.00,99.53
2877.00,99.52
2876.00,99.53
2875.00,99.52
2874.00,99.52
2873.00,99.51
2872.00,99.51
2871.00,99.52
2870.00,99.52
2869.00,99.52
2868.00,99.52
2867.00,99.52
2866.00,99.52
2865.00,99.53
2864.00,99.54
2863.00,99.56
2862.00,99.57
2861.00,99.56
2860.00,99.54
2859.00,99.53
2858.00,99.53
2857.00,99.54
2856.00,99.55
2855.00,99.56
2854.00,99.56
2853.00,99.56
2852.00,99.56
2851.00,99.56
2850.00,99.57
2849.00,99.58
2848.00,99.58
2847.00,99.58
2846.00,99.59
2845.00,99.61
2844.00,99.63
2843.00,99.66
2842.00,99.69
2841.00,99.70
2840.00,99.70
2839.00,99.71
2838.00,99.71
2837.00,99.71
2836.00,99.70
2835.00,99.69
2834.00,99.70
2833.00,99.71
2832.00,99.73
2831.00,99.74
2830.00,99.74
2829.00,99.75
2828.00,99.75
2827.00,99.74
2826.00,99.74
2825.00,99.72
2824.00,99.71
2823.00,99.71
2822.00,99.71
2821.00,99.72
2820.00,99.72
2819.00,99.72
2818.00,99.72
2817.00,99.74
2816.00,99.76
2815.00,99.77
2814.00,99.77
2813.00,99.75
2812.00,99.74
2811.00,99.73
2810.00,99.73
2809.00,99.73
2808.00,99.71
2807.00,99.70
2806.00,99.69
2805.00,99.70
2804.00,99.71
2803.00,99.73
2802.00,99.73
2801.00,99.74
2800.00,99.75
2799.00,99.75
2798.00,99.75
2797.00,99.74
2796.00,99.73
2795.00,99.72
2794.00,99.72
2793.00,99.72
2792.00,99.72
2791.00,99.72
2790.00,99.73
2789.00,99.74
2788.00,99.75
2787.00,99.76
2786.00,99.76
2785.00,99.75
2784.00,99.75
2783.00,99.75
2782.00,99.75
2781.00,99.76
2780.00,99.77
2779.00,99.79
2778.00,99.79
2777.00,99.79
2776.00,99.78
2775.00,99.77
2774.00,99.77
2773.00,99.77
2772.00,99.78
2771.00,99.78
2770.00,99.78
2769.00,99.78
2768.00,99.78
2767.00,99.76
2766.00,99.75
2765.00,99.75
2764.00,99.76
2763.00,99.76
2762.00,99.77
2761.00,99.78
2760.00,99.78
2759.00,99.78
2758.00,99.77
2757.00,99.76
2756.00,99.76
2755.00,99.77
2754.00,99.78
2753.00,99.78
2752.00,99.78
2751.00,99.78
2750.00,99.78
2749.00,99.77
2748.00,99.75
2747.00,99.74
2746.00,99.74
2745.00,99.75
2744.00,99.76
2743.00,99.76
2742.00,99.76
2741.00,99.76
2740.00,99.76
2739.00,99.75
2738.00,99.74
2737.00,99.72
2736.00,99.71
2735.00,99.72
2734.00,99.73
2733.00,99.73
2732.00,99.73
2731.00,99.73
2730.00,99.75
2729.00,99.76
2728.00,99.77
2727.00,99.76
2726.00,99.76
2725.00,99.75
2724.00,99.75
2723.00,99.75
2722.00,99.75
2721.00,99.75
2720.00,99.75
2719.00,99.75
2718.00,99.75
2717.00,99.75
2716.00,99.74
2715.00,99.74
2714.00,99.75
2713.00,99.76
2712.00,99.76
2711.00,99.77
2710.00,99.77
2709.00,99.76
2708.00,99.75
2707.00,99.74
2706.00,99.74
2705.00,99.74
2704.00,99.74
2703.00,99.75
2702.00,99.75
2701.00,99.75
2700.00,99.75
2699.00,99.75
2698.00,99.74
2697.00,99.74
2696.00,99.75
2695.00,99.76
2694.00,99.76
2693.00,99.76
2692.00,99.76
2691.00,99.75
2690.00,99.73
2689.00,99.72
2688.00,99.70
2687.00,99.70
2686.00,99.71
2685.00,99.73
2684.00,99.74
2683.00,99.76
2682.00,99.76
2681.00,99.76
2680.00,99.76
2679.00,99.76
2678.00,99.76
2677.00,99.75
2676.00,99.74
2675.00,99.72
2674.00,99.72
2673.00,99.73
2672.00,99.74
2671.00,99.75
2670.00,99.76
2669.00,99.76
2668.00,99.76
2667.00,99.76
2666.00,99.76
2665.00,99.75
2664.00,99.75
2663.00,99.74
2662.00,99.73
2661.00,99.72
2660.00,99.70
2659.00,99.69
2658.00,99.68
2657.00,99.68
2656.00,99.67
2655.00,99.67
2654.00,99.67
2653.00,99.67
2652.00,99.66
2651.00,99.66
2650.00,99.65
2649.00,99.64
2648.00,99.63
2647.00,99.62
2646.00,99.62
2645.00,99.61
2644.00,99.60
2643.00,99.59
2642.00,99.59
2641.00,99.58
2640.00,99.57
2639.00,99.57
2638.00,99.58
2637.00,99.59
2636.00,99.59
2635.00,99.60
2634.00,99.60
2633.00,99.59
2632.00,99.59
2631.00,99.59
2630.00,99.58
2629.00,99.56
2628.00,99.54
2627.00,99.52
2626.00,99.53
2625.00,99.55
2624.00,99.58
2623.00,99.58
2622.00,99.57
2621.00,99.56
2620.00,99.56
2619.00,99.58
2618.00,99.59
2617.00,99.59
2616.00,99.58
2615.00,99.55
2614.00,99.54
2613.00,99.53
2612.00,99.52
2611.00,99.52
2610.00,99.53
2609.00,99.54
2608.00,99.54
2607.00,99.53
2606.00,99.52
2605.00,99.51
2604.00,99.50
2603.00,99.49
2602.00,99.48
2601.00,99.48
2600.00,99.49
2599.00,99.50
2598.00,99.51
2597.00,99.52
2596.00,99.52
2595.00,99.52
2594.00,99.52
2593.00,99.50
2592.00,99.49
2591.00,99.49
2590.00,99.49
2589.00,99.49
2588.00,99.48
2587.00,99.47
2586.00,99.48
2585.00,99.49
2584.00,99.51
2583.00,99.51
2582.00,99.50
2581.00,99.48
2580.00,99.47
2579.00,99.46
2578.00,99.45
2577.00,99.44
2576.00,99.43
2575.00,99.43
2574.00,99.43
2573.00,99.44
2572.00,99.44
2571.00,99.45
2570.00,99.46
2569.00,99.47
2568.00,99.47
2567.00,99.48
2566.00,99.48
2565.00,99.49
2564.00,99.48
2563.00,99.47
2562.00,99.45
2561.00,99.44
2560.00,99.44
2559.00,99.44
2558.00,99.44
2557.00,99.45
2556.00,99.47
2555.00,99.49
2554.00,99.50
2553.00,99.49
2552.00,99.46
2551.00,99.43
2550.00,99.41
2549.00,99.41
2548.00,99.41
2547.00,99.42
2546.00,99.43
2545.00,99.43
2544.00,99.44
2543.00,99.44
2542.00,99.44
2541.00,99.43
2540.00,99.42
2539.00,99.41
2538.00,99.41
2537.00,99.42
2536.00,99.43
2535.00,99.43
2534.00,99.44
2533.00,99.44
2532.00,99.44
2531.00,99.44
2530.00,99.44
2529.00,99.43
2528.00,99.42
2527.00,99.40
2526.00,99.40
2525.00,99.41
2524.00,99.43
2523.00,99.44
2522.00,99.43
2521.00,99.42
2520.00,99.41
2519.00,99.40
2518.00,99.40
2517.00,99.41
2516.00,99.41
2515.00,99.42
2514.00,99.43
2513.00,99.43
2512.00,99.43
2511.00,99.43
2510.00,99.43
2509.00,99.43
2508.00,99.44
2507.00,99.46
2506.00,99.47
2505.00,99.46
2504.00,99.43
2503.00,99.42
2502.00,99.41
2501.00,99.43
2500.00,99.44
2499.00,99.45
2498.00,99.45
2497.00,99.44
2496.00,99.45
2495.00,99.46
2494.00,99.47
2493.00,99.47
2492.00,99.46
2491.00,99.45
2490.00,99.44
2489.00,99.44
2488.00,99.44
2487.00,99.45
2486.00,99.46
2485.00,99.46
2484.00,99.47
2483.00,99.47
2482.00,99.47
2481.00,99.46
2480.00,99.44
2479.00,99.42
2478.00,99.40
2477.00,99.40
2476.00,99.42
2475.00,99.44
2474.00,99.45
2473.00,99.46
2472.00,99.45
2471.00,99.42
2470.00,99.40
2469.00,99.39
2468.00,99.40
2467.00,99.41
2466.00,99.41
2465.00,99.42
2464.00,99.43
2463.00,99.45
2462.00,99.45
2461.00,99.43
2460.00,99.41
2459.00,99.40
2458.00,99.42
2457.00,99.44
2456.00,99.46
2455.00,99.45
2454.00,99.43
2453.00,99.41
2452.00,99.40
2451.00,99.40
2450.00,99.41
2449.00,99.42
2448.00,99.43
2447.00,99.43
2446.00,99.43
2445.00,99.43
2444.00,99.44
2443.00,99.43
2442.00,99.42
2441.00,99.41
2440.00,99.42
2439.00,99.44
2438.00,99.45
2437.00,99.43
2436.00,99.41
2435.00,99.41
2434.00,99.42
2433.00,99.43
2432.00,99.42
2431.00,99.41
2430.00,99.40
2429.00,99.41
2428.00,99.42
2427.00,99.43
2426.00,99.43
2425.00,99.42
2424.00,99.42
2423.00,99.42
2422.00,99.44
2421.00,99.44
2420.00,99.42
2419.00,99.40
2418.00,99.39
2417.00,99.41
2416.00,99.43
2415.00,99.44
2414.00,99.43
2413.00,99.42
2412.00,99.42
2411.00,99.42
2410.00,99.43
2409.00,99.46
2408.00,99.49
2407.00,99.53
2406.00,99.55
2405.00,99.55
2404.00,99.55
2403.00,99.55
2402.00,99.55
2401.00,99.55
2400.00,99.54
2399.00,99.52
2398.00,99.51
2397.00,99.52
2396.00,99.53
2395.00,99.55
2394.00,99.56
2393.00,99.56
2392.00,99.56
2391.00,99.56
2390.00,99.56
2389.00,99.56
2388.00,99.55
2387.00,99.54
2386.00,99.53
2385.00,99.53
2384.00,99.53
2383.00,99.55
2382.00,99.57
2381.00,99.61
2380.00,99.64
2379.00,99.67
2378.00,99.69
2377.00,99.71
2376.00,99.71
2375.00,99.72
2374.00,99.71
2373.00,99.69
2372.00,99.70
2371.00,99.74
2370.00,99.80
2369.00,99.83
2368.00,99.83
2367.00,99.82
2366.00,99.83
2365.00,99.84
2364.00,99.86
2363.00,99.85
2362.00,99.83
2361.00,99.80
2360.00,99.80
2359.00,99.82
2358.00,99.83
2357.00,99.82
2356.00,99.78
2355.00,99.77
2354.00,99.80
2353.00,99.83
2352.00,99.85
2351.00,99.84
2350.00,99.83
2349.00,99.83
2348.00,99.83
2347.00,99.85
2346.00,99.89
2345.00,99.92
2344.00,99.95
2343.00,99.95
2342.00,99.93
2341.00,99.91
2340.00,99.88
2339.00,99.83
2338.00,99.77
2337.00,99.72
2336.00,99.72
2335.00,99.73
2334.00,99.75
2333.00,99.76
2332.00,99.76
2331.00,99.76
2330.00,99.76
2329.00,99.74
2328.00,99.69
2327.00,99.61
2326.00,99.55
2325.00,99.53
2324.00,99.53
2323.00,99.53
2322.00,99.51
2321.00,99.48
2320.00,99.44
2319.00,99.43
2318.00,99.45
2317.00,99.47
2316.00,99.49
2315.00,99.50
2314.00,99.49
2313.00,99.47
2312.00,99.47
2311.00,99.47
2310.00,99.48
2309.00,99.48
2308.00,99.46
2307.00,99.45
2306.00,99.44
2305.00,99.45
2304.00,99.45
2303.00,99.44
2302.00,99.41
2301.00,99.39
2300.00,99.38
2299.00,99.39
2298.00,99.40
2297.00,99.40
2296.00,99.39
2295.00,99.37
2294.00,99.35
2293.00,99.32
2292.00,99.27
2291.00,99.22
2290.00,99.19
2289.00,99.18
2288.00,99.18
2287.00,99.20
2286.00,99.20
2285.00,99.21
2284.00,99.21
2283.00,99.22
2282.00,99.23
2281.00,99.23
2280.00,99.23
2279.00,99.23
2278.00,99.22
2277.00,99.20
2276.00,99.18
2275.00,99.15
2274.00,99.13
2273.00,99.12
2272.00,99.12
2271.00,99.13
2270.00,99.13
2269.00,99.12
2268.00,99.10
2267.00,99.07
2266.00,99.05
2265.00,99.02
2264.00,99.00
2263.00,98.98
2262.00,98.97
2261.00,98.95
2260.00,98.90
2259.00,98.83
2258.00,98.75
2257.00,98.68
2256.00,98.61
2255.00,98.54
2254.00,98.46
2253.00,98.37
2252.00,98.26
2251.00,98.11
2250.00,97.95
2249.00,97.78
2248.00,97.63
2247.00,97.47
2246.00,97.31
2245.00,97.16
2244.00,97.05
2243.00,96.99
2242.00,96.99
2241.00,97.05
2240.00,97.16
2239.00,97.32
2238.00,97.50
2237.00,97.68
2236.00,97.87
2235.00,98.06
2234.00,98.24
2233.00,98.39
2232.00,98.50
2231.00,98.58
2230.00,98.64
2229.00,98.69
2228.00,98.74
2227.00,98.79
2226.00,98.81
2225.00,98.79
2224.00,98.75
2223.00,98.71
2222.00,98.69
2221.00,98.71
2220.00,98.75
2219.00,98.80
2218.00,98.85
2217.00,98.89
2216.00,98.90
2215.00,98.86
2214.00,98.80
2213.00,98.76
2212.00,98.76
2211.00,98.81
2210.00,98.86
2209.00,98.84
2208.00,98.77
2207.00,98.69
2206.00,98.66
2205.00,98.67
2204.00,98.72
2203.00,98.76
2202.00,98.79
2201.00,98.79
2200.00,98.76
2199.00,98.71
2198.00,98.65
2197.00,98.60
2196.00,98.59
2195.00,98.62
2194.00,98.67
2193.00,98.71
2192.00,98.71
2191.00,98.66
2190.00,98.61
2189.00,98.58
2188.00,98.55
2187.00,98.52
2186.00,98.52
2185.00,98.54
2184.00,98.58
2183.00,98.61
2182.00,98.61
2181.00,98.61
2180.00,98.63
2179.00,98.66
2178.00,98.67
2177.00,98.66
2176.00,98.62
2175.00,98.58
2174.00,98.56
2173.00,98.54
2172.00,98.55
2171.00,98.58
2170.00,98.60
2169.00,98.59
2168.00,98.56
2167.00,98.50
2166.00,98.45
2165.00,98.38
2164.00,98.29
2163.00,98.19
2162.00,98.12
2161.00,98.15
2160.00,98.29
2159.00,98.48
2158.00,98.63
2157.00,98.71
2156.00,98.74
2155.00,98.75
2154.00,98.74
2153.00,98.70
2152.00,98.65
2151.00,98.61
2150.00,98.59
2149.00,98.61
2148.00,98.66
2147.00,98.70
2146.00,98.73
2145.00,98.76
2144.00,98.80
2143.00,98.86
2142.00,98.93
2141.00,98.97
2140.00,98.98
2139.00,98.97
2138.00,98.98
2137.00,99.01
2136.00,99.07
2135.00,99.12
2134.00,99.15
2133.00,99.15
2132.00,99.15
2131.00,99.15
2130.00,99.16
2129.00,99.17
2128.00,99.17
2127.00,99.17
2126.00,99.18
2125.00,99.19
2124.00,99.22
2123.00,99.24
2122.00,99.25
2121.00,99.24
2120.00,99.23
2119.00,99.24
2118.00,99.24
2117.00,99.21
2116.00,99.15
2115.00,99.11
2114.00,99.09
2113.00,99.10
2112.00,99.11
2111.00,99.11
2110.00,99.11
2109.00,99.12
2108.00,99.13
2107.00,99.13
2106.00,99.14
2105.00,99.13
2104.00,99.12
2103.00,99.10
2102.00,99.07
2101.00,99.04
2100.00,99.03
2099.00,99.04
2098.00,99.07
2097.00,99.09
2096.00,99.12
2095.00,99.15
2094.00,99.16
2093.00,99.15
2092.00,99.11
2091.00,99.09
2090.00,99.09
2089.00,99.11
2088.00,99.12
2087.00,99.10
2086.00,99.07
2085.00,99.04
2084.00,99.02
2083.00,99.02
2082.00,99.03
2081.00,99.06
2080.00,99.08
2079.00,99.08
2078.00,99.07
2077.00,99.05
2076.00,99.06
2075.00,99.07
2074.00,99.07
2073.00,99.05
2072.00,99.01
2071.00,98.97
2070.00,98.93
2069.00,98.91
2068.00,98.90
2067.00,98.89
2066.00,98.88
2065.00,98.87
2064.00,98.87
2063.00,98.87
2062.00,98.87
2061.00,98.86
2060.00,98.86
2059.00,98.85
2058.00,98.85
2057.00,98.85
2056.00,98.86
2055.00,98.86
2054.00,98.85
2053.00,98.82
2052.00,98.76
2051.00,98.69
2050.00,98.65
2049.00,98.65
2048.00,98.66
2047.00,98.68
2046.00,98.70
2045.00,98.72
2044.00,98.73
2043.00,98.72
2042.00,98.69
2041.00,98.65
2040.00,98.60
2039.00,98.56
2038.00,98.53
2037.00,98.51
2036.00,98.52
2035.00,98.58
2034.00,98.66
2033.00,98.71
2032.00,98.72
2031.00,98.70
2030.00,98.69
2029.00,98.71
2028.00,98.70
2027.00,98.65
2026.00,98.60
2025.00,98.58
2024.00,98.60
2023.00,98.63
2022.00,98.64
2021.00,98.65
2020.00,98.67
2019.00,98.69
2018.00,98.69
2017.00,98.67
2016.00,98.66
2015.00,98.69
2014.00,98.74
2013.00,98.76
2012.00,98.75
2011.00,98.73
2010.00,98.75
2009.00,98.80
2008.00,98.83
2007.00,98.80
2006.00,98.72
2005.00,98.65
2004.00,98.64
2003.00,98.66
2002.00,98.67
2001.00,98.69
2000.00,98.72
1999.00,98.76
1998.00,98.80
1997.00,98.82
1996.00,98.83
1995.00,98.83
1994.00,98.80
1993.00,98.76
1992.00,98.71
1991.00,98.68
1990.00,98.69
1989.00,98.72
1988.00,98.74
1987.00,98.74
1986.00,98.73
1985.00,98.70
1984.00,98.63
1983.00,98.54
1982.00,98.47
1981.00,98.45
1980.00,98.48
1979.00,98.53
1978.00,98.58
1977.00,98.59
1976.00,98.58
1975.00,98.57
1974.00,98.58
1973.00,98.61
1972.00,98.65
1971.00,98.67
1970.00,98.68
1969.00,98.71
1968.00,98.77
1967.00,98.85
1966.00,98.90
1965.00,98.88
1964.00,98.84
1963.00,98.82
1962.00,98.87
1961.00,98.95
1960.00,99.01
1959.00,99.02
1958.00,99.00
1957.00,98.98
1956.00,98.98
1955.00,99.00
1954.00,99.01
1953.00,99.01
1952.00,98.99
1951.00,99.00
1950.00,99.03
1949.00,99.10
1948.00,99.16
1947.00,99.19
1946.00,99.17
1945.00,99.12
1944.00,99.07
1943.00,99.04
1942.00,99.05
1941.00,99.07
1940.00,99.08
1939.00,99.10
1938.00,99.13
1937.00,99.17
1936.00,99.20
1935.00,99.21
1934.00,99.20
1933.00,99.18
1932.00,99.16
1931.00,99.15
1930.00,99.16
1929.00,99.19
1928.00,99.21
1927.00,99.21
1926.00,99.21
1925.00,99.23
1924.00,99.26
1923.00,99.29
1922.00,99.30
1921.00,99.29
1920.00,99.28
1919.00,99.26
1918.00,99.25
1917.00,99.25
1916.00,99.25
1915.00,99.26
1914.00,99.27
1913.00,99.29
1912.00,99.30
1911.00,99.32
1910.00,99.34
1909.00,99.34
1908.00,99.33
1907.00,99.31
1906.00,99.29
1905.00,99.29
1904.00,99.30
1903.00,99.31
1902.00,99.32
1901.00,99.32
1900.00,99.31
1899.00,99.31
1898.00,99.30
1897.00,99.31
1896.00,99.31
1895.00,99.31
1894.00,99.32
1893.00,99.33
1892.00,99.35
1891.00,99.37
1890.00,99.38
1889.00,99.39
1888.00,99.40
1887.00,99.40
1886.00,99.40
1885.00,99.40
1884.00,99.41
1883.00,99.42
1882.00,99.42
1881.00,99.39
1880.00,99.37
1879.00,99.36
1878.00,99.37
1877.00,99.39
1876.00,99.41
1875.00,99.42
1874.00,99.41
1873.00,99.41
1872.00,99.40
1871.00,99.41
1870.00,99.40
1869.00,99.38
1868.00,99.35
1867.00,99.35
1866.00,99.38
1865.00,99.42
1864.00,99.45
1863.00,99.46
1862.00,99.45
1861.00,99.42
1860.00,99.40
1859.00,99.39
1858.00,99.40
1857.00,99.42
1856.00,99.42
1855.00,99.41
1854.00,99.40
1853.00,99.38
1852.00,99.38
1851.00,99.38
1850.00,99.40
1849.00,99.41
1848.00,99.42
1847.00,99.42
1846.00,99.42
1845.00,99.44
1844.00,99.48
1843.00,99.52
1842.00,99.53
1841.00,99.52
1840.00,99.51
1839.00,99.51
1838.00,99.50
1837.00,99.49
1836.00,99.48
1835.00,99.48
1834.00,99.49
1833.00,99.50
1832.00,99.51
1831.00,99.51
1830.00,99.52
1829.00,99.53
1828.00,99.53
1827.00,99.52
1826.00,99.51
1825.00,99.50
1824.00,99.48
1823.00,99.47
1822.00,99.47
1821.00,99.48
1820.00,99.50
1819.00,99.51
1818.00,99.53
1817.00,99.53
1816.00,99.54
1815.00,99.55
1814.00,99.56
1813.00,99.55
1812.00,99.54
1811.00,99.53
1810.00,99.54
1809.00,99.56
1808.00,99.58
1807.00,99.58
1806.00,99.57
1805.00,99.56
1804.00,99.55
1803.00,99.55
1802.00,99.55
1801.00,99.55
1800.00,99.56
1799.00,99.57
1798.00,99.59
1797.00,99.60
1796.00,99.59
1795.00,99.57
1794.00,99.55
1793.00,99.53
1792.00,99.53
1791.00,99.54
1790.00,99.55
1789.00,99.57
1788.00,99.57
1787.00,99.57
1786.00,99.57
1785.00,99.56
1784.00,99.55
1783.00,99.54
1782.00,99.55
1781.00,99.56
1780.00,99.58
1779.00,99.57
1778.00,99.56
1777.00,99.54
1776.00,99.53
1775.00,99.52
1774.00,99.53
1773.00,99.56
1772.00,99.58
1771.00,99.58
1770.00,99.56
1769.00,99.54
1768.00,99.55
1767.00,99.57
1766.00,99.58
1765.00,99.57
1764.00,99.55
1763.00,99.53
1762.00,99.51
1761.00,99.49
1760.00,99.47
1759.00,99.45
1758.00,99.43
1757.00,99.42
1756.00,99.40
1755.00,99.39
1754.00,99.36
1753.00,99.34
1752.00,99.31
1751.00,99.27
1750.00,99.20
1749.00,99.12
1748.00,99.04
1747.00,98.95
1746.00,98.87
1745.00,98.78
1744.00,98.68
1743.00,98.58
1742.00,98.49
1741.00,98.40
1740.00,98.31
1739.00,98.21
1738.00,98.13
1737.00,98.06
1736.00,97.99
1735.00,97.90
1734.00,97.83
1733.00,97.78
1732.00,97.77
1731.00,97.77
1730.00,97.80
1729.00,97.83
1728.00,97.87
1727.00,97.90
1726.00,97.94
1725.00,97.98
1724.00,98.05
1723.00,98.14
1722.00,98.23
1721.00,98.31
1720.00,98.40
1719.00,98.49
1718.00,98.59
1717.00,98.67
1716.00,98.73
1715.00,98.79
1714.00,98.86
1713.00,98.92
1712.00,98.97
1711.00,99.03
1710.00,99.08
1709.00,99.13
1708.00,99.17
1707.00,99.20
1706.00,99.23
1705.00,99.25
1704.00,99.26
1703.00,99.27
1702.00,99.30
1701.00,99.34
1700.00,99.38
1699.00,99.39
1698.00,99.39
1697.00,99.40
1696.00,99.39
1695.00,99.38
1694.00,99.36
1693.00,99.34
1692.00,99.34
1691.00,99.36
1690.00,99.37
1689.00,99.39
1688.00,99.40
1687.00,99.42
1686.00,99.45
1685.00,99.48
1684.00,99.48
1683.00,99.44
1682.00,99.39
1681.00,99.35
1680.00,99.33
1679.00,99.33
1678.00,99.32
1677.00,99.32
1676.00,99.30
1675.00,99.27
1674.00,99.22
1673.00,99.17
1672.00,99.14
1671.00,99.11
1670.00,99.10
1669.00,99.09
1668.00,99.08
1667.00,99.07
1666.00,99.06
1665.00,99.05
1664.00,99.06
1663.00,99.08
1662.00,99.09
1661.00,99.10
1660.00,99.11
1659.00,99.11
1658.00,99.12
1657.00,99.13
1656.00,99.15
1655.00,99.18
1654.00,99.20
1653.00,99.24
1652.00,99.26
1651.00,99.27
1650.00,99.27
1649.00,99.27
1648.00,99.28
1647.00,99.31
1646.00,99.33
1645.00,99.35
1644.00,99.36
1643.00,99.35
1642.00,99.35
1641.00,99.34
1640.00,99.35
1639.00,99.36
1638.00,99.36
1637.00,99.36
1636.00,99.34
1635.00,99.33
1634.00,99.32
1633.00,99.31
1632.00,99.31
1631.00,99.31
1630.00,99.31
1629.00,99.31
1628.00,99.29
1627.00,99.29
1626.00,99.29
1625.00,99.30
1624.00,99.32
1623.00,99.34
1622.00,99.35
1621.00,99.37
1620.00,99.37
1619.00,99.36
1618.00,99.35
1617.00,99.34
1616.00,99.35
1615.00,99.35
1614.00,99.36
1613.00,99.36
1612.00,99.36
1611.00,99.37
1610.00,99.39
1609.00,99.40
1608.00,99.40
1607.00,99.40
1606.00,99.40
1605.00,99.41
1604.00,99.43
1603.00,99.45
1602.00,99.47
1601.00,99.48
1600.00,99.49
1599.00,99.50
1598.00,99.50
1597.00,99.50
1596.00,99.50
1595.00,99.51
1594.00,99.52
1593.00,99.52
1592.00,99.50
1591.00,99.49
1590.00,99.49
1589.00,99.50
1588.00,99.51
1587.00,99.53
1586.00,99.54
1585.00,99.56
1584.00,99.57
1583.00,99.58
1582.00,99.58
1581.00,99.59
1580.00,99.58
1579.00,99.57
1578.00,99.57
1577.00,99.58
1576.00,99.59
1575.00,99.60
1574.00,99.59
1573.00,99.57
1572.00,99.56
1571.00,99.56
1570.00,99.57
1569.00,99.59
1568.00,99.62
1567.00,99.63
1566.00,99.63
1565.00,99.62
1564.00,99.62
1563.00,99.62
1562.00,99.63
1561.00,99.63
1560.00,99.62
1559.00,99.61
1558.00,99.61
1557.00,99.61
1556.00,99.61
1555.00,99.61
1554.00,99.62
1553.00,99.62
1552.00,99.62
1551.00,99.62
1550.00,99.62
1549.00,99.61
1548.00,99.61
1547.00,99.62
1546.00,99.63
1545.00,99.65
1544.00,99.65
1543.00,99.65
1542.00,99.65
1541.00,99.64
1540.00,99.63
1539.00,99.63
1538.00,99.64
1537.00,99.64
1536.00,99.64
1535.00,99.65
1534.00,99.65
1533.00,99.64
1532.00,99.63
1531.00,99.63
1530.00,99.63
1529.00,99.65
1528.00,99.66
1527.00,99.67
1526.00,99.67
1525.00,99.68
1524.00,99.67
1523.00,99.66
1522.00,99.66
1521.00,99.66
1520.00,99.66
1519.00,99.65
1518.00,99.65
1517.00,99.65
1516.00,99.65
1515.00,99.64
1514.00,99.63
1513.00,99.62
1512.00,99.63
1511.00,99.63
1510.00,99.63
1509.00,99.61
1508.00,99.59
1507.00,99.60
1506.00,99.63
1505.00,99.64
1504.00,99.64
1503.00,99.63
1502.00,99.63
1501.00,99.62
1500.00,99.60
1499.00,99.58
1498.00,99.58
1497.00,99.59
1496.00,99.62
1495.00,99.64
1494.00,99.65
1493.00,99.65
1492.00,99.66
1491.00,99.66
1490.00,99.65
1489.00,99.64
1488.00,99.63
1487.00,99.62
1486.00,99.62
1485.00,99.62
1484.00,99.63
1483.00,99.63
1482.00,99.62
1481.00,99.61
1480.00,99.59
1479.00,99.59
1478.00,99.60
1477.00,99.61
1476.00,99.60
1475.00,99.59
1474.00,99.57
1473.00,99.52
1472.00,99.45
1471.00,99.40
1470.00,99.36
1469.00,99.34
1468.00,99.31
1467.00,99.25
1466.00,99.15
1465.00,99.01
1464.00,98.85
1463.00,98.70
1462.00,98.56
1461.00,98.40
1460.00,98.24
1459.00,98.05
1458.00,97.83
1457.00,97.59
1456.00,97.40
1455.00,97.27
1454.00,97.17
1453.00,97.11
1452.00,97.07
1451.00,97.06
1450.00,97.08
1449.00,97.12
1448.00,97.19
1447.00,97.28
1446.00,97.37
1445.00,97.46
1444.00,97.56
1443.00,97.65
1442.00,97.75
1441.00,97.83
1440.00,97.91
1439.00,98.01
1438.00,98.12
1437.00,98.25
1436.00,98.36
1435.00,98.45
1434.00,98.51
1433.00,98.58
1432.00,98.66
1431.00,98.74
1430.00,98.82
1429.00,98.91
1428.00,98.99
1427.00,99.05
1426.00,99.11
1425.00,99.16
1424.00,99.21
1423.00,99.25
1422.00,99.29
1421.00,99.32
1420.00,99.36
1419.00,99.38
1418.00,99.40
1417.00,99.40
1416.00,99.40
1415.00,99.41
1414.00,99.41
1413.00,99.42
1412.00,99.44
1411.00,99.46
1410.00,99.46
1409.00,99.47
1408.00,99.47
1407.00,99.47
1406.00,99.46
1405.00,99.46
1404.00,99.46
1403.00,99.46
1402.00,99.46
1401.00,99.45
1400.00,99.45
1399.00,99.45
1398.00,99.43
1397.00,99.40
1396.00,99.35
1395.00,99.31
1394.00,99.29
1393.00,99.27
1392.00,99.25
1391.00,99.22
1390.00,99.20
1389.00,99.19
1388.00,99.18
1387.00,99.18
1386.00,99.17
1385.00,99.15
1384.00,99.13
1383.00,99.12
1382.00,99.10
1381.00,99.08
1380.00,99.07
1379.00,99.06
1378.00,99.06
1377.00,99.05
1376.00,99.03
1375.00,99.01
1374.00,98.99
1373.00,98.97
1372.00,98.96
1371.00,98.94
1370.00,98.93
1369.00,98.91
1368.00,98.89
1367.00,98.87
1366.00,98.85
1365.00,98.83
1364.00,98.81
1363.00,98.80
1362.00,98.80
1361.00,98.79
1360.00,98.79
1359.00,98.80
1358.00,98.80
1357.00,98.81
1356.00,98.82
1355.00,98.81
1354.00,98.81
1353.00,98.80
1352.00,98.80
1351.00,98.82
1350.00,98.83
1349.00,98.84
1348.00,98.85
1347.00,98.87
1346.00,98.88
1345.00,98.89
1344.00,98.89
1343.00,98.89
1342.00,98.91
1341.00,98.93
1340.00,98.97
1339.00,99.00
1338.00,99.03
1337.00,99.06
1336.00,99.07
1335.00,99.07
1334.00,99.08
1333.00,99.08
1332.00,99.10
1331.00,99.11
1330.00,99.12
1329.00,99.13
1328.00,99.13
1327.00,99.13
1326.00,99.13
1325.00,99.12
1324.00,99.13
1323.00,99.14
1322.00,99.15
1321.00,99.15
1320.00,99.14
1319.00,99.14
1318.00,99.14
1317.00,99.14
1316.00,99.14
1315.00,99.14
1314.00,99.14
1313.00,99.15
1312.00,99.16
1311.00,99.17
1310.00,99.18
1309.00,99.17
1308.00,99.16
1307.00,99.16
1306.00,99.16
1305.00,99.17
1304.00,99.18
1303.00,99.19
1302.00,99.20
1301.00,99.20
1300.00,99.20
1299.00,99.21
1298.00,99.21
1297.00,99.22
1296.00,99.22
1295.00,99.21
1294.00,99.20
1293.00,99.19
1292.00,99.19
1291.00,99.20
1290.00,99.20
1289.00,99.19
1288.00,99.18
1287.00,99.16
1286.00,99.14
1285.00,99.11
1284.00,99.09
1283.00,99.09
1282.00,99.09
1281.00,99.09
1280.00,99.08
1279.00,99.07
1278.00,99.04
1277.00,99.02
1276.00,98.99
1275.00,98.97
1274.00,98.95
1273.00,98.93
1272.00,98.91
1271.00,98.91
1270.00,98.91
1269.00,98.92
1268.00,98.93
1267.00,98.94
1266.00,98.94
1265.00,98.93
1264.00,98.92
1263.00,98.90
1262.00,98.90
1261.00,98.89
1260.00,98.87
1259.00,98.84
1258.00,98.80
1257.00,98.77
1256.00,98.76
1255.00,98.75
1254.00,98.75
1253.00,98.74
1252.00,98.71
1251.00,98.68
1250.00,98.65
1249.00,98.66
1248.00,98.69
1247.00,98.71
1246.00,98.72
1245.00,98.71
1244.00,98.70
1243.00,98.69
1242.00,98.70
1241.00,98.71
1240.00,98.73
1239.00,98.74
1238.00,98.75
1237.00,98.75
1236.00,98.74
1235.00,98.74
1234.00,98.73
1233.00,98.73
1232.00,98.74
1231.00,98.73
1230.00,98.72
1229.00,98.70
1228.00,98.69
1227.00,98.69
1226.00,98.69
1225.00,98.70
1224.00,98.70
1223.00,98.71
1222.00,98.70
1221.00,98.69
1220.00,98.68
1219.00,98.66
1218.00,98.66
1217.00,98.66
1216.00,98.68
1215.00,98.70
1214.00,98.71
1213.00,98.70
1212.00,98.68
1211.00,98.65
1210.00,98.64
1209.00,98.63
1208.00,98.63
1207.00,98.62
1206.00,98.60
1205.00,98.59
1204.00,98.59
1203.00,98.60
1202.00,98.62
1201.00,98.62
1200.00,98.61
1199.00,98.61
1198.00,98.62
1197.00,98.64
1196.00,98.65
1195.00,98.66
1194.00,98.68
1193.00,98.71
1192.00,98.74
1191.00,98.77
1190.00,98.79
1189.00,98.80
1188.00,98.81
1187.00,98.82
1186.00,98.82
1185.00,98.81
1184.00,98.79
1183.00,98.77
1182.00,98.76
1181.00,98.74
1180.00,98.72
1179.00,98.68
1178.00,98.64
1177.00,98.62
1176.00,98.61
1175.00,98.60
1174.00,98.58
1173.00,98.55
1172.00,98.52
1171.00,98.48
1170.00,98.46
1169.00,98.44
1168.00,98.44
1167.00,98.46
1166.00,98.50
1165.00,98.56
1164.00,98.64
1163.00,98.71
1162.00,98.78
1161.00,98.84
1160.00,98.88
1159.00,98.93
1158.00,98.97
1157.00,99.03
1156.00,99.08
1155.00,99.13
1154.00,99.18
1153.00,99.23
1152.00,99.29
1151.00,99.34
1150.00,99.39
1149.00,99.43
1148.00,99.45
1147.00,99.46
1146.00,99.45
1145.00,99.44
1144.00,99.44
1143.00,99.46
1142.00,99.49
1141.00,99.52
1140.00,99.54
1139.00,99.55
1138.00,99.55
1137.00,99.54
1136.00,99.54
1135.00,99.53
1134.00,99.55
1133.00,99.58
1132.00,99.61
1131.00,99.65
1130.00,99.66
1129.00,99.65
1128.00,99.62
1127.00,99.60
1126.00,99.58
1125.00,99.56
1124.00,99.53
1123.00,99.50
1122.00,99.48
1121.00,99.49
1120.00,99.49
1119.00,99.49
1118.00,99.46
1117.00,99.42
1116.00,99.37
1115.00,99.32
1114.00,99.28
1113.00,99.25
1112.00,99.24
1111.00,99.23
1110.00,99.23
1109.00,99.24
1108.00,99.24
1107.00,99.21
1106.00,99.17
1105.00,99.12
1104.00,99.08
1103.00,99.06
1102.00,99.05
1101.00,99.04
1100.00,99.04
1099.00,99.05
1098.00,99.07
1097.00,99.08
1096.00,99.08
1095.00,99.08
1094.00,99.07
1093.00,99.05
1092.00,99.02
1091.00,98.98
1090.00,98.95
1089.00,98.93
1088.00,98.92
1087.00,98.91
1086.00,98.89
1085.00,98.87
1084.00,98.86
1083.00,98.86
1082.00,98.86
1081.00,98.86
1080.00,98.83
1079.00,98.78
1078.00,98.72
1077.00,98.67
1076.00,98.65
1075.00,98.65
1074.00,98.65
1073.00,98.65
1072.00,98.64
1071.00,98.63
1070.00,98.61
1069.00,98.59
1068.00,98.58
1067.00,98.57
1066.00,98.60
1065.00,98.63
1064.00,98.68
1063.00,98.71
1062.00,98.73
1061.00,98.74
1060.00,98.76
1059.00,98.78
1058.00,98.82
1057.00,98.87
1056.00,98.91
1055.00,98.93
1054.00,98.95
1053.00,98.97
1052.00,99.00
1051.00,99.03
1050.00,99.06
1049.00,99.09
1048.00,99.10
1047.00,99.11
1046.00,99.11
1045.00,99.11
1044.00,99.10
1043.00,99.09
1042.00,99.06
1041.00,99.05
1040.00,99.05
1039.00,99.05
1038.00,99.04
1037.00,99.04
1036.00,99.05
1035.00,99.08
1034.00,99.13
1033.00,99.19
1032.00,99.26
1031.00,99.32
1030.00,99.37
1029.00,99.39
1028.00,99.41
1027.00,99.43
1026.00,99.45
1025.00,99.48
1024.00,99.51
1023.00,99.53
1022.00,99.54
1021.00,99.54
1020.00,99.54
1019.00,99.55
1018.00,99.57
1017.00,99.58
1016.00,99.58
1015.00,99.59
1014.00,99.61
1013.00,99.63
1012.00,99.63
1011.00,99.62
1010.00,99.61
1009.00,99.62
1008.00,99.63
1007.00,99.65
1006.00,99.65
1005.00,99.65
1004.00,99.64
1003.00,99.63
1002.00,99.64
1001.00,99.66
1000.00,99.68
999.00,99.69
998.00,99.69
997.00,99.71
996.00,99.75
995.00,99.78
994.00,99.79
993.00,99.78
992.00,99.76
991.00,99.75
990.00,99.75
989.00,99.76
988.00,99.78
987.00,99.80
986.00,99.81
985.00,99.82
984.00,99.81
983.00,99.82
982.00,99.82
981.00,99.83
980.00,99.83
979.00,99.82
978.00,99.81
977.00,99.80
976.00,99.80
975.00,99.82
974.00,99.84
973.00,99.85
972.00,99.86
971.00,99.85
970.00,99.83
969.00,99.82
968.00,99.80
967.00,99.78
966.00,99.78
965.00,99.78
964.00,99.79
963.00,99.78
962.00,99.77
961.00,99.76
960.00,99.75
959.00,99.76
958.00,99.76
957.00,99.76
956.00,99.77
955.00,99.77
954.00,99.78
953.00,99.80
952.00,99.81
951.00,99.83
950.00,99.84
949.00,99.86
948.00,99.89
947.00,99.92
946.00,99.94
945.00,99.95
944.00,99.94
943.00,99.91
942.00,99.88
941.00,99.85
940.00,99.85
939.00,99.86
938.00,99.86
937.00,99.86
936.00,99.86
935.00,99.87
934.00,99.89
933.00,99.90
932.00,99.90
931.00,99.89
930.00,99.88
929.00,99.88
928.00,99.89
927.00,99.89
926.00,99.88
925.00,99.89
924.00,99.90
923.00,99.92
922.00,99.95
921.00,99.98
920.00,100.00
919.00,100.02
918.00,100.03
917.00,100.04
916.00,100.05
915.00,100.07
914.00,100.10
913.00,100.12
912.00,100.12
911.00,100.10
910.00,100.06
909.00,100.02
908.00,99.99
907.00,100.00
906.00,100.02
905.00,100.05
904.00,100.06
903.00,100.04
902.00,100.02
901.00,100.00
900.00,100.00
899.00,100.02
898.00,100.05
897.00,100.06
896.00,100.06
895.00,100.04
894.00,100.03
893.00,100.03
892.00,100.04
891.00,100.06
890.00,100.08
889.00,100.10
888.00,100.11
887.00,100.11
886.00,100.11
885.00,100.11
884.00,100.09
883.00,100.07
882.00,100.05
881.00,100.06
880.00,100.09
879.00,100.11
878.00,100.13
877.00,100.15
876.00,100.17
875.00,100.18
874.00,100.18
873.00,100.18
872.00,100.16
871.00,100.14
870.00,100.12
869.00,100.12
868.00,100.11
867.00,100.10
866.00,100.08
865.00,100.08
864.00,100.11
863.00,100.15
862.00,100.19
861.00,100.21
860.00,100.23
859.00,100.22
858.00,100.20
857.00,100.16
856.00,100.13
855.00,100.13
854.00,100.12
853.00,100.11
852.00,100.10
851.00,100.10
850.00,100.12
849.00,100.15
848.00,100.16
847.00,100.15
846.00,100.10
845.00,100.05
844.00,100.01
843.00,100.01
842.00,100.04
841.00,100.06
840.00,100.05
839.00,100.04
838.00,100.03
837.00,100.03
836.00,100.05
835.00,100.05
834.00,100.04
833.00,100.03
832.00,100.04
831.00,100.07
830.00,100.11
829.00,100.13
828.00,100.14
827.00,100.15
826.00,100.16
825.00,100.15
824.00,100.13
823.00,100.09
822.00,100.07
821.00,100.07
820.00,100.08
819.00,100.08
818.00,100.08
817.00,100.10
816.00,100.13
815.00,100.16
814.00,100.17
813.00,100.16
812.00,100.14
811.00,100.13
810.00,100.15
809.00,100.19
808.00,100.23
807.00,100.28
806.00,100.31
805.00,100.32
804.00,100.30
803.00,100.26
802.00,100.24
801.00,100.24
800.00,100.22
799.00,100.19
798.00,100.14
797.00,100.12
796.00,100.14
795.00,100.18
794.00,100.22
793.00,100.25
792.00,100.25
791.00,100.21
790.00,100.15
789.00,100.11
788.00,100.09
787.00,100.10
786.00,100.13
785.00,100.15
784.00,100.17
783.00,100.16
782.00,100.15
781.00,100.14
780.00,100.14
779.00,100.13
778.00,100.11
777.00,100.08
776.00,100.08
775.00,100.11
774.00,100.15
773.00,100.20
772.00,100.22
771.00,100.21
770.00,100.19
769.00,100.18
768.00,100.18
767.00,100.20
766.00,100.21
765.00,100.20
764.00,100.20
763.00,100.20
762.00,100.22
761.00,100.25
760.00,100.27
759.00,100.26
758.00,100.24
757.00,100.23
756.00,100.24
755.00,100.27
754.00,100.29
753.00,100.30
752.00,100.29
751.00,100.27
750.00,100.26
749.00,100.26
748.00,100.28
747.00,100.32
746.00,100.33
745.00,100.32
744.00,100.31
743.00,100.33
742.00,100.36
741.00,100.39
740.00,100.39
739.00,100.38
738.00,100.35
737.00,100.30
736.00,100.27
735.00,100.29
734.00,100.36
733.00,100.44
732.00,100.48
731.00,100.51
730.00,100.54
729.00,100.57
728.00,100.58
727.00,100.56
726.00,100.55
725.00,100.55
724.00,100.56
723.00,100.57
722.00,100.56
721.00,100.56
720.00,100.55
719.00,100.57
718.00,100.60
717.00,100.65
716.00,100.70
715.00,100.71
714.00,100.69
713.00,100.69
712.00,100.71
711.00,100.77
710.00,100.82
709.00,100.85
708.00,100.85
707.00,100.85
706.00,100.86
705.00,100.84
704.00,100.80
703.00,100.73
702.00,100.69
701.00,100.71
700.00,100.76
699.00,100.82
698.00,100.85
697.00,100.85
696.00,100.84
695.00,100.82
694.00,100.82
693.00,100.84
692.00,100.86
691.00,100.85
690.00,100.81
689.00,100.75
688.00,100.70
687.00,100.66
686.00,100.64
685.00,100.64
684.00,100.65
683.00,100.71
682.00,100.78
681.00,100.85
680.00,100.84
679.00,100.77
678.00,100.69
677.00,100.65
676.00,100.67
675.00,100.73
674.00,100.84
673.00,100.97
672.00,101.05
671.00,101.02
670.00,100.93
669.00,100.86
668.00,100.89
667.00,100.94
666.00,100.86
665.00,100.73
664.00,100.62
663.00,100.58
662.00,100.59
661.00,100.65
660.00,100.74
659.00,100.83
658.00,100.90
657.00,100.94
656.00,100.95
655.00,100.91
654.00,100.85
653.00,100.83
652.00,100.85
651.00,100.85
650.00,100.78
649.00,100.67
648.00,100.59
647.00,100.57
646.00,100.61
645.00,100.65
644.00,100.69
643.00,100.73
642.00,100.75
641.00,100.72
640.00,100.63
639.00,100.51
638.00,100.46
637.00,100.49
636.00,100.53
635.00,100.51
634.00,100.47
633.00,100.54
632.00,100.75
631.00,100.96
630.00,101.05
629.00,100.97
628.00,100.77
627.00,100.52
626.00,100.33
625.00,100.27
624.00,100.36
623.00,100.56
622.00,100.82
621.00,101.12
620.00,101.39
619.00,101.52
618.00,101.56
617.00,101.64
616.00,101.77
615.00,101.84
614.00,101.77
613.00,101.62
612.00,101.43
611.00,101.16
610.00,100.92
609.00,100.89
608.00,101.05
607.00,101.20
606.00,101.21
605.00,101.11
604.00,100.64
603.00,99.38
602.00,97.42
601.00,95.83
600.00,95.74
599.00,97.28
598.00,99.32
597.00,100.57
596.00,100.85
595.00,100.75
594.00,100.80
593.00,100.97
592.00,101.12
591.00,101.22
590.00,101.31
589.00,101.42
588.00,101.55
587.00,101.60
586.00,101.41
585.00,101.04
584.00,100.84
583.00,101.14
582.00,101.65
581.00,101.77
580.00,101.32
579.00,100.84
578.00,100.92
577.00,101.50
576.00,102.07
575.00,102.30
574.00,102.34
573.00,102.50
572.00,102.77
571.00,102.84
570.00,102.54
569.00,102.07
568.00,101.75
567.00,101.67
566.00,101.72
565.00,101.78
564.00,101.85
563.00,101.96
562.00,101.99
561.00,101.89
560.00,101.66
559.00,101.41
558.00,101.17
557.00,100.95
556.00,100.87
555.00,100.97
554.00,101.12
553.00,101.09
552.00,100.80
551.00,100.41
550.00,100.18
