Created as New Dataset,34. Hoechst (Dark Red)
cm-1,%T
4000.00,98.88
3999.00,98.87
3998.00,98.85
3997.00,98.83
3996.00,98.83
3995.00,98.84
3994.00,98.86
3993.00,98.87
3992.00,98.86
3991.00,98.85
3990.00,98.84
3989.00,98.84
3988.00,98.83
3987.00,98.82
3986.00,98.82
3985.00,98.83
3984.00,98.83
3983.00,98.82
3982.00,98.81
3981.00,98.79
3980.00,98.78
3979.00,98.79
3978.00,98.80
3977.00,98.81
3976.00,98.82
3975.00,98.82
3974.00,98.82
3973.00,98.83
3972.00,98.83
3971.00,98.83
3970.00,98.82
3969.00,98.81
3968.00,98.80
3967.00,98.79
3966.00,98.79
3965.00,98.80
3964.00,98.81
3963.00,98.82
3962.00,98.82
3961.00,98.83
3960.00,98.84
3959.00,98.86
3958.00,98.88
3957.00,98.90
3956.00,98.90
3955.00,98.88
3954.00,98.86
3953.00,98.85
3952.00,98.85
3951.00,98.86
3950.00,98.87
3949.00,98.88
3948.00,98.89
3947.00,98.88
3946.00,98.87
3945.00,98.86
3944.00,98.84
3943.00,98.81
3942.00,98.79
3941.00,98.77
3940.00,98.78
3939.00,98.80
3938.00,98.83
3937.00,98.84
3936.00,98.84
3935.00,98.84
3934.00,98.84
3933.00,98.84
3932.00,98.83
3931.00,98.81
3930.00,98.79
3929.00,98.77
3928.00,98.77
3927.00,98.79
3926.00,98.82
3925.00,98.84
3924.00,98.85
3923.00,98.84
3922.00,98.82
3921.00,98.81
3920.00,98.80
3919.00,98.78
3918.00,98.75
3917.00,98.73
3916.00,98.73
3915.00,98.75
3914.00,98.76
3913.00,98.77
3912.00,98.77
3911.00,98.77
3910.00,98.78
3909.00,98.80
3908.00,98.83
3907.00,98.86
3906.00,98.88
3905.00,98.90
3904.00,98.91
3903.00,98.90
3902.00,98.87
3901.00,98.85
3900.00,98.84
3899.00,98.83
3898.00,98.82
3897.00,98.82
3896.00,98.82
3895.00,98.81
3894.00,98.80
3893.00,98.79
3892.00,98.79
3891.00,98.79
3890.00,98.78
3889.00,98.77
3888.00,98.76
3887.00,98.76
3886.00,98.77
3885.00,98.77
3884.00,98.76
3883.00,98.74
3882.00,98.73
3881.00,98.73
3880.00,98.73
3879.00,98.74
3878.00,98.74
3877.00,98.74
3876.00,98.74
3875.00,98.75
3874.00,98.76
3873.00,98.75
3872.00,98.75
3871.00,98.76
3870.00,98.77
3869.00,98.77
3868.00,98.76
3867.00,98.74
3866.00,98.74
3865.00,98.75
3864.00,98.75
3863.00,98.74
3862.00,98.73
3861.00,98.73
3860.00,98.73
3859.00,98.74
3858.00,98.74
3857.00,98.73
3856.00,98.71
3855.00,98.68
3854.00,98.66
3853.00,98.65
3852.00,98.62
3851.00,98.61
3850.00,98.61
3849.00,98.62
3848.00,98.64
3847.00,98.65
3846.00,98.65
3845.00,98.65
3844.00,98.65
3843.00,98.66
3842.00,98.66
3841.00,98.66
3840.00,98.65
3839.00,98.64
3838.00,98.63
3837.00,98.64
3836.00,98.65
3835.00,98.67
3834.00,98.69
3833.00,98.70
3832.00,98.71
3831.00,98.72
3830.00,98.71
3829.00,98.70
3828.00,98.69
3827.00,98.69
3826.00,98.69
3825.00,98.67
3824.00,98.64
3823.00,98.62
3822.00,98.62
3821.00,98.63
3820.00,98.62
3819.00,98.59
3818.00,98.57
3817.00,98.58
3816.00,98.60
3815.00,98.59
3814.00,98.56
3813.00,98.54
3812.00,98.54
3811.00,98.55
3810.00,98.57
3809.00,98.57
3808.00,98.58
3807.00,98.59
3806.00,98.59
3805.00,98.57
3804.00,98.54
3803.00,98.53
3802.00,98.55
3801.00,98.57
3800.00,98.58
3799.00,98.58
3798.00,98.58
3797.00,98.60
3796.00,98.62
3795.00,98.63
3794.00,98.63
3793.00,98.61
3792.00,98.59
3791.00,98.56
3790.00,98.54
3789.00,98.53
3788.00,98.52
3787.00,98.51
3786.00,98.51
3785.00,98.52
3784.00,98.53
3783.00,98.52
3782.00,98.51
3781.00,98.50
3780.00,98.50
3779.00,98.51
3778.00,98.53
3777.00,98.54
3776.00,98.56
3775.00,98.56
3774.00,98.55
3773.00,98.51
3772.00,98.48
3771.00,98.46
3770.00,98.45
3769.00,98.46
3768.00,98.46
3767.00,98.46
3766.00,98.45
3765.00,98.46
3764.00,98.46
3763.00,98.46
3762.00,98.46
3761.00,98.45
3760.00,98.43
3759.00,98.41
3758.00,98.40
3757.00,98.40
3756.00,98.38
3755.00,98.36
3754.00,98.34
3753.00,98.35
3752.00,98.38
3751.00,98.42
3750.00,98.45
3749.00,98.46
3748.00,98.45
3747.00,98.43
3746.00,98.43
3745.00,98.45
3744.00,98.46
3743.00,98.45
3742.00,98.43
3741.00,98.43
3740.00,98.44
3739.00,98.45
3738.00,98.44
3737.00,98.43
3736.00,98.43
3735.00,98.43
3734.00,98.43
3733.00,98.43
3732.00,98.43
3731.00,98.43
3730.00,98.42
3729.00,98.42
3728.00,98.43
3727.00,98.44
3726.00,98.44
3725.00,98.41
3724.00,98.37
3723.00,98.34
3722.00,98.33
3721.00,98.35
3720.00,98.36
3719.00,98.37
3718.00,98.36
3717.00,98.36
3716.00,98.37
3715.00,98.37
3714.00,98.38
3713.00,98.38
3712.00,98.37
3711.00,98.36
3710.00,98.34
3709.00,98.33
3708.00,98.34
3707.00,98.35
3706.00,98.37
3705.00,98.38
3704.00,98.38
3703.00,98.38
3702.00,98.37
3701.00,98.36
3700.00,98.35
3699.00,98.34
3698.00,98.33
3697.00,98.32
3696.00,98.32
3695.00,98.33
3694.00,98.35
3693.00,98.37
3692.00,98.36
3691.00,98.32
3690.00,98.26
3689.00,98.22
3688.00,98.20
3687.00,98.21
3686.00,98.23
3685.00,98.27
3684.00,98.29
3683.00,98.30
3682.00,98.28
3681.00,98.26
3680.00,98.24
3679.00,98.22
3678.00,98.20
3677.00,98.19
3676.00,98.19
3675.00,98.19
3674.00,98.19
3673.00,98.19
3672.00,98.21
3671.00,98.25
3670.00,98.28
3669.00,98.27
3668.00,98.24
3667.00,98.22
3666.00,98.21
3665.00,98.19
3664.00,98.17
3663.00,98.15
3662.00,98.13
3661.00,98.13
3660.00,98.12
3659.00,98.12
3658.00,98.10
3657.00,98.09
3656.00,98.08
3655.00,98.08
3654.00,98.06
3653.00,98.05
3652.00,98.03
3651.00,98.03
3650.00,98.03
3649.00,98.04
3648.00,98.03
3647.00,98.02
3646.00,98.01
3645.00,97.98
3644.00,97.96
3643.00,97.94
3642.00,97.92
3641.00,97.92
3640.00,97.94
3639.00,97.96
3638.00,97.99
3637.00,98.01
3636.00,98.03
3635.00,98.05
3634.00,98.06
3633.00,98.07
3632.00,98.05
3631.00,98.03
3630.00,98.02
3629.00,98.01
3628.00,97.98
3627.00,97.95
3626.00,97.94
3625.00,97.95
3624.00,97.97
3623.00,97.98
3622.00,97.97
3621.00,97.96
3620.00,97.97
3619.00,97.99
3618.00,98.00
3617.00,98.00
3616.00,98.00
3615.00,97.99
3614.00,98.00
3613.00,98.01
3612.00,98.01
3611.00,98.01
3610.00,98.01
3609.00,98.02
3608.00,98.02
3607.00,98.02
3606.00,98.00
3605.00,97.99
3604.00,97.98
3603.00,97.96
3602.00,97.95
3601.00,97.93
3600.00,97.92
3599.00,97.92
3598.00,97.93
3597.00,97.95
3596.00,97.97
3595.00,98.00
3594.00,98.02
3593.00,98.02
3592.00,98.01
3591.00,97.99
3590.00,97.96
3589.00,97.94
3588.00,97.94
3587.00,97.95
3586.00,97.97
3585.00,97.99
3584.00,98.00
3583.00,98.01
3582.00,98.02
3581.00,98.03
3580.00,98.04
3579.00,98.06
3578.00,98.07
3577.00,98.07
3576.00,98.07
3575.00,98.06
3574.00,98.07
3573.00,98.10
3572.00,98.12
3571.00,98.13
3570.00,98.12
3569.00,98.09
3568.00,98.04
3567.00,98.00
3566.00,97.97
3565.00,97.95
3564.00,97.95
3563.00,97.97
3562.00,97.99
3561.00,98.01
3560.00,98.02
3559.00,98.02
3558.00,98.00
3557.00,97.99
3556.00,97.97
3555.00,97.96
3554.00,97.95
3553.00,97.95
3552.00,97.95
3551.00,97.97
3550.00,97.99
3549.00,98.02
3548.00,98.03
3547.00,98.02
3546.00,97.99
3545.00,97.95
3544.00,97.91
3543.00,97.87
3542.00,97.86
3541.00,97.87
3540.00,97.89
3539.00,97.92
3538.00,97.94
3537.00,97.93
3536.00,97.92
3535.00,97.92
3534.00,97.93
3533.00,97.96
3532.00,98.01
3531.00,98.04
3530.00,98.06
3529.00,98.05
3528.00,98.02
3527.00,97.99
3526.00,97.96
3525.00,97.95
3524.00,97.93
3523.00,97.92
3522.00,97.92
3521.00,97.92
3520.00,97.94
3519.00,97.96
3518.00,97.99
3517.00,98.01
3516.00,98.01
3515.00,98.02
3514.00,98.03
3513.00,98.05
3512.00,98.05
3511.00,98.03
3510.00,98.00
3509.00,97.97
3508.00,97.96
3507.00,97.98
3506.00,98.01
3505.00,98.04
3504.00,98.06
3503.00,98.05
3502.00,98.03
3501.00,98.00
3500.00,97.98
3499.00,97.98
3498.00,97.99
3497.00,98.01
3496.00,98.02
3495.00,98.03
3494.00,98.03
3493.00,98.04
3492.00,98.05
3491.00,98.06
3490.00,98.07
3489.00,98.06
3488.00,98.06
3487.00,98.05
3486.00,98.05
3485.00,98.05
3484.00,98.06
3483.00,98.07
3482.00,98.06
3481.00,98.04
3480.00,98.01
3479.00,97.99
3478.00,97.99
3477.00,98.00
3476.00,98.01
3475.00,98.02
3474.00,98.01
3473.00,97.99
3472.00,97.97
3471.00,97.98
3470.00,98.00
3469.00,98.03
3468.00,98.07
3467.00,98.09
3466.00,98.08
3465.00,98.06
3464.00,98.03
3463.00,98.02
3462.00,98.02
3461.00,98.03
3460.00,98.04
3459.00,98.05
3458.00,98.05
3457.00,98.06
3456.00,98.07
3455.00,98.07
3454.00,98.08
3453.00,98.08
3452.00,98.07
3451.00,98.06
3450.00,98.04
3449.00,98.01
3448.00,97.99
3447.00,97.97
3446.00,97.96
3445.00,97.98
3444.00,98.02
3443.00,98.07
3442.00,98.11
3441.00,98.13
3440.00,98.14
3439.00,98.14
3438.00,98.13
3437.00,98.13
3436.00,98.12
3435.00,98.10
3434.00,98.06
3433.00,98.02
3432.00,97.99
3431.00,97.99
3430.00,98.01
3429.00,98.03
3428.00,98.05
3427.00,98.05
3426.00,98.05
3425.00,98.05
3424.00,98.04
3423.00,98.03
3422.00,98.02
3421.00,98.02
3420.00,98.03
3419.00,98.04
3418.00,98.05
3417.00,98.06
3416.00,98.07
3415.00,98.09
3414.00,98.10
3413.00,98.12
3412.00,98.13
3411.00,98.15
3410.00,98.16
3409.00,98.16
3408.00,98.13
3407.00,98.09
3406.00,98.06
3405.00,98.03
3404.00,98.03
3403.00,98.04
3402.00,98.08
3401.00,98.11
3400.00,98.15
3399.00,98.16
3398.00,98.15
3397.00,98.11
3396.00,98.08
3395.00,98.07
3394.00,98.07
3393.00,98.08
3392.00,98.09
3391.00,98.10
3390.00,98.10
3389.00,98.10
3388.00,98.10
3387.00,98.10
3386.00,98.09
3385.00,98.07
3384.00,98.05
3383.00,98.04
3382.00,98.04
3381.00,98.05
3380.00,98.06
3379.00,98.07
3378.00,98.07
3377.00,98.07
3376.00,98.05
3375.00,98.05
3374.00,98.04
3373.00,98.04
3372.00,98.05
3371.00,98.07
3370.00,98.08
3369.00,98.08
3368.00,98.07
3367.00,98.06
3366.00,98.06
3365.00,98.08
3364.00,98.10
3363.00,98.10
3362.00,98.09
3361.00,98.08
3360.00,98.07
3359.00,98.07
3358.00,98.08
3357.00,98.09
3356.00,98.09
3355.00,98.07
3354.00,98.05
3353.00,98.03
3352.00,98.02
3351.00,98.03
3350.00,98.04
3349.00,98.04
3348.00,98.04
3347.00,98.03
3346.00,98.02
3345.00,98.02
3344.00,98.01
3343.00,98.00
3342.00,97.99
3341.00,98.00
3340.00,98.02
3339.00,98.03
3338.00,98.04
3337.00,98.04
3336.00,98.03
3335.00,98.02
3334.00,98.03
3333.00,98.05
3332.00,98.05
3331.00,98.05
3330.00,98.04
3329.00,98.04
3328.00,98.05
3327.00,98.05
3326.00,98.04
3325.00,98.02
3324.00,97.99
3323.00,97.98
3322.00,97.98
3321.00,97.99
3320.00,97.99
3319.00,97.98
3318.00,97.96
3317.00,97.94
3316.00,97.94
3315.00,97.94
3314.00,97.96
3313.00,97.98
3312.00,98.00
3311.00,98.02
3310.00,98.02
3309.00,98.01
3308.00,98.01
3307.00,98.00
3306.00,98.00
3305.00,98.00
3304.00,97.99
3303.00,97.99
3302.00,98.00
3301.00,98.01
3300.00,98.01
3299.00,98.00
3298.00,97.98
3297.00,97.97
3296.00,97.95
3295.00,97.94
3294.00,97.93
3293.00,97.92
3292.00,97.93
3291.00,97.94
3290.00,97.95
3289.00,97.95
3288.00,97.94
3287.00,97.93
3286.00,97.93
3285.00,97.93
3284.00,97.93
3283.00,97.93
3282.00,97.94
3281.00,97.95
3280.00,97.95
3279.00,97.95
3278.00,97.94
3277.00,97.91
3276.00,97.89
3275.00,97.89
3274.00,97.91
3273.00,97.95
3272.00,97.97
3271.00,97.97
3270.00,97.96
3269.00,97.95
3268.00,97.95
3267.00,97.95
3266.00,97.95
3265.00,97.94
3264.00,97.93
3263.00,97.93
3262.00,97.92
3261.00,97.92
3260.00,97.91
3259.00,97.91
3258.00,97.90
3257.00,97.90
3256.00,97.89
3255.00,97.88
3254.00,97.88
3253.00,97.89
3252.00,97.89
3251.00,97.90
3250.00,97.91
3249.00,97.92
3248.00,97.94
3247.00,97.93
3246.00,97.92
3245.00,97.89
3244.00,97.87
3243.00,97.86
3242.00,97.86
3241.00,97.86
3240.00,97.86
3239.00,97.86
3238.00,97.86
3237.00,97.86
3236.00,97.86
3235.00,97.87
3234.00,97.87
3233.00,97.87
3232.00,97.86
3231.00,97.86
3230.00,97.86
3229.00,97.85
3228.00,97.84
3227.00,97.83
3226.00,97.84
3225.00,97.86
3224.00,97.88
3223.00,97.89
3222.00,97.89
3221.00,97.89
3220.00,97.89
3219.00,97.89
3218.00,97.89
3217.00,97.89
3216.00,97.89
3215.00,97.91
3214.00,97.92
3213.00,97.91
3212.00,97.89
3211.00,97.87
3210.00,97.86
3209.00,97.86
3208.00,97.86
3207.00,97.86
3206.00,97.85
3205.00,97.84
3204.00,97.84
3203.00,97.84
3202.00,97.86
3201.00,97.87
3200.00,97.87
3199.00,97.88
3198.00,97.88
3197.00,97.88
3196.00,97.88
3195.00,97.90
3194.00,97.91
3193.00,97.91
3192.00,97.90
3191.00,97.89
3190.00,97.88
3189.00,97.88
3188.00,97.87
3187.00,97.86
3186.00,97.85
3185.00,97.84
3184.00,97.85
3183.00,97.86
3182.00,97.88
3181.00,97.90
3180.00,97.91
3179.00,97.92
3178.00,97.91
3177.00,97.91
3176.00,97.91
3175.00,97.91
3174.00,97.91
3173.00,97.89
3172.00,97.87
3171.00,97.85
3170.00,97.85
3169.00,97.86
3168.00,97.87
3167.00,97.89
3166.00,97.90
3165.00,97.90
3164.00,97.90
3163.00,97.90
3162.00,97.89
3161.00,97.87
3160.00,97.85
3159.00,97.83
3158.00,97.83
3157.00,97.84
3156.00,97.86
3155.00,97.87
3154.00,97.88
3153.00,97.89
3152.00,97.90
3151.00,97.90
3150.00,97.90
3149.00,97.89
3148.00,97.89
3147.00,97.89
3146.00,97.90
3145.00,97.89
3144.00,97.89
3143.00,97.88
3142.00,97.89
3141.00,97.90
3140.00,97.91
3139.00,97.91
3138.00,97.92
3137.00,97.92
3136.00,97.92
3135.00,97.91
3134.00,97.91
3133.00,97.92
3132.00,97.92
3131.00,97.93
3130.00,97.92
3129.00,97.90
3128.00,97.89
3127.00,97.90
3126.00,97.92
3125.00,97.94
3124.00,97.95
3123.00,97.94
3122.00,97.92
3121.00,97.89
3120.00,97.89
3119.00,97.89
3118.00,97.91
3117.00,97.91
3116.00,97.91
3115.00,97.90
3114.00,97.90
3113.00,97.89
3112.00,97.89
3111.00,97.89
3110.00,97.90
3109.00,97.90
3108.00,97.90
3107.00,97.88
3106.00,97.86
3105.00,97.85
3104.00,97.86
3103.00,97.87
3102.00,97.88
3101.00,97.90
3100.00,97.91
3099.00,97.91
3098.00,97.91
3097.00,97.90
3096.00,97.89
3095.00,97.88
3094.00,97.88
3093.00,97.87
3092.00,97.87
3091.00,97.88
3090.00,97.88
3089.00,97.88
3088.00,97.87
3087.00,97.86
3086.00,97.85
3085.00,97.85
3084.00,97.85
3083.00,97.85
3082.00,97.85
3081.00,97.84
3080.00,97.83
3079.00,97.83
3078.00,97.84
3077.00,97.86
3076.00,97.86
3075.00,97.85
3074.00,97.83
3073.00,97.80
3072.00,97.80
3071.00,97.81
3070.00,97.82
3069.00,97.83
3068.00,97.83
3067.00,97.83
3066.00,97.82
3065.00,97.83
3064.00,97.83
3063.00,97.83
3062.00,97.83
3061.00,97.82
3060.00,97.82
3059.00,97.82
3058.00,97.82
3057.00,97.81
3056.00,97.79
3055.00,97.77
3054.00,97.76
3053.00,97.76
3052.00,97.76
3051.00,97.77
3050.00,97.78
3049.00,97.79
3048.00,97.82
3047.00,97.84
3046.00,97.84
3045.00,97.84
3044.00,97.83
3043.00,97.82
3042.00,97.82
3041.00,97.82
3040.00,97.82
3039.00,97.81
3038.00,97.80
3037.00,97.78
3036.00,97.78
3035.00,97.78
3034.00,97.79
3033.00,97.80
3032.00,97.80
3031.00,97.79
3030.00,97.77
3029.00,97.76
3028.00,97.75
3027.00,97.76
3026.00,97.77
3025.00,97.78
3024.00,97.78
3023.00,97.79
3022.00,97.79
3021.00,97.79
3020.00,97.78
3019.00,97.77
3018.00,97.76
3017.00,97.76
3016.00,97.75
3015.00,97.74
3014.00,97.74
3013.00,97.74
3012.00,97.72
3011.00,97.70
3010.00,97.68
3009.00,97.66
3008.00,97.65
3007.00,97.64
3006.00,97.64
3005.00,97.63
3004.00,97.63
3003.00,97.63
3002.00,97.62
3001.00,97.60
3000.00,97.58
2999.00,97.55
2998.00,97.54
2997.00,97.53
2996.00,97.51
2995.00,97.50
2994.00,97.49
2993.00,97.48
2992.00,97.47
2991.00,97.47
2990.00,97.46
2989.00,97.45
2988.00,97.43
2987.00,97.42
2986.00,97.42
2985.00,97.43
2984.00,97.44
2983.00,97.44
2982.00,97.44
2981.00,97.43
2980.00,97.41
2979.00,97.39
2978.00,97.36
2977.00,97.35
2976.00,97.34
2975.00,97.34
2974.00,97.33
2973.00,97.32
2972.00,97.30
2971.00,97.27
2970.00,97.25
2969.00,97.23
2968.00,97.22
2967.00,97.21
2966.00,97.19
2965.00,97.17
2964.00,97.15
2963.00,97.14
2962.00,97.12
2961.00,97.08
2960.00,97.04
2959.00,96.99
2958.00,96.95
2957.00,96.92
2956.00,96.89
2955.00,96.85
2954.00,96.81
2953.00,96.77
2952.00,96.72
2951.00,96.68
2950.00,96.63
2949.00,96.58
2948.00,96.52
2947.00,96.47
2946.00,96.42
2945.00,96.37
2944.00,96.31
2943.00,96.25
2942.00,96.20
2941.00,96.14
2940.00,96.10
2939.00,96.07
2938.00,96.04
2937.00,96.03
2936.00,96.03
2935.00,96.02
2934.00,96.02
2933.00,96.01
2932.00,96.00
2931.00,95.99
2930.00,95.97
2929.00,95.95
2928.00,95.94
2927.00,95.94
2926.00,95.94
2925.00,95.93
2924.00,95.92
2923.00,95.91
2922.00,95.93
2921.00,95.97
2920.00,96.01
2919.00,96.05
2918.00,96.09
2917.00,96.14
2916.00,96.18
2915.00,96.23
2914.00,96.27
2913.00,96.31
2912.00,96.37
2911.00,96.42
2910.00,96.48
2909.00,96.52
2908.00,96.55
2907.00,96.59
2906.00,96.63
2905.00,96.67
2904.00,96.72
2903.00,96.76
2902.00,96.80
2901.00,96.85
2900.00,96.88
2899.00,96.91
2898.00,96.93
2897.00,96.95
2896.00,96.97
2895.00,96.98
2894.00,97.00
2893.00,97.01
2892.00,97.02
2891.00,97.03
2890.00,97.05
2889.00,97.07
2888.00,97.09
2887.00,97.09
2886.00,97.09
2885.00,97.08
2884.00,97.08
2883.00,97.09
2882.00,97.09
2881.00,97.09
2880.00,97.09
2879.00,97.07
2878.00,97.04
2877.00,97.02
2876.00,97.01
2875.00,97.02
2874.00,97.04
2873.00,97.04
2872.00,97.04
2871.00,97.02
2870.00,97.01
2869.00,96.99
2868.00,96.99
2867.00,97.01
2866.00,97.04
2865.00,97.05
2864.00,97.05
2863.00,97.03
2862.00,97.02
2861.00,97.02
2860.00,97.03
2859.00,97.04
2858.00,97.05
2857.00,97.06
2856.00,97.07
2855.00,97.07
2854.00,97.08
2853.00,97.10
2852.00,97.12
2851.00,97.16
2850.00,97.19
2849.00,97.23
2848.00,97.27
2847.00,97.31
2846.00,97.34
2845.00,97.37
2844.00,97.40
2843.00,97.43
2842.00,97.46
2841.00,97.48
2840.00,97.51
2839.00,97.53
2838.00,97.55
2837.00,97.56
2836.00,97.57
2835.00,97.58
2834.00,97.59
2833.00,97.59
2832.00,97.59
2831.00,97.60
2830.00,97.60
2829.00,97.62
2828.00,97.64
2827.00,97.65
2826.00,97.66
2825.00,97.67
2824.00,97.69
2823.00,97.70
2822.00,97.71
2821.00,97.70
2820.00,97.69
2819.00,97.69
2818.00,97.70
2817.00,97.71
2816.00,97.71
2815.00,97.69
2814.00,97.67
2813.00,97.66
2812.00,97.67
2811.00,97.68
2810.00,97.69
2809.00,97.69
2808.00,97.69
2807.00,97.68
2806.00,97.68
2805.00,97.69
2804.00,97.70
2803.00,97.71
2802.00,97.72
2801.00,97.74
2800.00,97.75
2799.00,97.75
2798.00,97.74
2797.00,97.73
2796.00,97.73
2795.00,97.72
2794.00,97.72
2793.00,97.72
2792.00,97.71
2791.00,97.71
2790.00,97.71
2789.00,97.73
2788.00,97.74
2787.00,97.75
2786.00,97.75
2785.00,97.75
2784.00,97.75
2783.00,97.76
2782.00,97.76
2781.00,97.75
2780.00,97.74
2779.00,97.73
2778.00,97.74
2777.00,97.75
2776.00,97.76
2775.00,97.77
2774.00,97.77
2773.00,97.78
2772.00,97.80
2771.00,97.82
2770.00,97.83
2769.00,97.83
2768.00,97.82
2767.00,97.81
2766.00,97.80
2765.00,97.78
2764.00,97.76
2763.00,97.75
2762.00,97.75
2761.00,97.77
2760.00,97.79
2759.00,97.81
2758.00,97.81
2757.00,97.80
2756.00,97.80
2755.00,97.82
2754.00,97.83
2753.00,97.82
2752.00,97.81
2751.00,97.80
2750.00,97.80
2749.00,97.80
2748.00,97.81
2747.00,97.80
2746.00,97.79
2745.00,97.79
2744.00,97.78
2743.00,97.78
2742.00,97.79
2741.00,97.79
2740.00,97.79
2739.00,97.79
2738.00,97.78
2737.00,97.77
2736.00,97.77
2735.00,97.77
2734.00,97.76
2733.00,97.76
2732.00,97.76
2731.00,97.76
2730.00,97.76
2729.00,97.75
2728.00,97.74
2727.00,97.74
2726.00,97.74
2725.00,97.75
2724.00,97.77
2723.00,97.79
2722.00,97.79
2721.00,97.79
2720.00,97.79
2719.00,97.78
2718.00,97.78
2717.00,97.78
2716.00,97.79
2715.00,97.79
2714.00,97.79
2713.00,97.79
2712.00,97.78
2711.00,97.76
2710.00,97.74
2709.00,97.74
2708.00,97.76
2707.00,97.78
2706.00,97.81
2705.00,97.82
2704.00,97.82
2703.00,97.80
2702.00,97.79
2701.00,97.78
2700.00,97.78
2699.00,97.79
2698.00,97.79
2697.00,97.78
2696.00,97.77
2695.00,97.78
2694.00,97.78
2693.00,97.79
2692.00,97.79
2691.00,97.80
2690.00,97.80
2689.00,97.79
2688.00,97.78
2687.00,97.76
2686.00,97.76
2685.00,97.75
2684.00,97.75
2683.00,97.75
2682.00,97.76
2681.00,97.75
2680.00,97.75
2679.00,97.75
2678.00,97.75
2677.00,97.76
2676.00,97.77
2675.00,97.77
2674.00,97.77
2673.00,97.77
2672.00,97.77
2671.00,97.78
2670.00,97.78
2669.00,97.78
2668.00,97.77
2667.00,97.75
2666.00,97.74
2665.00,97.73
2664.00,97.72
2663.00,97.70
2662.00,97.69
2661.00,97.67
2660.00,97.67
2659.00,97.66
2658.00,97.65
2657.00,97.64
2656.00,97.64
2655.00,97.64
2654.00,97.64
2653.00,97.63
2652.00,97.61
2651.00,97.60
2650.00,97.59
2649.00,97.59
2648.00,97.58
2647.00,97.56
2646.00,97.54
2645.00,97.52
2644.00,97.50
2643.00,97.50
2642.00,97.50
2641.00,97.50
2640.00,97.49
2639.00,97.48
2638.00,97.46
2637.00,97.44
2636.00,97.42
2635.00,97.42
2634.00,97.42
2633.00,97.43
2632.00,97.44
2631.00,97.44
2630.00,97.43
2629.00,97.42
2628.00,97.40
2627.00,97.38
2626.00,97.36
2625.00,97.34
2624.00,97.32
2623.00,97.32
2622.00,97.33
2621.00,97.35
2620.00,97.36
2619.00,97.35
2618.00,97.33
2617.00,97.32
2616.00,97.30
2615.00,97.29
2614.00,97.29
2613.00,97.29
2612.00,97.28
2611.00,97.27
2610.00,97.26
2609.00,97.25
2608.00,97.25
2607.00,97.25
2606.00,97.24
2605.00,97.22
2604.00,97.19
2603.00,97.17
2602.00,97.16
2601.00,97.17
2600.00,97.18
2599.00,97.18
2598.00,97.19
2597.00,97.18
2596.00,97.17
2595.00,97.16
2594.00,97.14
2593.00,97.12
2592.00,97.11
2591.00,97.12
2590.00,97.12
2589.00,97.12
2588.00,97.11
2587.00,97.09
2586.00,97.07
2585.00,97.07
2584.00,97.07
2583.00,97.07
2582.00,97.08
2581.00,97.08
2580.00,97.09
2579.00,97.09
2578.00,97.08
2577.00,97.07
2576.00,97.06
2575.00,97.04
2574.00,97.03
2573.00,97.02
2572.00,97.02
2571.00,97.02
2570.00,97.03
2569.00,97.02
2568.00,97.00
2567.00,97.00
2566.00,97.00
2565.00,97.01
2564.00,97.02
2563.00,97.02
2562.00,97.00
2561.00,96.98
2560.00,96.96
2559.00,96.94
2558.00,96.94
2557.00,96.94
2556.00,96.94
2555.00,96.94
2554.00,96.94
2553.00,96.94
2552.00,96.94
2551.00,96.94
2550.00,96.94
2549.00,96.93
2548.00,96.91
2547.00,96.90
2546.00,96.90
2545.00,96.92
2544.00,96.95
2543.00,96.97
2542.00,96.96
2541.00,96.94
2540.00,96.91
2539.00,96.88
2538.00,96.85
2537.00,96.84
2536.00,96.84
2535.00,96.86
2534.00,96.89
2533.00,96.91
2532.00,96.92
2531.00,96.91
2530.00,96.89
2529.00,96.87
2528.00,96.86
2527.00,96.86
2526.00,96.86
2525.00,96.87
2524.00,96.89
2523.00,96.90
2522.00,96.91
2521.00,96.92
2520.00,96.92
2519.00,96.91
2518.00,96.90
2517.00,96.89
2516.00,96.88
2515.00,96.87
2514.00,96.86
2513.00,96.87
2512.00,96.87
2511.00,96.86
2510.00,96.86
2509.00,96.86
2508.00,96.88
2507.00,96.89
2506.00,96.91
2505.00,96.92
2504.00,96.92
2503.00,96.92
2502.00,96.91
2501.00,96.90
2500.00,96.89
2499.00,96.88
2498.00,96.86
2497.00,96.86
2496.00,96.87
2495.00,96.89
2494.00,96.91
2493.00,96.92
2492.00,96.91
2491.00,96.88
2490.00,96.85
2489.00,96.83
2488.00,96.83
2487.00,96.85
2486.00,96.88
2485.00,96.90
2484.00,96.92
2483.00,96.92
2482.00,96.92
2481.00,96.93
2480.00,96.94
2479.00,96.96
2478.00,96.97
2477.00,96.98
2476.00,96.99
2475.00,96.98
2474.00,96.98
2473.00,96.98
2472.00,96.98
2471.00,96.99
2470.00,96.99
2469.00,96.98
2468.00,96.97
2467.00,96.96
2466.00,96.95
2465.00,96.94
2464.00,96.93
2463.00,96.94
2462.00,96.95
2461.00,96.96
2460.00,96.96
2459.00,96.96
2458.00,96.94
2457.00,96.91
2456.00,96.89
2455.00,96.88
2454.00,96.87
2453.00,96.88
2452.00,96.90
2451.00,96.91
2450.00,96.91
2449.00,96.90
2448.00,96.88
2447.00,96.87
2446.00,96.87
2445.00,96.88
2444.00,96.90
2443.00,96.92
2442.00,96.95
2441.00,96.97
2440.00,96.98
2439.00,96.97
2438.00,96.94
2437.00,96.92
2436.00,96.93
2435.00,96.95
2434.00,96.98
2433.00,96.98
2432.00,96.97
2431.00,96.97
2430.00,96.97
2429.00,96.97
2428.00,96.96
2427.00,96.94
2426.00,96.93
2425.00,96.93
2424.00,96.94
2423.00,96.97
2422.00,97.00
2421.00,97.03
2420.00,97.04
2419.00,97.04
2418.00,97.02
2417.00,97.01
2416.00,97.01
2415.00,97.01
2414.00,97.01
2413.00,97.01
2412.00,97.01
2411.00,97.02
2410.00,97.01
2409.00,97.00
2408.00,96.98
2407.00,96.96
2406.00,96.96
2405.00,96.98
2404.00,97.02
2403.00,97.05
2402.00,97.08
2401.00,97.09
2400.00,97.09
2399.00,97.09
2398.00,97.09
2397.00,97.10
2396.00,97.13
2395.00,97.16
2394.00,97.18
2393.00,97.18
2392.00,97.17
2391.00,97.16
2390.00,97.17
2389.00,97.18
2388.00,97.20
2387.00,97.23
2386.00,97.24
2385.00,97.25
2384.00,97.26
2383.00,97.28
2382.00,97.30
2381.00,97.32
2380.00,97.34
2379.00,97.35
2378.00,97.35
2377.00,97.36
2376.00,97.37
2375.00,97.39
2374.00,97.41
2373.00,97.41
2372.00,97.40
2371.00,97.38
2370.00,97.37
2369.00,97.36
2368.00,97.34
2367.00,97.34
2366.00,97.39
2365.00,97.49
2364.00,97.60
2363.00,97.66
2362.00,97.62
2361.00,97.52
2360.00,97.38
2359.00,97.28
2358.00,97.24
2357.00,97.27
2356.00,97.33
2355.00,97.41
2354.00,97.46
2353.00,97.48
2352.00,97.47
2351.00,97.48
2350.00,97.51
2349.00,97.58
2348.00,97.65
2347.00,97.68
2346.00,97.69
2345.00,97.68
2344.00,97.68
2343.00,97.65
2342.00,97.58
2341.00,97.50
2340.00,97.43
2339.00,97.38
2338.00,97.37
2337.00,97.39
2336.00,97.43
2335.00,97.47
2334.00,97.49
2333.00,97.48
2332.00,97.45
2331.00,97.40
2330.00,97.34
2329.00,97.29
2328.00,97.25
2327.00,97.24
2326.00,97.24
2325.00,97.23
2324.00,97.21
2323.00,97.18
2322.00,97.15
2321.00,97.14
2320.00,97.12
2319.00,97.10
2318.00,97.10
2317.00,97.11
2316.00,97.12
2315.00,97.13
2314.00,97.11
2313.00,97.07
2312.00,97.04
2311.00,97.01
2310.00,96.98
2309.00,96.96
2308.00,96.96
2307.00,96.96
2306.00,96.96
2305.00,96.95
2304.00,96.95
2303.00,96.95
2302.00,96.95
2301.00,96.95
2300.00,96.93
2299.00,96.89
2298.00,96.84
2297.00,96.80
2296.00,96.77
2295.00,96.76
2294.00,96.75
2293.00,96.74
2292.00,96.72
2291.00,96.68
2290.00,96.63
2289.00,96.59
2288.00,96.56
2287.00,96.53
2286.00,96.51
2285.00,96.50
2284.00,96.50
2283.00,96.50
2282.00,96.48
2281.00,96.45
2280.00,96.42
2279.00,96.41
2278.00,96.40
2277.00,96.39
2276.00,96.37
2275.00,96.34
2274.00,96.31
2273.00,96.29
2272.00,96.27
2271.00,96.24
2270.00,96.20
2269.00,96.15
2268.00,96.12
2267.00,96.11
2266.00,96.10
2265.00,96.08
2264.00,96.03
2263.00,95.97
2262.00,95.91
2261.00,95.86
2260.00,95.82
2259.00,95.76
2258.00,95.66
2257.00,95.52
2256.00,95.35
2255.00,95.15
2254.00,94.94
2253.00,94.70
2252.00,94.43
2251.00,94.09
2250.00,93.69
2249.00,93.28
2248.00,92.89
2247.00,92.53
2246.00,92.21
2245.00,91.92
2244.00,91.69
2243.00,91.55
2242.00,91.51
2241.00,91.57
2240.00,91.76
2239.00,92.04
2238.00,92.41
2237.00,92.81
2236.00,93.23
2235.00,93.63
2234.00,94.00
2233.00,94.31
2232.00,94.55
2231.00,94.72
2230.00,94.86
2229.00,94.98
2228.00,95.08
2227.00,95.13
2226.00,95.11
2225.00,95.05
2224.00,95.01
2223.00,95.02
2222.00,95.07
2221.00,95.15
2220.00,95.22
2219.00,95.27
2218.00,95.29
2217.00,95.28
2216.00,95.23
2215.00,95.13
2214.00,95.03
2213.00,94.95
2212.00,94.93
2211.00,94.95
2210.00,95.01
2209.00,95.06
2208.00,95.10
2207.00,95.10
2206.00,95.07
2205.00,95.04
2204.00,95.02
2203.00,95.00
2202.00,94.99
2201.00,94.98
2200.00,94.99
2199.00,95.02
2198.00,95.05
2197.00,95.05
2196.00,95.03
2195.00,94.97
2194.00,94.91
2193.00,94.85
2192.00,94.81
2191.00,94.79
2190.00,94.77
2189.00,94.75
2188.00,94.73
2187.00,94.70
2186.00,94.67
2185.00,94.66
2184.00,94.67
2183.00,94.68
2182.00,94.68
2181.00,94.66
2180.00,94.64
2179.00,94.63
2178.00,94.64
2177.00,94.64
2176.00,94.64
2175.00,94.63
2174.00,94.62
2173.00,94.61
2172.00,94.61
2171.00,94.59
2170.00,94.54
2169.00,94.49
2168.00,94.44
2167.00,94.39
2166.00,94.32
2165.00,94.24
2164.00,94.18
2163.00,94.12
2162.00,94.06
2161.00,93.99
2160.00,93.99
2159.00,94.11
2158.00,94.32
2157.00,94.53
2156.00,94.66
2155.00,94.71
2154.00,94.71
2153.00,94.70
2152.00,94.69
2151.00,94.72
2150.00,94.78
2149.00,94.86
2148.00,94.94
2147.00,95.00
2146.00,95.06
2145.00,95.14
2144.00,95.25
2143.00,95.34
2142.00,95.38
2141.00,95.39
2140.00,95.39
2139.00,95.41
2138.00,95.44
2137.00,95.49
2136.00,95.56
2135.00,95.66
2134.00,95.79
2133.00,95.89
2132.00,95.95
2131.00,95.97
2130.00,95.96
2129.00,95.95
2128.00,95.93
2127.00,95.93
2126.00,95.94
2125.00,95.96
2124.00,95.97
2123.00,95.99
2122.00,96.00
2121.00,96.03
2120.00,96.05
2119.00,96.06
2118.00,96.04
2117.00,96.01
2116.00,95.97
2115.00,95.93
2114.00,95.90
2113.00,95.89
2112.00,95.91
2111.00,95.95
2110.00,95.98
2109.00,95.99
2108.00,95.97
2107.00,95.94
2106.00,95.90
2105.00,95.88
2104.00,95.88
2103.00,95.91
2102.00,95.96
2101.00,95.99
2100.00,96.00
2099.00,95.97
2098.00,95.92
2097.00,95.88
2096.00,95.89
2095.00,95.94
2094.00,96.00
2093.00,96.05
2092.00,96.08
2091.00,96.08
2090.00,96.05
2089.00,96.02
2088.00,95.99
2087.00,95.97
2086.00,95.95
2085.00,95.94
2084.00,95.93
2083.00,95.91
2082.00,95.88
2081.00,95.83
2080.00,95.79
2079.00,95.76
2078.00,95.74
2077.00,95.71
2076.00,95.70
2075.00,95.69
2074.00,95.70
2073.00,95.71
2072.00,95.73
2071.00,95.75
2070.00,95.75
2069.00,95.73
2068.00,95.71
2067.00,95.69
2066.00,95.69
2065.00,95.69
2064.00,95.66
2063.00,95.63
2062.00,95.62
2061.00,95.63
2060.00,95.64
2059.00,95.62
2058.00,95.56
2057.00,95.50
2056.00,95.48
2055.00,95.48
2054.00,95.46
2053.00,95.39
2052.00,95.29
2051.00,95.18
2050.00,95.10
2049.00,95.03
2048.00,94.99
2047.00,94.97
2046.00,94.94
2045.00,94.88
2044.00,94.81
2043.00,94.75
2042.00,94.73
2041.00,94.75
2040.00,94.78
2039.00,94.79
2038.00,94.76
2037.00,94.70
2036.00,94.63
2035.00,94.57
2034.00,94.57
2033.00,94.60
2032.00,94.62
2031.00,94.60
2030.00,94.55
2029.00,94.50
2028.00,94.50
2027.00,94.52
2026.00,94.54
2025.00,94.53
2024.00,94.51
2023.00,94.51
2022.00,94.53
2021.00,94.55
2020.00,94.57
2019.00,94.60
2018.00,94.62
2017.00,94.65
2016.00,94.67
2015.00,94.71
2014.00,94.75
2013.00,94.79
2012.00,94.81
2011.00,94.80
2010.00,94.80
2009.00,94.80
2008.00,94.81
2007.00,94.82
2006.00,94.86
2005.00,94.93
2004.00,95.03
2003.00,95.13
2002.00,95.18
2001.00,95.18
2000.00,95.16
1999.00,95.14
1998.00,95.12
1997.00,95.09
1996.00,95.04
1995.00,94.99
1994.00,94.97
1993.00,94.99
1992.00,95.05
1991.00,95.13
1990.00,95.20
1989.00,95.22
1988.00,95.16
1987.00,95.05
1986.00,94.92
1985.00,94.81
1984.00,94.74
1983.00,94.69
1982.00,94.66
1981.00,94.66
1980.00,94.68
1979.00,94.71
1978.00,94.73
1977.00,94.74
1976.00,94.74
1975.00,94.75
1974.00,94.79
1973.00,94.85
1972.00,94.91
1971.00,94.95
1970.00,94.99
1969.00,95.05
1968.00,95.14
1967.00,95.19
1966.00,95.20
1965.00,95.19
1964.00,95.17
1963.00,95.18
1962.00,95.19
1961.00,95.21
1960.00,95.25
1959.00,95.31
1958.00,95.39
1957.00,95.48
1956.00,95.55
1955.00,95.58
1954.00,95.61
1953.00,95.65
1952.00,95.70
1951.00,95.72
1950.00,95.72
1949.00,95.70
1948.00,95.69
1947.00,95.69
1946.00,95.72
1945.00,95.77
1944.00,95.81
1943.00,95.83
1942.00,95.83
1941.00,95.84
1940.00,95.88
1939.00,95.92
1938.00,95.94
1937.00,95.96
1936.00,95.99
1935.00,96.02
1934.00,96.04
1933.00,96.04
1932.00,96.06
1931.00,96.09
1930.00,96.14
1929.00,96.19
1928.00,96.25
1927.00,96.27
1926.00,96.28
1925.00,96.28
1924.00,96.28
1923.00,96.29
1922.00,96.29
1921.00,96.29
1920.00,96.30
1919.00,96.32
1918.00,96.33
1917.00,96.32
1916.00,96.31
1915.00,96.31
1914.00,96.32
1913.00,96.34
1912.00,96.37
1911.00,96.40
1910.00,96.42
1909.00,96.42
1908.00,96.41
1907.00,96.41
1906.00,96.42
1905.00,96.44
1904.00,96.45
1903.00,96.48
1902.00,96.50
1901.00,96.52
1900.00,96.52
1899.00,96.53
1898.00,96.55
1897.00,96.58
1896.00,96.60
1895.00,96.61
1894.00,96.60
1893.00,96.58
1892.00,96.57
1891.00,96.57
1890.00,96.61
1889.00,96.65
1888.00,96.67
1887.00,96.68
1886.00,96.67
1885.00,96.65
1884.00,96.65
1883.00,96.65
1882.00,96.65
1881.00,96.65
1880.00,96.66
1879.00,96.68
1878.00,96.72
1877.00,96.76
1876.00,96.79
1875.00,96.80
1874.00,96.79
1873.00,96.77
1872.00,96.73
1871.00,96.71
1870.00,96.69
1869.00,96.70
1868.00,96.73
1867.00,96.77
1866.00,96.78
1865.00,96.77
1864.00,96.76
1863.00,96.77
1862.00,96.79
1861.00,96.83
1860.00,96.85
1859.00,96.87
1858.00,96.87
1857.00,96.86
1856.00,96.85
1855.00,96.84
1854.00,96.83
1853.00,96.83
1852.00,96.84
1851.00,96.86
1850.00,96.88
1849.00,96.91
1848.00,96.93
1847.00,96.94
1846.00,96.95
1845.00,96.95
1844.00,96.95
1843.00,96.95
1842.00,96.94
1841.00,96.93
1840.00,96.93
1839.00,96.94
1838.00,96.96
1837.00,97.00
1836.00,97.03
1835.00,97.05
1834.00,97.05
1833.00,97.05
1832.00,97.06
1831.00,97.07
1830.00,97.07
1829.00,97.06
1828.00,97.04
1827.00,97.03
1826.00,97.02
1825.00,97.02
1824.00,97.01
1823.00,97.03
1822.00,97.05
1821.00,97.07
1820.00,97.10
1819.00,97.11
1818.00,97.12
1817.00,97.13
1816.00,97.14
1815.00,97.15
1814.00,97.16
1813.00,97.15
1812.00,97.14
1811.00,97.12
1810.00,97.11
1809.00,97.12
1808.00,97.13
1807.00,97.15
1806.00,97.17
1805.00,97.19
1804.00,97.20
1803.00,97.21
1802.00,97.21
1801.00,97.21
1800.00,97.21
1799.00,97.21
1798.00,97.21
1797.00,97.21
1796.00,97.22
1795.00,97.22
1794.00,97.23
1793.00,97.23
1792.00,97.23
1791.00,97.24
1790.00,97.25
1789.00,97.25
1788.00,97.24
1787.00,97.24
1786.00,97.25
1785.00,97.26
1784.00,97.26
1783.00,97.25
1782.00,97.25
1781.00,97.25
1780.00,97.24
1779.00,97.24
1778.00,97.25
1777.00,97.25
1776.00,97.26
1775.00,97.26
1774.00,97.26
1773.00,97.26
1772.00,97.25
1771.00,97.24
1770.00,97.23
1769.00,97.23
1768.00,97.23
1767.00,97.23
1766.00,97.24
1765.00,97.25
1764.00,97.27
1763.00,97.27
1762.00,97.26
1761.00,97.24
1760.00,97.22
1759.00,97.22
1758.00,97.23
1757.00,97.23
1756.00,97.22
1755.00,97.20
1754.00,97.18
1753.00,97.17
1752.00,97.15
1751.00,97.14
1750.00,97.12
1749.00,97.11
1748.00,97.09
1747.00,97.06
1746.00,97.03
1745.00,97.00
1744.00,96.96
1743.00,96.93
1742.00,96.90
1741.00,96.87
1740.00,96.84
1739.00,96.81
1738.00,96.79
1737.00,96.77
1736.00,96.76
1735.00,96.75
1734.00,96.74
1733.00,96.74
1732.00,96.74
1731.00,96.74
1730.00,96.74
1729.00,96.75
1728.00,96.76
1727.00,96.77
1726.00,96.77
1725.00,96.78
1724.00,96.79
1723.00,96.81
1722.00,96.83
1721.00,96.87
1720.00,96.91
1719.00,96.95
1718.00,96.98
1717.00,96.99
1716.00,96.98
1715.00,96.98
1714.00,96.97
1713.00,96.96
1712.00,96.94
1711.00,96.92
1710.00,96.90
1709.00,96.86
1708.00,96.83
1707.00,96.78
1706.00,96.69
1705.00,96.57
1704.00,96.46
1703.00,96.37
1702.00,96.30
1701.00,96.25
1700.00,96.23
1699.00,96.27
1698.00,96.37
1697.00,96.51
1696.00,96.65
1695.00,96.75
1694.00,96.79
1693.00,96.83
1692.00,96.87
1691.00,96.91
1690.00,96.93
1689.00,96.94
1688.00,96.96
1687.00,96.98
1686.00,97.01
1685.00,97.05
1684.00,97.06
1683.00,97.05
1682.00,97.03
1681.00,97.01
1680.00,97.00
1679.00,96.98
1678.00,96.97
1677.00,96.96
1676.00,96.93
1675.00,96.89
1674.00,96.86
1673.00,96.85
1672.00,96.83
1671.00,96.78
1670.00,96.70
1669.00,96.58
1668.00,96.47
1667.00,96.37
1666.00,96.26
1665.00,96.15
1664.00,96.02
1663.00,95.89
1662.00,95.79
1661.00,95.73
1660.00,95.70
1659.00,95.68
1658.00,95.68
1657.00,95.70
1656.00,95.75
1655.00,95.83
1654.00,95.98
1653.00,96.15
1652.00,96.27
1651.00,96.34
1650.00,96.40
1649.00,96.47
1648.00,96.54
1647.00,96.62
1646.00,96.68
1645.00,96.71
1644.00,96.72
1643.00,96.73
1642.00,96.74
1641.00,96.75
1640.00,96.76
1639.00,96.75
1638.00,96.75
1637.00,96.75
1636.00,96.76
1635.00,96.77
1634.00,96.78
1633.00,96.78
1632.00,96.77
1631.00,96.75
1630.00,96.73
1629.00,96.72
1628.00,96.73
1627.00,96.74
1626.00,96.75
1625.00,96.76
1624.00,96.76
1623.00,96.77
1622.00,96.77
1621.00,96.77
1620.00,96.77
1619.00,96.75
1618.00,96.74
1617.00,96.73
1616.00,96.73
1615.00,96.74
1614.00,96.76
1613.00,96.80
1612.00,96.85
1611.00,96.90
1610.00,96.92
1609.00,96.93
1608.00,96.93
1607.00,96.93
1606.00,96.94
1605.00,96.95
1604.00,96.95
1603.00,96.95
1602.00,96.94
1601.00,96.91
1600.00,96.84
1599.00,96.73
1598.00,96.61
1597.00,96.50
1596.00,96.43
1595.00,96.41
1594.00,96.46
1593.00,96.56
1592.00,96.67
1591.00,96.79
1590.00,96.89
1589.00,96.96
1588.00,97.02
1587.00,97.05
1586.00,97.07
1585.00,97.08
1584.00,97.06
1583.00,97.04
1582.00,97.01
1581.00,96.99
1580.00,96.98
1579.00,97.00
1578.00,97.03
1577.00,97.06
1576.00,97.09
1575.00,97.10
1574.00,97.11
1573.00,97.12
1572.00,97.13
1571.00,97.14
1570.00,97.15
1569.00,97.13
1568.00,97.09
1567.00,97.06
1566.00,97.05
1565.00,97.05
1564.00,97.06
1563.00,97.08
1562.00,97.10
1561.00,97.10
1560.00,97.09
1559.00,97.09
1558.00,97.09
1557.00,97.11
1556.00,97.14
1555.00,97.17
1554.00,97.19
1553.00,97.20
1552.00,97.20
1551.00,97.21
1550.00,97.22
1549.00,97.22
1548.00,97.23
1547.00,97.23
1546.00,97.23
1545.00,97.23
1544.00,97.24
1543.00,97.26
1542.00,97.28
1541.00,97.30
1540.00,97.32
1539.00,97.31
1538.00,97.30
1537.00,97.29
1536.00,97.29
1535.00,97.30
1534.00,97.32
1533.00,97.33
1532.00,97.34
1531.00,97.34
1530.00,97.33
1529.00,97.32
1528.00,97.32
1527.00,97.33
1526.00,97.34
1525.00,97.34
1524.00,97.34
1523.00,97.34
1522.00,97.35
1521.00,97.35
1520.00,97.35
1519.00,97.36
1518.00,97.36
1517.00,97.36
1516.00,97.36
1515.00,97.36
1514.00,97.35
1513.00,97.34
1512.00,97.32
1511.00,97.31
1510.00,97.30
1509.00,97.30
1508.00,97.31
1507.00,97.31
1506.00,97.31
1505.00,97.32
1504.00,97.32
1503.00,97.33
1502.00,97.34
1501.00,97.34
1500.00,97.34
1499.00,97.34
1498.00,97.36
1497.00,97.36
1496.00,97.36
1495.00,97.34
1494.00,97.32
1493.00,97.31
1492.00,97.30
1491.00,97.29
1490.00,97.29
1489.00,97.28
1488.00,97.27
1487.00,97.26
1486.00,97.26
1485.00,97.25
1484.00,97.25
1483.00,97.26
1482.00,97.27
1481.00,97.27
1480.00,97.27
1479.00,97.28
1478.00,97.28
1477.00,97.27
1476.00,97.24
1475.00,97.22
1474.00,97.19
1473.00,97.14
1472.00,97.09
1471.00,97.03
1470.00,96.99
1469.00,96.93
1468.00,96.86
1467.00,96.75
1466.00,96.57
1465.00,96.30
1464.00,95.97
1463.00,95.64
1462.00,95.31
1461.00,94.96
1460.00,94.57
1459.00,94.12
1458.00,93.59
1457.00,93.01
1456.00,92.56
1455.00,92.30
1454.00,92.15
1453.00,92.05
1452.00,91.97
1451.00,91.95
1450.00,91.98
1449.00,92.08
1448.00,92.25
1447.00,92.47
1446.00,92.71
1445.00,92.95
1444.00,93.21
1443.00,93.46
1442.00,93.70
1441.00,93.92
1440.00,94.13
1439.00,94.33
1438.00,94.55
1437.00,94.81
1436.00,95.07
1435.00,95.28
1434.00,95.46
1433.00,95.61
1432.00,95.77
1431.00,95.91
1430.00,96.03
1429.00,96.15
1428.00,96.25
1427.00,96.34
1426.00,96.42
1425.00,96.50
1424.00,96.57
1423.00,96.63
1422.00,96.67
1421.00,96.72
1420.00,96.77
1419.00,96.81
1418.00,96.83
1417.00,96.85
1416.00,96.87
1415.00,96.89
1414.00,96.90
1413.00,96.90
1412.00,96.90
1411.00,96.88
1410.00,96.86
1409.00,96.83
1408.00,96.78
1407.00,96.74
1406.00,96.72
1405.00,96.72
1404.00,96.75
1403.00,96.80
1402.00,96.83
1401.00,96.87
1400.00,96.91
1399.00,96.93
1398.00,96.94
1397.00,96.93
1396.00,96.91
1395.00,96.88
1394.00,96.86
1393.00,96.85
1392.00,96.84
1391.00,96.83
1390.00,96.80
1389.00,96.77
1388.00,96.72
1387.00,96.67
1386.00,96.62
1385.00,96.58
1384.00,96.53
1383.00,96.48
1382.00,96.43
1381.00,96.38
1380.00,96.34
1379.00,96.29
1378.00,96.24
1377.00,96.19
1376.00,96.13
1375.00,96.06
1374.00,96.00
1373.00,95.94
1372.00,95.87
1371.00,95.78
1370.00,95.66
1369.00,95.51
1368.00,95.33
1367.00,95.14
1366.00,94.96
1365.00,94.81
1364.00,94.70
1363.00,94.64
1362.00,94.63
1361.00,94.65
1360.00,94.71
1359.00,94.77
1358.00,94.82
1357.00,94.87
1356.00,94.91
1355.00,94.95
1354.00,94.98
1353.00,95.01
1352.00,95.03
1351.00,95.07
1350.00,95.11
1349.00,95.16
1348.00,95.23
1347.00,95.31
1346.00,95.40
1345.00,95.48
1344.00,95.56
1343.00,95.63
1342.00,95.69
1341.00,95.76
1340.00,95.82
1339.00,95.88
1338.00,95.93
1337.00,95.98
1336.00,96.03
1335.00,96.07
1334.00,96.12
1333.00,96.16
1332.00,96.19
1331.00,96.21
1330.00,96.23
1329.00,96.25
1328.00,96.25
1327.00,96.25
1326.00,96.25
1325.00,96.25
1324.00,96.27
1323.00,96.28
1322.00,96.27
1321.00,96.26
1320.00,96.26
1319.00,96.26
1318.00,96.27
1317.00,96.28
1316.00,96.29
1315.00,96.30
1314.00,96.30
1313.00,96.29
1312.00,96.28
1311.00,96.27
1310.00,96.27
1309.00,96.27
1308.00,96.27
1307.00,96.27
1306.00,96.28
1305.00,96.29
1304.00,96.30
1303.00,96.31
1302.00,96.32
1301.00,96.33
1300.00,96.32
1299.00,96.31
1298.00,96.30
1297.00,96.29
1296.00,96.28
1295.00,96.29
1294.00,96.32
1293.00,96.36
1292.00,96.40
1291.00,96.43
1290.00,96.44
1289.00,96.44
1288.00,96.45
1287.00,96.45
1286.00,96.45
1285.00,96.45
1284.00,96.45
1283.00,96.44
1282.00,96.43
1281.00,96.42
1280.00,96.41
1279.00,96.40
1278.00,96.38
1277.00,96.36
1276.00,96.34
1275.00,96.32
1274.00,96.30
1273.00,96.28
1272.00,96.25
1271.00,96.22
1270.00,96.19
1269.00,96.14
1268.00,96.09
1267.00,96.02
1266.00,95.94
1265.00,95.86
1264.00,95.77
1263.00,95.69
1262.00,95.61
1261.00,95.53
1260.00,95.45
1259.00,95.38
1258.00,95.33
1257.00,95.30
1256.00,95.29
1255.00,95.29
1254.00,95.29
1253.00,95.27
1252.00,95.25
1251.00,95.23
1250.00,95.22
1249.00,95.24
1248.00,95.28
1247.00,95.34
1246.00,95.41
1245.00,95.49
1244.00,95.57
1243.00,95.64
1242.00,95.69
1241.00,95.72
1240.00,95.73
1239.00,95.73
1238.00,95.70
1237.00,95.64
1236.00,95.58
1235.00,95.52
1234.00,95.49
1233.00,95.49
1232.00,95.53
1231.00,95.58
1230.00,95.65
1229.00,95.71
1228.00,95.77
1227.00,95.82
1226.00,95.86
1225.00,95.89
1224.00,95.91
1223.00,95.92
1222.00,95.93
1221.00,95.94
1220.00,95.96
1219.00,95.98
1218.00,96.00
1217.00,96.02
1216.00,96.04
1215.00,96.07
1214.00,96.10
1213.00,96.12
1212.00,96.14
1211.00,96.15
1210.00,96.16
1209.00,96.16
1208.00,96.16
1207.00,96.16
1206.00,96.17
1205.00,96.16
1204.00,96.14
1203.00,96.12
1202.00,96.10
1201.00,96.08
1200.00,96.05
1199.00,96.03
1198.00,96.03
1197.00,96.06
1196.00,96.11
1195.00,96.17
1194.00,96.20
1193.00,96.22
1192.00,96.22
1191.00,96.23
1190.00,96.25
1189.00,96.25
1188.00,96.24
1187.00,96.21
1186.00,96.16
1185.00,96.10
1184.00,96.05
1183.00,96.03
1182.00,96.04
1181.00,96.08
1180.00,96.13
1179.00,96.17
1178.00,96.20
1177.00,96.23
1176.00,96.26
1175.00,96.29
1174.00,96.33
1173.00,96.35
1172.00,96.37
1171.00,96.39
1170.00,96.44
1169.00,96.50
1168.00,96.55
1167.00,96.59
1166.00,96.60
1165.00,96.62
1164.00,96.65
1163.00,96.68
1162.00,96.72
1161.00,96.75
1160.00,96.77
1159.00,96.78
1158.00,96.80
1157.00,96.83
1156.00,96.85
1155.00,96.86
1154.00,96.87
1153.00,96.88
1152.00,96.88
1151.00,96.86
1150.00,96.83
1149.00,96.82
1148.00,96.85
1147.00,96.89
1146.00,96.92
1145.00,96.92
1144.00,96.90
1143.00,96.86
1142.00,96.82
1141.00,96.77
1140.00,96.73
1139.00,96.71
1138.00,96.71
1137.00,96.70
1136.00,96.70
1135.00,96.69
1134.00,96.68
1133.00,96.67
1132.00,96.67
1131.00,96.68
1130.00,96.69
1129.00,96.68
1128.00,96.65
1127.00,96.60
1126.00,96.54
1125.00,96.51
1124.00,96.51
1123.00,96.51
1122.00,96.49
1121.00,96.45
1120.00,96.39
1119.00,96.33
1118.00,96.28
1117.00,96.26
1116.00,96.25
1115.00,96.22
1114.00,96.18
1113.00,96.12
1112.00,96.06
1111.00,96.03
1110.00,96.00
1109.00,95.97
1108.00,95.95
1107.00,95.92
1106.00,95.89
1105.00,95.88
1104.00,95.87
1103.00,95.85
1102.00,95.82
1101.00,95.78
1100.00,95.74
1099.00,95.73
1098.00,95.74
1097.00,95.76
1096.00,95.76
1095.00,95.72
1094.00,95.67
1093.00,95.61
1092.00,95.57
1091.00,95.56
1090.00,95.54
1089.00,95.52
1088.00,95.48
1087.00,95.42
1086.00,95.35
1085.00,95.27
1084.00,95.18
1083.00,95.11
1082.00,95.07
1081.00,95.06
1080.00,95.05
1079.00,95.01
1078.00,94.94
1077.00,94.86
1076.00,94.79
1075.00,94.73
1074.00,94.68
1073.00,94.64
1072.00,94.59
1071.00,94.53
1070.00,94.45
1069.00,94.39
1068.00,94.36
1067.00,94.37
1066.00,94.41
1065.00,94.47
1064.00,94.57
1063.00,94.70
1062.00,94.84
1061.00,94.96
1060.00,95.06
1059.00,95.13
1058.00,95.19
1057.00,95.24
1056.00,95.30
1055.00,95.37
1054.00,95.42
1053.00,95.46
1052.00,95.50
1051.00,95.56
1050.00,95.63
1049.00,95.70
1048.00,95.75
1047.00,95.79
1046.00,95.81
1045.00,95.82
1044.00,95.82
1043.00,95.82
1042.00,95.82
1041.00,95.84
1040.00,95.87
1039.00,95.90
1038.00,95.94
1037.00,95.99
1036.00,96.03
1035.00,96.08
1034.00,96.13
1033.00,96.18
1032.00,96.23
1031.00,96.29
1030.00,96.34
1029.00,96.37
1028.00,96.39
1027.00,96.42
1026.00,96.45
1025.00,96.51
1024.00,96.57
1023.00,96.60
1022.00,96.61
1021.00,96.60
1020.00,96.60
1019.00,96.62
1018.00,96.66
1017.00,96.70
1016.00,96.75
1015.00,96.78
1014.00,96.80
1013.00,96.82
1012.00,96.83
1011.00,96.86
1010.00,96.88
1009.00,96.91
1008.00,96.91
1007.00,96.90
1006.00,96.89
1005.00,96.89
1004.00,96.90
1003.00,96.93
1002.00,96.98
1001.00,97.02
1000.00,97.05
999.00,97.05
998.00,97.04
997.00,97.03
996.00,97.04
995.00,97.05
994.00,97.06
993.00,97.06
992.00,97.06
991.00,97.07
990.00,97.09
989.00,97.10
988.00,97.11
987.00,97.13
986.00,97.13
985.00,97.13
984.00,97.13
983.00,97.13
982.00,97.12
981.00,97.11
980.00,97.09
979.00,97.06
978.00,97.05
977.00,97.05
976.00,97.05
975.00,97.05
974.00,97.05
973.00,97.05
972.00,97.05
971.00,97.04
970.00,97.01
969.00,96.97
968.00,96.93
967.00,96.91
966.00,96.93
965.00,96.96
964.00,97.01
963.00,97.05
962.00,97.06
961.00,97.06
960.00,97.06
959.00,97.08
958.00,97.09
957.00,97.09
956.00,97.07
955.00,97.05
954.00,97.03
953.00,97.01
952.00,97.01
951.00,97.03
950.00,97.07
949.00,97.11
948.00,97.13
947.00,97.13
946.00,97.12
945.00,97.12
944.00,97.12
943.00,97.13
942.00,97.15
941.00,97.16
940.00,97.18
939.00,97.19
938.00,97.20
937.00,97.19
936.00,97.19
935.00,97.18
934.00,97.19
933.00,97.20
932.00,97.23
931.00,97.27
930.00,97.30
929.00,97.31
928.00,97.31
927.00,97.31
926.00,97.32
925.00,97.35
924.00,97.38
923.00,97.38
922.00,97.36
921.00,97.31
920.00,97.27
919.00,97.25
918.00,97.25
917.00,97.26
916.00,97.28
915.00,97.29
914.00,97.30
913.00,97.30
912.00,97.29
911.00,97.30
910.00,97.31
909.00,97.32
908.00,97.34
907.00,97.37
906.00,97.39
905.00,97.40
904.00,97.42
903.00,97.45
902.00,97.47
901.00,97.49
900.00,97.50
899.00,97.53
898.00,97.56
897.00,97.57
896.00,97.56
895.00,97.53
894.00,97.52
893.00,97.52
892.00,97.54
891.00,97.55
890.00,97.54
889.00,97.52
888.00,97.49
887.00,97.48
886.00,97.50
885.00,97.52
884.00,97.54
883.00,97.56
882.00,97.58
881.00,97.59
880.00,97.58
879.00,97.56
878.00,97.54
877.00,97.54
876.00,97.55
875.00,97.51
874.00,97.40
873.00,97.25
872.00,97.13
871.00,97.09
870.00,97.13
869.00,97.19
868.00,97.26
867.00,97.33
866.00,97.41
865.00,97.46
864.00,97.50
863.00,97.52
862.00,97.53
861.00,97.51
860.00,97.47
859.00,97.43
858.00,97.42
857.00,97.44
856.00,97.47
855.00,97.47
854.00,97.45
853.00,97.44
852.00,97.46
851.00,97.49
850.00,97.52
849.00,97.54
848.00,97.56
847.00,97.58
846.00,97.59
845.00,97.61
844.00,97.64
843.00,97.67
842.00,97.69
841.00,97.67
840.00,97.64
839.00,97.62
838.00,97.60
837.00,97.60
836.00,97.60
835.00,97.61
834.00,97.62
833.00,97.63
832.00,97.63
831.00,97.60
830.00,97.56
829.00,97.52
828.00,97.49
827.00,97.45
826.00,97.41
825.00,97.34
824.00,97.29
823.00,97.27
822.00,97.30
821.00,97.34
820.00,97.40
819.00,97.45
818.00,97.49
817.00,97.51
816.00,97.46
815.00,97.33
814.00,97.15
813.00,97.02
812.00,97.00
811.00,97.09
810.00,97.23
809.00,97.33
808.00,97.39
807.00,97.41
806.00,97.41
805.00,97.42
804.00,97.42
803.00,97.37
802.00,97.24
801.00,97.05
800.00,96.89
799.00,96.84
798.00,96.90
797.00,97.03
796.00,97.17
795.00,97.28
794.00,97.34
793.00,97.36
792.00,97.37
791.00,97.39
790.00,97.40
789.00,97.39
788.00,97.35
787.00,97.31
786.00,97.30
785.00,97.32
784.00,97.36
783.00,97.40
782.00,97.40
781.00,97.37
780.00,97.31
779.00,97.26
778.00,97.23
777.00,97.22
776.00,97.24
775.00,97.28
774.00,97.33
773.00,97.41
772.00,97.48
771.00,97.54
770.00,97.56
769.00,97.56
768.00,97.55
767.00,97.54
766.00,97.53
765.00,97.52
764.00,97.52
763.00,97.54
762.00,97.57
761.00,97.60
760.00,97.61
759.00,97.61
758.00,97.61
757.00,97.62
756.00,97.63
755.00,97.68
754.00,97.76
753.00,97.83
752.00,97.85
751.00,97.77
750.00,97.58
749.00,97.36
748.00,97.21
747.00,97.19
746.00,97.31
745.00,97.50
744.00,97.67
743.00,97.77
742.00,97.79
741.00,97.77
740.00,97.77
739.00,97.83
738.00,97.94
737.00,98.04
736.00,98.09
735.00,98.10
734.00,98.09
733.00,98.08
732.00,98.09
731.00,98.12
730.00,98.16
729.00,98.20
728.00,98.22
727.00,98.21
726.00,98.15
725.00,98.07
724.00,98.02
723.00,98.03
722.00,98.07
721.00,98.10
720.00,98.10
719.00,98.11
718.00,98.13
717.00,98.17
716.00,98.21
715.00,98.25
714.00,98.30
713.00,98.35
712.00,98.38
711.00,98.38
710.00,98.38
709.00,98.40
708.00,98.43
707.00,98.45
706.00,98.44
705.00,98.41
704.00,98.40
703.00,98.42
702.00,98.47
701.00,98.52
700.00,98.54
699.00,98.52
698.00,98.48
697.00,98.45
696.00,98.45
695.00,98.50
694.00,98.56
693.00,98.60
692.00,98.57
691.00,98.45
690.00,98.26
689.00,98.06
688.00,97.99
687.00,98.06
686.00,98.18
685.00,98.22
684.00,98.11
683.00,97.93
682.00,97.81
681.00,97.80
680.00,97.90
679.00,98.06
678.00,98.22
677.00,98.31
676.00,98.37
675.00,98.39
674.00,98.40
673.00,98.39
672.00,98.35
671.00,98.29
670.00,98.23
669.00,98.17
668.00,98.09
667.00,98.09
666.00,98.24
665.00,98.41
664.00,98.49
663.00,98.48
662.00,98.39
661.00,98.28
660.00,98.17
659.00,98.12
658.00,98.15
657.00,98.22
656.00,98.31
655.00,98.40
654.00,98.48
653.00,98.54
652.00,98.58
651.00,98.62
650.00,98.66
649.00,98.71
648.00,98.76
647.00,98.77
646.00,98.70
645.00,98.54
644.00,98.36
643.00,98.28
642.00,98.29
641.00,98.34
640.00,98.36
639.00,98.39
638.00,98.43
637.00,98.45
636.00,98.41
635.00,98.41
634.00,98.51
633.00,98.72
632.00,98.88
631.00,98.92
630.00,98.82
629.00,98.62
628.00,98.37
627.00,98.13
626.00,98.03
625.00,98.08
624.00,98.22
623.00,98.37
622.00,98.54
621.00,98.72
620.00,98.92
619.00,99.10
618.00,99.26
617.00,99.39
616.00,99.41
615.00,99.22
614.00,98.85
613.00,98.46
612.00,98.20
611.00,98.10
610.00,98.09
609.00,98.12
608.00,98.26
607.00,98.52
606.00,98.79
605.00,98.91
604.00,98.91
603.00,98.95
602.00,99.09
601.00,99.16
600.00,99.07
599.00,98.89
598.00,98.79
597.00,98.75
596.00,98.58
595.00,98.23
594.00,97.84
593.00,97.59
592.00,97.53
591.00,97.58
590.00,97.58
589.00,97.47
588.00,97.40
587.00,97.68
586.00,98.38
585.00,99.17
584.00,99.65
583.00,99.77
582.00,99.70
581.00,99.53
580.00,99.12
579.00,98.46
578.00,97.71
577.00,96.92
576.00,96.10
575.00,95.56
574.00,95.79
573.00,96.70
572.00,97.62
571.00,98.07
570.00,98.11
569.00,98.10
568.00,98.13
567.00,98.04
566.00,97.78
565.00,97.46
564.00,97.23
563.00,97.16
562.00,97.20
561.00,97.08
560.00,96.65
559.00,96.12
558.00,95.91
557.00,96.01
556.00,96.09
555.00,96.00
554.00,96.01
553.00,96.37
552.00,97.06
551.00,97.77
550.00,98.33
