Created as New Dataset,8. Acrylic Bayed Dyed
cm-1,%T
4000.00,97.42
3999.00,97.40
3998.00,97.40
3997.00,97.40
3996.00,97.41
3995.00,97.41
3994.00,97.42
3993.00,97.43
3992.00,97.44
3991.00,97.45
3990.00,97.44
3989.00,97.43
3988.00,97.42
3987.00,97.41
3986.00,97.42
3985.00,97.43
3984.00,97.43
3983.00,97.43
3982.00,97.42
3981.00,97.41
3980.00,97.40
3979.00,97.38
3978.00,97.37
3977.00,97.37
3976.00,97.39
3975.00,97.41
3974.00,97.44
3973.00,97.46
3972.00,97.46
3971.00,97.46
3970.00,97.44
3969.00,97.42
3968.00,97.42
3967.00,97.43
3966.00,97.44
3965.00,97.45
3964.00,97.45
3963.00,97.44
3962.00,97.43
3961.00,97.43
3960.00,97.43
3959.00,97.42
3958.00,97.41
3957.00,97.40
3956.00,97.40
3955.00,97.41
3954.00,97.42
3953.00,97.43
3952.00,97.44
3951.00,97.45
3950.00,97.44
3949.00,97.44
3948.00,97.44
3947.00,97.45
3946.00,97.47
3945.00,97.47
3944.00,97.46
3943.00,97.44
3942.00,97.42
3941.00,97.41
3940.00,97.42
3939.00,97.44
3938.00,97.45
3937.00,97.45
3936.00,97.45
3935.00,97.46
3934.00,97.47
3933.00,97.47
3932.00,97.47
3931.00,97.46
3930.00,97.45
3929.00,97.45
3928.00,97.46
3927.00,97.46
3926.00,97.46
3925.00,97.47
3924.00,97.48
3923.00,97.49
3922.00,97.50
3921.00,97.49
3920.00,97.46
3919.00,97.42
3918.00,97.39
3917.00,97.39
3916.00,97.40
3915.00,97.41
3914.00,97.42
3913.00,97.42
3912.00,97.42
3911.00,97.43
3910.00,97.44
3909.00,97.45
3908.00,97.47
3907.00,97.49
3906.00,97.51
3905.00,97.54
3904.00,97.57
3903.00,97.59
3902.00,97.59
3901.00,97.57
3900.00,97.52
3899.00,97.47
3898.00,97.43
3897.00,97.41
3896.00,97.41
3895.00,97.42
3894.00,97.44
3893.00,97.47
3892.00,97.49
3891.00,97.51
3890.00,97.55
3889.00,97.58
3888.00,97.60
3887.00,97.58
3886.00,97.54
3885.00,97.51
3884.00,97.51
3883.00,97.52
3882.00,97.52
3881.00,97.51
3880.00,97.50
3879.00,97.51
3878.00,97.53
3877.00,97.55
3876.00,97.56
3875.00,97.55
3874.00,97.55
3873.00,97.56
3872.00,97.57
3871.00,97.57
3870.00,97.57
3869.00,97.57
3868.00,97.59
3867.00,97.59
3866.00,97.57
3865.00,97.53
3864.00,97.49
3863.00,97.48
3862.00,97.49
3861.00,97.50
3860.00,97.49
3859.00,97.50
3858.00,97.53
3857.00,97.59
3856.00,97.67
3855.00,97.74
3854.00,97.76
3853.00,97.73
3852.00,97.72
3851.00,97.71
3850.00,97.66
3849.00,97.58
3848.00,97.50
3847.00,97.47
3846.00,97.45
3845.00,97.45
3844.00,97.46
3843.00,97.48
3842.00,97.51
3841.00,97.54
3840.00,97.58
3839.00,97.60
3838.00,97.61
3837.00,97.61
3836.00,97.60
3835.00,97.59
3834.00,97.56
3833.00,97.52
3832.00,97.48
3831.00,97.44
3830.00,97.42
3829.00,97.40
3828.00,97.39
3827.00,97.39
3826.00,97.41
3825.00,97.46
3824.00,97.52
3823.00,97.57
3822.00,97.58
3821.00,97.54
3820.00,97.49
3819.00,97.47
3818.00,97.44
3817.00,97.42
3816.00,97.40
3815.00,97.40
3814.00,97.42
3813.00,97.43
3812.00,97.42
3811.00,97.40
3810.00,97.40
3809.00,97.40
3808.00,97.39
3807.00,97.38
3806.00,97.40
3805.00,97.46
3804.00,97.51
3803.00,97.52
3802.00,97.49
3801.00,97.45
3800.00,97.44
3799.00,97.45
3798.00,97.44
3797.00,97.40
3796.00,97.34
3795.00,97.31
3794.00,97.30
3793.00,97.32
3792.00,97.32
3791.00,97.32
3790.00,97.30
3789.00,97.28
3788.00,97.26
3787.00,97.25
3786.00,97.25
3785.00,97.26
3784.00,97.27
3783.00,97.29
3782.00,97.31
3781.00,97.31
3780.00,97.30
3779.00,97.27
3778.00,97.25
3777.00,97.23
3776.00,97.22
3775.00,97.21
3774.00,97.22
3773.00,97.25
3772.00,97.29
3771.00,97.32
3770.00,97.32
3769.00,97.32
3768.00,97.31
3767.00,97.30
3766.00,97.27
3765.00,97.25
3764.00,97.22
3763.00,97.21
3762.00,97.20
3761.00,97.20
3760.00,97.21
3759.00,97.23
3758.00,97.27
3757.00,97.32
3756.00,97.38
3755.00,97.42
3754.00,97.44
3753.00,97.45
3752.00,97.45
3751.00,97.45
3750.00,97.48
3749.00,97.53
3748.00,97.57
3747.00,97.58
3746.00,97.56
3745.00,97.51
3744.00,97.44
3743.00,97.41
3742.00,97.41
3741.00,97.40
3740.00,97.38
3739.00,97.38
3738.00,97.39
3737.00,97.39
3736.00,97.39
3735.00,97.39
3734.00,97.39
3733.00,97.39
3732.00,97.37
3731.00,97.35
3730.00,97.33
3729.00,97.31
3728.00,97.29
3727.00,97.26
3726.00,97.24
3725.00,97.22
3724.00,97.21
3723.00,97.21
3722.00,97.20
3721.00,97.19
3720.00,97.17
3719.00,97.15
3718.00,97.14
3717.00,97.15
3716.00,97.18
3715.00,97.24
3714.00,97.29
3713.00,97.31
3712.00,97.29
3711.00,97.25
3710.00,97.22
3709.00,97.20
3708.00,97.18
3707.00,97.16
3706.00,97.14
3705.00,97.12
3704.00,97.11
3703.00,97.09
3702.00,97.07
3701.00,97.07
3700.00,97.08
3699.00,97.08
3698.00,97.08
3697.00,97.06
3696.00,97.04
3695.00,97.03
3694.00,97.04
3693.00,97.08
3692.00,97.15
3691.00,97.21
3690.00,97.25
3689.00,97.26
3688.00,97.25
3687.00,97.25
3686.00,97.22
3685.00,97.18
3684.00,97.14
3683.00,97.12
3682.00,97.12
3681.00,97.14
3680.00,97.17
3679.00,97.21
3678.00,97.27
3677.00,97.32
3676.00,97.32
3675.00,97.30
3674.00,97.31
3673.00,97.34
3672.00,97.34
3671.00,97.30
3670.00,97.23
3669.00,97.18
3668.00,97.14
3667.00,97.11
3666.00,97.07
3665.00,97.02
3664.00,96.98
3663.00,96.94
3662.00,96.91
3661.00,96.89
3660.00,96.89
3659.00,96.91
3658.00,96.93
3657.00,96.94
3656.00,96.94
3655.00,96.96
3654.00,96.99
3653.00,97.04
3652.00,97.10
3651.00,97.15
3650.00,97.16
3649.00,97.13
3648.00,97.10
3647.00,97.07
3646.00,97.03
3645.00,96.97
3644.00,96.91
3643.00,96.87
3642.00,96.84
3641.00,96.83
3640.00,96.82
3639.00,96.83
3638.00,96.83
3637.00,96.84
3636.00,96.85
3635.00,96.87
3634.00,96.90
3633.00,96.94
3632.00,97.00
3631.00,97.06
3630.00,97.07
3629.00,97.03
3628.00,96.99
3627.00,96.98
3626.00,96.96
3625.00,96.91
3624.00,96.86
3623.00,96.82
3622.00,96.81
3621.00,96.83
3620.00,96.85
3619.00,96.88
3618.00,96.90
3617.00,96.92
3616.00,96.93
3615.00,96.91
3614.00,96.90
3613.00,96.89
3612.00,96.89
3611.00,96.89
3610.00,96.89
3609.00,96.89
3608.00,96.88
3607.00,96.87
3606.00,96.86
3605.00,96.84
3604.00,96.82
3603.00,96.82
3602.00,96.83
3601.00,96.85
3600.00,96.87
3599.00,96.87
3598.00,96.88
3597.00,96.89
3596.00,96.90
3595.00,96.92
3594.00,96.94
3593.00,96.95
3592.00,96.95
3591.00,96.95
3590.00,96.97
3589.00,96.99
3588.00,97.02
3587.00,97.03
3586.00,97.02
3585.00,96.98
3584.00,96.94
3583.00,96.90
3582.00,96.89
3581.00,96.89
3580.00,96.90
3579.00,96.91
3578.00,96.90
3577.00,96.88
3576.00,96.86
3575.00,96.85
3574.00,96.84
3573.00,96.84
3572.00,96.86
3571.00,96.90
3570.00,96.94
3569.00,96.98
3568.00,97.01
3567.00,97.01
3566.00,97.00
3565.00,96.98
3564.00,96.95
3563.00,96.93
3562.00,96.91
3561.00,96.89
3560.00,96.88
3559.00,96.87
3558.00,96.85
3557.00,96.84
3556.00,96.85
3555.00,96.87
3554.00,96.90
3553.00,96.92
3552.00,96.93
3551.00,96.93
3550.00,96.93
3549.00,96.91
3548.00,96.89
3547.00,96.87
3546.00,96.86
3545.00,96.84
3544.00,96.84
3543.00,96.84
3542.00,96.85
3541.00,96.86
3540.00,96.86
3539.00,96.85
3538.00,96.84
3537.00,96.83
3536.00,96.84
3535.00,96.85
3534.00,96.86
3533.00,96.86
3532.00,96.85
3531.00,96.83
3530.00,96.82
3529.00,96.83
3528.00,96.85
3527.00,96.88
3526.00,96.90
3525.00,96.91
3524.00,96.90
3523.00,96.89
3522.00,96.88
3521.00,96.88
3520.00,96.89
3519.00,96.90
3518.00,96.91
3517.00,96.91
3516.00,96.90
3515.00,96.88
3514.00,96.88
3513.00,96.87
3512.00,96.88
3511.00,96.89
3510.00,96.91
3509.00,96.95
3508.00,96.98
3507.00,97.01
3506.00,97.01
3505.00,97.00
3504.00,96.99
3503.00,96.97
3502.00,96.96
3501.00,96.94
3500.00,96.93
3499.00,96.93
3498.00,96.92
3497.00,96.91
3496.00,96.90
3495.00,96.89
3494.00,96.90
3493.00,96.91
3492.00,96.92
3491.00,96.90
3490.00,96.87
3489.00,96.84
3488.00,96.84
3487.00,96.86
3486.00,96.88
3485.00,96.91
3484.00,96.93
3483.00,96.93
3482.00,96.93
3481.00,96.92
3480.00,96.90
3479.00,96.89
3478.00,96.89
3477.00,96.90
3476.00,96.91
3475.00,96.92
3474.00,96.92
3473.00,96.92
3472.00,96.91
3471.00,96.91
3470.00,96.91
3469.00,96.91
3468.00,96.90
3467.00,96.91
3466.00,96.93
3465.00,96.95
3464.00,96.95
3463.00,96.94
3462.00,96.91
3461.00,96.87
3460.00,96.84
3459.00,96.83
3458.00,96.84
3457.00,96.86
3456.00,96.88
3455.00,96.89
3454.00,96.89
3453.00,96.89
3452.00,96.91
3451.00,96.93
3450.00,96.96
3449.00,96.98
3448.00,96.97
3447.00,96.96
3446.00,96.94
3445.00,96.93
3444.00,96.93
3443.00,96.93
3442.00,96.93
3441.00,96.94
3440.00,96.94
3439.00,96.94
3438.00,96.94
3437.00,96.92
3436.00,96.90
3435.00,96.88
3434.00,96.88
3433.00,96.90
3432.00,96.92
3431.00,96.94
3430.00,96.95
3429.00,96.94
3428.00,96.93
3427.00,96.91
3426.00,96.89
3425.00,96.88
3424.00,96.89
3423.00,96.92
3422.00,96.93
3421.00,96.92
3420.00,96.89
3419.00,96.86
3418.00,96.86
3417.00,96.89
3416.00,96.93
3415.00,96.96
3414.00,96.99
3413.00,97.00
3412.00,96.99
3411.00,96.97
3410.00,96.95
3409.00,96.93
3408.00,96.92
3407.00,96.92
3406.00,96.93
3405.00,96.95
3404.00,96.95
3403.00,96.95
3402.00,96.93
3401.00,96.92
3400.00,96.91
3399.00,96.91
3398.00,96.90
3397.00,96.89
3396.00,96.88
3395.00,96.87
3394.00,96.86
3393.00,96.85
3392.00,96.85
3391.00,96.87
3390.00,96.91
3389.00,96.94
3388.00,96.95
3387.00,96.93
3386.00,96.91
3385.00,96.90
3384.00,96.89
3383.00,96.89
3382.00,96.88
3381.00,96.88
3380.00,96.88
3379.00,96.90
3378.00,96.93
3377.00,96.94
3376.00,96.95
3375.00,96.95
3374.00,96.95
3373.00,96.95
3372.00,96.95
3371.00,96.94
3370.00,96.93
3369.00,96.91
3368.00,96.89
3367.00,96.87
3366.00,96.85
3365.00,96.83
3364.00,96.85
3363.00,96.88
3362.00,96.90
3361.00,96.91
3360.00,96.90
3359.00,96.89
3358.00,96.88
3357.00,96.89
3356.00,96.89
3355.00,96.89
3354.00,96.90
3353.00,96.91
3352.00,96.93
3351.00,96.92
3350.00,96.90
3349.00,96.86
3348.00,96.83
3347.00,96.82
3346.00,96.82
3345.00,96.84
3344.00,96.87
3343.00,96.90
3342.00,96.93
3341.00,96.95
3340.00,96.94
3339.00,96.93
3338.00,96.92
3337.00,96.90
3336.00,96.89
3335.00,96.88
3334.00,96.88
3333.00,96.88
3332.00,96.89
3331.00,96.90
3330.00,96.89
3329.00,96.87
3328.00,96.83
3327.00,96.80
3326.00,96.79
3325.00,96.80
3324.00,96.81
3323.00,96.82
3322.00,96.83
3321.00,96.83
3320.00,96.82
3319.00,96.83
3318.00,96.84
3317.00,96.86
3316.00,96.88
3315.00,96.87
3314.00,96.85
3313.00,96.83
3312.00,96.82
3311.00,96.81
3310.00,96.81
3309.00,96.81
3308.00,96.83
3307.00,96.85
3306.00,96.87
3305.00,96.87
3304.00,96.86
3303.00,96.84
3302.00,96.84
3301.00,96.85
3300.00,96.87
3299.00,96.89
3298.00,96.90
3297.00,96.89
3296.00,96.87
3295.00,96.86
3294.00,96.84
3293.00,96.84
3292.00,96.84
3291.00,96.84
3290.00,96.84
3289.00,96.83
3288.00,96.82
3287.00,96.81
3286.00,96.80
3285.00,96.80
3284.00,96.80
3283.00,96.81
3282.00,96.83
3281.00,96.85
3280.00,96.85
3279.00,96.83
3278.00,96.82
3277.00,96.82
3276.00,96.82
3275.00,96.81
3274.00,96.81
3273.00,96.81
3272.00,96.82
3271.00,96.83
3270.00,96.83
3269.00,96.82
3268.00,96.81
3267.00,96.80
3266.00,96.80
3265.00,96.81
3264.00,96.82
3263.00,96.82
3262.00,96.81
3261.00,96.80
3260.00,96.78
3259.00,96.78
3258.00,96.79
3257.00,96.80
3256.00,96.81
3255.00,96.82
3254.00,96.81
3253.00,96.81
3252.00,96.80
3251.00,96.80
3250.00,96.78
3249.00,96.77
3248.00,96.78
3247.00,96.81
3246.00,96.83
3245.00,96.84
3244.00,96.83
3243.00,96.81
3242.00,96.79
3241.00,96.78
3240.00,96.78
3239.00,96.79
3238.00,96.80
3237.00,96.79
3236.00,96.79
3235.00,96.80
3234.00,96.82
3233.00,96.83
3232.00,96.83
3231.00,96.83
3230.00,96.82
3229.00,96.81
3228.00,96.80
3227.00,96.80
3226.00,96.81
3225.00,96.82
3224.00,96.84
3223.00,96.86
3222.00,96.85
3221.00,96.83
3220.00,96.80
3219.00,96.78
3218.00,96.76
3217.00,96.76
3216.00,96.78
3215.00,96.81
3214.00,96.82
3213.00,96.83
3212.00,96.82
3211.00,96.82
3210.00,96.83
3209.00,96.84
3208.00,96.85
3207.00,96.85
3206.00,96.83
3205.00,96.81
3204.00,96.80
3203.00,96.80
3202.00,96.81
3201.00,96.82
3200.00,96.82
3199.00,96.82
3198.00,96.82
3197.00,96.83
3196.00,96.83
3195.00,96.82
3194.00,96.81
3193.00,96.80
3192.00,96.78
3191.00,96.78
3190.00,96.79
3189.00,96.82
3188.00,96.84
3187.00,96.85
3186.00,96.85
3185.00,96.85
3184.00,96.84
3183.00,96.83
3182.00,96.82
3181.00,96.81
3180.00,96.82
3179.00,96.83
3178.00,96.84
3177.00,96.84
3176.00,96.82
3175.00,96.81
3174.00,96.80
3173.00,96.81
3172.00,96.81
3171.00,96.82
3170.00,96.81
3169.00,96.80
3168.00,96.80
3167.00,96.80
3166.00,96.81
3165.00,96.81
3164.00,96.81
3163.00,96.81
3162.00,96.82
3161.00,96.83
3160.00,96.84
3159.00,96.85
3158.00,96.84
3157.00,96.83
3156.00,96.81
3155.00,96.79
3154.00,96.79
3153.00,96.80
3152.00,96.81
3151.00,96.81
3150.00,96.80
3149.00,96.79
3148.00,96.79
3147.00,96.80
3146.00,96.82
3145.00,96.84
3144.00,96.84
3143.00,96.85
3142.00,96.85
3141.00,96.86
3140.00,96.87
3139.00,96.87
3138.00,96.87
3137.00,96.87
3136.00,96.87
3135.00,96.87
3134.00,96.87
3133.00,96.85
3132.00,96.84
3131.00,96.82
3130.00,96.81
3129.00,96.81
3128.00,96.82
3127.00,96.83
3126.00,96.85
3125.00,96.86
3124.00,96.86
3123.00,96.86
3122.00,96.87
3121.00,96.86
3120.00,96.86
3119.00,96.86
3118.00,96.85
3117.00,96.86
3116.00,96.86
3115.00,96.88
3114.00,96.90
3113.00,96.90
3112.00,96.90
3111.00,96.89
3110.00,96.87
3109.00,96.86
3108.00,96.84
3107.00,96.83
3106.00,96.84
3105.00,96.86
3104.00,96.89
3103.00,96.90
3102.00,96.91
3101.00,96.91
3100.00,96.90
3099.00,96.88
3098.00,96.85
3097.00,96.83
3096.00,96.81
3095.00,96.80
3094.00,96.80
3093.00,96.79
3092.00,96.80
3091.00,96.81
3090.00,96.82
3089.00,96.83
3088.00,96.83
3087.00,96.83
3086.00,96.83
3085.00,96.82
3084.00,96.81
3083.00,96.81
3082.00,96.80
3081.00,96.79
3080.00,96.79
3079.00,96.80
3078.00,96.81
3077.00,96.82
3076.00,96.82
3075.00,96.81
3074.00,96.80
3073.00,96.80
3072.00,96.81
3071.00,96.82
3070.00,96.84
3069.00,96.86
3068.00,96.87
3067.00,96.87
3066.00,96.85
3065.00,96.83
3064.00,96.81
3063.00,96.80
3062.00,96.80
3061.00,96.81
3060.00,96.81
3059.00,96.81
3058.00,96.82
3057.00,96.82
3056.00,96.83
3055.00,96.83
3054.00,96.83
3053.00,96.82
3052.00,96.82
3051.00,96.81
3050.00,96.80
3049.00,96.81
3048.00,96.82
3047.00,96.84
3046.00,96.84
3045.00,96.83
3044.00,96.81
3043.00,96.81
3042.00,96.81
3041.00,96.82
3040.00,96.84
3039.00,96.84
3038.00,96.84
3037.00,96.83
3036.00,96.82
3035.00,96.82
3034.00,96.83
3033.00,96.83
3032.00,96.83
3031.00,96.82
3030.00,96.80
3029.00,96.79
3028.00,96.78
3027.00,96.78
3026.00,96.79
3025.00,96.79
3024.00,96.79
3023.00,96.78
3022.00,96.77
3021.00,96.78
3020.00,96.79
3019.00,96.81
3018.00,96.81
3017.00,96.81
3016.00,96.79
3015.00,96.78
3014.00,96.77
3013.00,96.75
3012.00,96.73
3011.00,96.72
3010.00,96.70
3009.00,96.70
3008.00,96.71
3007.00,96.72
3006.00,96.72
3005.00,96.70
3004.00,96.68
3003.00,96.66
3002.00,96.66
3001.00,96.66
3000.00,96.67
2999.00,96.66
2998.00,96.64
2997.00,96.61
2996.00,96.59
2995.00,96.59
2994.00,96.60
2993.00,96.61
2992.00,96.62
2991.00,96.62
2990.00,96.61
2989.00,96.60
2988.00,96.59
2987.00,96.57
2986.00,96.55
2985.00,96.54
2984.00,96.52
2983.00,96.50
2982.00,96.49
2981.00,96.48
2980.00,96.48
2979.00,96.49
2978.00,96.50
2977.00,96.49
2976.00,96.48
2975.00,96.46
2974.00,96.44
2973.00,96.43
2972.00,96.42
2971.00,96.43
2970.00,96.44
2969.00,96.45
2968.00,96.46
2967.00,96.45
2966.00,96.42
2965.00,96.39
2964.00,96.35
2963.00,96.32
2962.00,96.29
2961.00,96.27
2960.00,96.25
2959.00,96.23
2958.00,96.21
2957.00,96.20
2956.00,96.19
2955.00,96.17
2954.00,96.14
2953.00,96.11
2952.00,96.07
2951.00,96.03
2950.00,95.99
2949.00,95.97
2948.00,95.95
2947.00,95.92
2946.00,95.88
2945.00,95.82
2944.00,95.76
2943.00,95.72
2942.00,95.69
2941.00,95.67
2940.00,95.66
2939.00,95.65
2938.00,95.64
2937.00,95.61
2936.00,95.57
2935.00,95.52
2934.00,95.47
2933.00,95.44
2932.00,95.42
2931.00,95.41
2930.00,95.39
2929.00,95.36
2928.00,95.34
2927.00,95.32
2926.00,95.30
2925.00,95.26
2924.00,95.21
2923.00,95.16
2922.00,95.12
2921.00,95.10
2920.00,95.10
2919.00,95.11
2918.00,95.15
2917.00,95.20
2916.00,95.28
2915.00,95.38
2914.00,95.49
2913.00,95.59
2912.00,95.67
2911.00,95.74
2910.00,95.81
2909.00,95.88
2908.00,95.94
2907.00,95.99
2906.00,96.03
2905.00,96.06
2904.00,96.10
2903.00,96.14
2902.00,96.16
2901.00,96.18
2900.00,96.19
2899.00,96.20
2898.00,96.22
2897.00,96.25
2896.00,96.28
2895.00,96.31
2894.00,96.34
2893.00,96.37
2892.00,96.38
2891.00,96.38
2890.00,96.38
2889.00,96.38
2888.00,96.38
2887.00,96.39
2886.00,96.40
2885.00,96.41
2884.00,96.41
2883.00,96.41
2882.00,96.41
2881.00,96.41
2880.00,96.41
2879.00,96.41
2878.00,96.40
2877.00,96.41
2876.00,96.41
2875.00,96.42
2874.00,96.42
2873.00,96.41
2872.00,96.39
2871.00,96.39
2870.00,96.39
2869.00,96.40
2868.00,96.40
2867.00,96.40
2866.00,96.40
2865.00,96.39
2864.00,96.39
2863.00,96.39
2862.00,96.40
2861.00,96.40
2860.00,96.40
2859.00,96.40
2858.00,96.38
2857.00,96.35
2856.00,96.32
2855.00,96.28
2854.00,96.25
2853.00,96.22
2852.00,96.20
2851.00,96.20
2850.00,96.21
2849.00,96.23
2848.00,96.28
2847.00,96.35
2846.00,96.43
2845.00,96.50
2844.00,96.54
2843.00,96.57
2842.00,96.59
2841.00,96.61
2840.00,96.64
2839.00,96.66
2838.00,96.68
2837.00,96.69
2836.00,96.70
2835.00,96.71
2834.00,96.71
2833.00,96.72
2832.00,96.72
2831.00,96.73
2830.00,96.73
2829.00,96.75
2828.00,96.76
2827.00,96.78
2826.00,96.78
2825.00,96.77
2824.00,96.75
2823.00,96.74
2822.00,96.74
2821.00,96.73
2820.00,96.72
2819.00,96.72
2818.00,96.72
2817.00,96.72
2816.00,96.72
2815.00,96.73
2814.00,96.74
2813.00,96.74
2812.00,96.75
2811.00,96.76
2810.00,96.76
2809.00,96.77
2808.00,96.78
2807.00,96.78
2806.00,96.79
2805.00,96.80
2804.00,96.80
2803.00,96.81
2802.00,96.81
2801.00,96.80
2800.00,96.80
2799.00,96.80
2798.00,96.80
2797.00,96.81
2796.00,96.81
2795.00,96.81
2794.00,96.81
2793.00,96.80
2792.00,96.79
2791.00,96.79
2790.00,96.79
2789.00,96.79
2788.00,96.80
2787.00,96.80
2786.00,96.81
2785.00,96.82
2784.00,96.83
2783.00,96.84
2782.00,96.84
2781.00,96.85
2780.00,96.85
2779.00,96.85
2778.00,96.85
2777.00,96.83
2776.00,96.82
2775.00,96.80
2774.00,96.79
2773.00,96.78
2772.00,96.78
2771.00,96.80
2770.00,96.81
2769.00,96.83
2768.00,96.84
2767.00,96.85
2766.00,96.86
2765.00,96.87
2764.00,96.87
2763.00,96.86
2762.00,96.85
2761.00,96.84
2760.00,96.84
2759.00,96.85
2758.00,96.86
2757.00,96.87
2756.00,96.87
2755.00,96.86
2754.00,96.85
2753.00,96.84
2752.00,96.84
2751.00,96.85
2750.00,96.85
2749.00,96.86
2748.00,96.86
2747.00,96.86
2746.00,96.85
2745.00,96.84
2744.00,96.83
2743.00,96.83
2742.00,96.84
2741.00,96.86
2740.00,96.88
2739.00,96.89
2738.00,96.89
2737.00,96.87
2736.00,96.84
2735.00,96.82
2734.00,96.80
2733.00,96.80
2732.00,96.81
2731.00,96.81
2730.00,96.82
2729.00,96.82
2728.00,96.82
2727.00,96.82
2726.00,96.82
2725.00,96.83
2724.00,96.83
2723.00,96.83
2722.00,96.82
2721.00,96.81
2720.00,96.80
2719.00,96.79
2718.00,96.78
2717.00,96.78
2716.00,96.78
2715.00,96.79
2714.00,96.79
2713.00,96.78
2712.00,96.77
2711.00,96.78
2710.00,96.80
2709.00,96.83
2708.00,96.85
2707.00,96.85
2706.00,96.84
2705.00,96.82
2704.00,96.82
2703.00,96.82
2702.00,96.82
2701.00,96.83
2700.00,96.83
2699.00,96.83
2698.00,96.83
2697.00,96.83
2696.00,96.82
2695.00,96.82
2694.00,96.83
2693.00,96.83
2692.00,96.83
2691.00,96.83
2690.00,96.83
2689.00,96.82
2688.00,96.81
2687.00,96.81
2686.00,96.82
2685.00,96.84
2684.00,96.86
2683.00,96.86
2682.00,96.85
2681.00,96.84
2680.00,96.83
2679.00,96.83
2678.00,96.83
2677.00,96.83
2676.00,96.82
2675.00,96.81
2674.00,96.81
2673.00,96.81
2672.00,96.81
2671.00,96.81
2670.00,96.80
2669.00,96.79
2668.00,96.77
2667.00,96.76
2666.00,96.76
2665.00,96.76
2664.00,96.77
2663.00,96.77
2662.00,96.77
2661.00,96.77
2660.00,96.77
2659.00,96.77
2658.00,96.78
2657.00,96.78
2656.00,96.76
2655.00,96.73
2654.00,96.70
2653.00,96.69
2652.00,96.69
2651.00,96.69
2650.00,96.69
2649.00,96.68
2648.00,96.67
2647.00,96.66
2646.00,96.65
2645.00,96.64
2644.00,96.62
2643.00,96.61
2642.00,96.60
2641.00,96.61
2640.00,96.61
2639.00,96.61
2638.00,96.61
2637.00,96.61
2636.00,96.60
2635.00,96.59
2634.00,96.57
2633.00,96.54
2632.00,96.51
2631.00,96.50
2630.00,96.49
2629.00,96.50
2628.00,96.51
2627.00,96.53
2626.00,96.53
2625.00,96.53
2624.00,96.52
2623.00,96.50
2622.00,96.49
2621.00,96.48
2620.00,96.47
2619.00,96.45
2618.00,96.44
2617.00,96.43
2616.00,96.41
2615.00,96.40
2614.00,96.39
2613.00,96.39
2612.00,96.39
2611.00,96.39
2610.00,96.40
2609.00,96.41
2608.00,96.41
2607.00,96.41
2606.00,96.39
2605.00,96.38
2604.00,96.37
2603.00,96.37
2602.00,96.37
2601.00,96.38
2600.00,96.38
2599.00,96.37
2598.00,96.37
2597.00,96.36
2596.00,96.35
2595.00,96.32
2594.00,96.29
2593.00,96.27
2592.00,96.28
2591.00,96.30
2590.00,96.32
2589.00,96.33
2588.00,96.32
2587.00,96.30
2586.00,96.29
2585.00,96.28
2584.00,96.28
2583.00,96.29
2582.00,96.29
2581.00,96.28
2580.00,96.27
2579.00,96.26
2578.00,96.25
2577.00,96.24
2576.00,96.24
2575.00,96.25
2574.00,96.24
2573.00,96.23
2572.00,96.23
2571.00,96.24
2570.00,96.25
2569.00,96.24
2568.00,96.24
2567.00,96.23
2566.00,96.22
2565.00,96.21
2564.00,96.20
2563.00,96.19
2562.00,96.18
2561.00,96.18
2560.00,96.17
2559.00,96.17
2558.00,96.17
2557.00,96.18
2556.00,96.19
2555.00,96.19
2554.00,96.19
2553.00,96.18
2552.00,96.17
2551.00,96.17
2550.00,96.17
2549.00,96.17
2548.00,96.16
2547.00,96.13
2546.00,96.11
2545.00,96.09
2544.00,96.08
2543.00,96.10
2542.00,96.12
2541.00,96.13
2540.00,96.13
2539.00,96.12
2538.00,96.12
2537.00,96.13
2536.00,96.15
2535.00,96.16
2534.00,96.15
2533.00,96.13
2532.00,96.11
2531.00,96.10
2530.00,96.10
2529.00,96.11
2528.00,96.11
2527.00,96.11
2526.00,96.12
2525.00,96.14
2524.00,96.14
2523.00,96.14
2522.00,96.13
2521.00,96.12
2520.00,96.11
2519.00,96.11
2518.00,96.11
2517.00,96.11
2516.00,96.11
2515.00,96.11
2514.00,96.11
2513.00,96.12
2512.00,96.14
2511.00,96.16
2510.00,96.17
2509.00,96.17
2508.00,96.17
2507.00,96.17
2506.00,96.19
2505.00,96.21
2504.00,96.21
2503.00,96.19
2502.00,96.14
2501.00,96.10
2500.00,96.08
2499.00,96.10
2498.00,96.13
2497.00,96.15
2496.00,96.15
2495.00,96.14
2494.00,96.13
2493.00,96.13
2492.00,96.13
2491.00,96.12
2490.00,96.09
2489.00,96.08
2488.00,96.08
2487.00,96.10
2486.00,96.13
2485.00,96.16
2484.00,96.18
2483.00,96.19
2482.00,96.19
2481.00,96.19
2480.00,96.18
2479.00,96.17
2478.00,96.16
2477.00,96.16
2476.00,96.16
2475.00,96.16
2474.00,96.16
2473.00,96.16
2472.00,96.17
2471.00,96.18
2470.00,96.19
2469.00,96.18
2468.00,96.17
2467.00,96.18
2466.00,96.20
2465.00,96.21
2464.00,96.22
2463.00,96.20
2462.00,96.17
2461.00,96.12
2460.00,96.08
2459.00,96.06
2458.00,96.05
2457.00,96.07
2456.00,96.10
2455.00,96.12
2454.00,96.15
2453.00,96.16
2452.00,96.16
2451.00,96.16
2450.00,96.16
2449.00,96.16
2448.00,96.16
2447.00,96.16
2446.00,96.14
2445.00,96.12
2444.00,96.09
2443.00,96.07
2442.00,96.06
2441.00,96.07
2440.00,96.09
2439.00,96.11
2438.00,96.12
2437.00,96.10
2436.00,96.09
2435.00,96.09
2434.00,96.11
2433.00,96.14
2432.00,96.17
2431.00,96.20
2430.00,96.21
2429.00,96.20
2428.00,96.19
2427.00,96.18
2426.00,96.17
2425.00,96.17
2424.00,96.18
2423.00,96.20
2422.00,96.22
2421.00,96.25
2420.00,96.26
2419.00,96.27
2418.00,96.26
2417.00,96.25
2416.00,96.24
2415.00,96.24
2414.00,96.25
2413.00,96.26
2412.00,96.28
2411.00,96.29
2410.00,96.28
2409.00,96.27
2408.00,96.27
2407.00,96.28
2406.00,96.30
2405.00,96.31
2404.00,96.31
2403.00,96.31
2402.00,96.32
2401.00,96.33
2400.00,96.34
2399.00,96.35
2398.00,96.33
2397.00,96.32
2396.00,96.31
2395.00,96.31
2394.00,96.32
2393.00,96.33
2392.00,96.34
2391.00,96.35
2390.00,96.35
2389.00,96.35
2388.00,96.35
2387.00,96.37
2386.00,96.40
2385.00,96.43
2384.00,96.44
2383.00,96.43
2382.00,96.44
2381.00,96.45
2380.00,96.47
2379.00,96.50
2378.00,96.54
2377.00,96.58
2376.00,96.59
2375.00,96.59
2374.00,96.57
2373.00,96.54
2372.00,96.48
2371.00,96.44
2370.00,96.43
2369.00,96.50
2368.00,96.61
2367.00,96.72
2366.00,96.77
2365.00,96.76
2364.00,96.70
2363.00,96.64
2362.00,96.59
2361.00,96.56
2360.00,96.55
2359.00,96.55
2358.00,96.52
2357.00,96.48
2356.00,96.43
2355.00,96.41
2354.00,96.40
2353.00,96.40
2352.00,96.40
2351.00,96.43
2350.00,96.47
2349.00,96.48
2348.00,96.51
2347.00,96.56
2346.00,96.64
2345.00,96.68
2344.00,96.65
2343.00,96.58
2342.00,96.52
2341.00,96.48
2340.00,96.46
2339.00,96.45
2338.00,96.45
2337.00,96.46
2336.00,96.46
2335.00,96.45
2334.00,96.42
2333.00,96.39
2332.00,96.36
2331.00,96.35
2330.00,96.36
2329.00,96.37
2328.00,96.39
2327.00,96.40
2326.00,96.38
2325.00,96.35
2324.00,96.32
2323.00,96.32
2322.00,96.33
2321.00,96.34
2320.00,96.33
2319.00,96.31
2318.00,96.30
2317.00,96.30
2316.00,96.30
2315.00,96.29
2314.00,96.27
2313.00,96.25
2312.00,96.22
2311.00,96.21
2310.00,96.21
2309.00,96.21
2308.00,96.20
2307.00,96.19
2306.00,96.18
2305.00,96.18
2304.00,96.18
2303.00,96.17
2302.00,96.16
2301.00,96.15
2300.00,96.14
2299.00,96.12
2298.00,96.10
2297.00,96.08
2296.00,96.06
2295.00,96.05
2294.00,96.03
2293.00,96.03
2292.00,96.02
2291.00,96.01
2290.00,95.99
2289.00,95.97
2288.00,95.93
2287.00,95.89
2286.00,95.85
2285.00,95.83
2284.00,95.81
2283.00,95.78
2282.00,95.74
2281.00,95.69
2280.00,95.68
2279.00,95.68
2278.00,95.67
2277.00,95.64
2276.00,95.60
2275.00,95.57
2274.00,95.56
2273.00,95.56
2272.00,95.57
2271.00,95.60
2270.00,95.62
2269.00,95.62
2268.00,95.60
2267.00,95.56
2266.00,95.52
2265.00,95.46
2264.00,95.40
2263.00,95.35
2262.00,95.30
2261.00,95.25
2260.00,95.20
2259.00,95.14
2258.00,95.07
2257.00,94.97
2256.00,94.84
2255.00,94.69
2254.00,94.54
2253.00,94.37
2252.00,94.18
2251.00,93.96
2250.00,93.72
2249.00,93.47
2248.00,93.23
2247.00,93.00
2246.00,92.78
2245.00,92.57
2244.00,92.40
2243.00,92.30
2242.00,92.27
2241.00,92.35
2240.00,92.50
2239.00,92.71
2238.00,92.94
2237.00,93.19
2236.00,93.45
2235.00,93.70
2234.00,93.94
2233.00,94.15
2232.00,94.33
2231.00,94.49
2230.00,94.61
2229.00,94.70
2228.00,94.77
2227.00,94.83
2226.00,94.86
2225.00,94.86
2224.00,94.85
2223.00,94.85
2222.00,94.88
2221.00,94.91
2220.00,94.91
2219.00,94.87
2218.00,94.81
2217.00,94.77
2216.00,94.76
2215.00,94.78
2214.00,94.79
2213.00,94.78
2212.00,94.75
2211.00,94.71
2210.00,94.66
2209.00,94.63
2208.00,94.63
2207.00,94.66
2206.00,94.71
2205.00,94.76
2204.00,94.78
2203.00,94.75
2202.00,94.69
2201.00,94.63
2200.00,94.60
2199.00,94.59
2198.00,94.57
2197.00,94.55
2196.00,94.53
2195.00,94.53
2194.00,94.57
2193.00,94.59
2192.00,94.59
2191.00,94.55
2190.00,94.52
2189.00,94.51
2188.00,94.50
2187.00,94.45
2186.00,94.38
2185.00,94.33
2184.00,94.32
2183.00,94.37
2182.00,94.40
2181.00,94.39
2180.00,94.33
2179.00,94.29
2178.00,94.29
2177.00,94.34
2176.00,94.42
2175.00,94.50
2174.00,94.55
2173.00,94.56
2172.00,94.50
2171.00,94.39
2170.00,94.27
2169.00,94.17
2168.00,94.10
2167.00,94.04
2166.00,94.02
2165.00,94.00
2164.00,93.96
2163.00,93.90
2162.00,93.84
2161.00,93.83
2160.00,93.91
2159.00,94.06
2158.00,94.21
2157.00,94.34
2156.00,94.42
2155.00,94.47
2154.00,94.50
2153.00,94.53
2152.00,94.57
2151.00,94.63
2150.00,94.70
2149.00,94.75
2148.00,94.78
2147.00,94.81
2146.00,94.83
2145.00,94.86
2144.00,94.89
2143.00,94.94
2142.00,94.97
2141.00,94.99
2140.00,95.00
2139.00,95.03
2138.00,95.08
2137.00,95.14
2136.00,95.20
2135.00,95.27
2134.00,95.33
2133.00,95.35
2132.00,95.36
2131.00,95.36
2130.00,95.37
2129.00,95.39
2128.00,95.39
2127.00,95.38
2126.00,95.38
2125.00,95.40
2124.00,95.44
2123.00,95.47
2122.00,95.50
2121.00,95.50
2120.00,95.48
2119.00,95.45
2118.00,95.43
2117.00,95.42
2116.00,95.42
2115.00,95.43
2114.00,95.44
2113.00,95.46
2112.00,95.47
2111.00,95.46
2110.00,95.46
2109.00,95.47
2108.00,95.47
2107.00,95.46
2106.00,95.42
2105.00,95.39
2104.00,95.37
2103.00,95.37
2102.00,95.37
2101.00,95.36
2100.00,95.35
2099.00,95.34
2098.00,95.34
2097.00,95.34
2096.00,95.33
2095.00,95.32
2094.00,95.34
2093.00,95.38
2092.00,95.44
2091.00,95.49
2090.00,95.50
2089.00,95.46
2088.00,95.39
2087.00,95.32
2086.00,95.29
2085.00,95.28
2084.00,95.29
2083.00,95.30
2082.00,95.30
2081.00,95.28
2080.00,95.26
2079.00,95.24
2078.00,95.25
2077.00,95.26
2076.00,95.27
2075.00,95.25
2074.00,95.21
2073.00,95.18
2072.00,95.16
2071.00,95.16
2070.00,95.17
2069.00,95.17
2068.00,95.17
2067.00,95.18
2066.00,95.20
2065.00,95.22
2064.00,95.21
2063.00,95.19
2062.00,95.16
2061.00,95.12
2060.00,95.08
2059.00,95.05
2058.00,95.04
2057.00,95.04
2056.00,95.03
2055.00,94.99
2054.00,94.95
2053.00,94.92
2052.00,94.91
2051.00,94.90
2050.00,94.85
2049.00,94.80
2048.00,94.75
2047.00,94.74
2046.00,94.75
2045.00,94.74
2044.00,94.72
2043.00,94.68
2042.00,94.65
2041.00,94.62
2040.00,94.57
2039.00,94.50
2038.00,94.41
2037.00,94.34
2036.00,94.32
2035.00,94.33
2034.00,94.35
2033.00,94.34
2032.00,94.29
2031.00,94.23
2030.00,94.20
2029.00,94.20
2028.00,94.22
2027.00,94.25
2026.00,94.27
2025.00,94.28
2024.00,94.26
2023.00,94.24
2022.00,94.24
2021.00,94.28
2020.00,94.32
2019.00,94.33
2018.00,94.32
2017.00,94.31
2016.00,94.33
2015.00,94.36
2014.00,94.40
2013.00,94.42
2012.00,94.44
2011.00,94.46
2010.00,94.46
2009.00,94.46
2008.00,94.47
2007.00,94.48
2006.00,94.50
2005.00,94.53
2004.00,94.58
2003.00,94.63
2002.00,94.68
2001.00,94.70
2000.00,94.70
1999.00,94.68
1998.00,94.67
1997.00,94.68
1996.00,94.68
1995.00,94.65
1994.00,94.62
1993.00,94.59
1992.00,94.59
1991.00,94.62
1990.00,94.66
1989.00,94.70
1988.00,94.72
1987.00,94.74
1986.00,94.74
1985.00,94.73
1984.00,94.69
1983.00,94.63
1982.00,94.53
1981.00,94.43
1980.00,94.36
1979.00,94.34
1978.00,94.37
1977.00,94.42
1976.00,94.45
1975.00,94.47
1974.00,94.47
1973.00,94.48
1972.00,94.50
1971.00,94.53
1970.00,94.54
1969.00,94.55
1968.00,94.57
1967.00,94.60
1966.00,94.62
1965.00,94.63
1964.00,94.65
1963.00,94.69
1962.00,94.74
1961.00,94.80
1960.00,94.83
1959.00,94.86
1958.00,94.88
1957.00,94.92
1956.00,94.96
1955.00,95.01
1954.00,95.06
1953.00,95.12
1952.00,95.18
1951.00,95.24
1950.00,95.28
1949.00,95.31
1948.00,95.34
1947.00,95.37
1946.00,95.37
1945.00,95.35
1944.00,95.32
1943.00,95.31
1942.00,95.33
1941.00,95.36
1940.00,95.37
1939.00,95.38
1938.00,95.39
1937.00,95.40
1936.00,95.41
1935.00,95.41
1934.00,95.41
1933.00,95.42
1932.00,95.44
1931.00,95.48
1930.00,95.53
1929.00,95.58
1928.00,95.62
1927.00,95.66
1926.00,95.68
1925.00,95.68
1924.00,95.66
1923.00,95.65
1922.00,95.65
1921.00,95.66
1920.00,95.67
1919.00,95.67
1918.00,95.67
1917.00,95.66
1916.00,95.64
1915.00,95.64
1914.00,95.66
1913.00,95.70
1912.00,95.75
1911.00,95.77
1910.00,95.76
1909.00,95.75
1908.00,95.75
1907.00,95.75
1906.00,95.76
1905.00,95.79
1904.00,95.82
1903.00,95.85
1902.00,95.87
1901.00,95.87
1900.00,95.86
1899.00,95.86
1898.00,95.86
1897.00,95.87
1896.00,95.87
1895.00,95.88
1894.00,95.88
1893.00,95.88
1892.00,95.88
1891.00,95.89
1890.00,95.91
1889.00,95.93
1888.00,95.95
1887.00,95.96
1886.00,95.96
1885.00,95.97
1884.00,95.98
1883.00,96.01
1882.00,96.02
1881.00,96.02
1880.00,96.00
1879.00,95.99
1878.00,95.97
1877.00,95.97
1876.00,95.97
1875.00,95.98
1874.00,96.00
1873.00,96.04
1872.00,96.06
1871.00,96.06
1870.00,96.04
1869.00,96.02
1868.00,96.02
1867.00,96.03
1866.00,96.04
1865.00,96.05
1864.00,96.06
1863.00,96.06
1862.00,96.05
1861.00,96.05
1860.00,96.06
1859.00,96.07
1858.00,96.09
1857.00,96.10
1856.00,96.10
1855.00,96.10
1854.00,96.10
1853.00,96.11
1852.00,96.12
1851.00,96.12
1850.00,96.11
1849.00,96.10
1848.00,96.09
1847.00,96.09
1846.00,96.10
1845.00,96.11
1844.00,96.14
1843.00,96.16
1842.00,96.18
1841.00,96.17
1840.00,96.17
1839.00,96.18
1838.00,96.19
1837.00,96.21
1836.00,96.22
1835.00,96.24
1834.00,96.25
1833.00,96.27
1832.00,96.28
1831.00,96.28
1830.00,96.28
1829.00,96.27
1828.00,96.26
1827.00,96.25
1826.00,96.25
1825.00,96.26
1824.00,96.27
1823.00,96.28
1822.00,96.28
1821.00,96.28
1820.00,96.29
1819.00,96.30
1818.00,96.31
1817.00,96.31
1816.00,96.32
1815.00,96.33
1814.00,96.35
1813.00,96.37
1812.00,96.37
1811.00,96.37
1810.00,96.36
1809.00,96.35
1808.00,96.35
1807.00,96.35
1806.00,96.36
1805.00,96.37
1804.00,96.38
1803.00,96.39
1802.00,96.40
1801.00,96.41
1800.00,96.42
1799.00,96.42
1798.00,96.42
1797.00,96.42
1796.00,96.43
1795.00,96.43
1794.00,96.43
1793.00,96.43
1792.00,96.42
1791.00,96.41
1790.00,96.41
1789.00,96.40
1788.00,96.40
1787.00,96.41
1786.00,96.42
1785.00,96.45
1784.00,96.48
1783.00,96.50
1782.00,96.49
1781.00,96.48
1780.00,96.46
1779.00,96.46
1778.00,96.46
1777.00,96.47
1776.00,96.48
1775.00,96.47
1774.00,96.47
1773.00,96.46
1772.00,96.46
1771.00,96.46
1770.00,96.45
1769.00,96.43
1768.00,96.42
1767.00,96.41
1766.00,96.40
1765.00,96.40
1764.00,96.38
1763.00,96.37
1762.00,96.35
1761.00,96.32
1760.00,96.27
1759.00,96.22
1758.00,96.15
1757.00,96.08
1756.00,95.99
1755.00,95.90
1754.00,95.79
1753.00,95.66
1752.00,95.49
1751.00,95.27
1750.00,95.05
1749.00,94.83
1748.00,94.63
1747.00,94.43
1746.00,94.22
1745.00,94.02
1744.00,93.82
1743.00,93.62
1742.00,93.45
1741.00,93.28
1740.00,93.12
1739.00,93.00
1738.00,92.94
1737.00,92.92
1736.00,92.93
1735.00,92.95
1734.00,92.98
1733.00,93.05
1732.00,93.14
1731.00,93.26
1730.00,93.39
1729.00,93.54
1728.00,93.69
1727.00,93.85
1726.00,94.01
1725.00,94.19
1724.00,94.36
1723.00,94.53
1722.00,94.68
1721.00,94.80
1720.00,94.91
1719.00,95.03
1718.00,95.15
1717.00,95.27
1716.00,95.37
1715.00,95.46
1714.00,95.52
1713.00,95.58
1712.00,95.64
1711.00,95.70
1710.00,95.75
1709.00,95.80
1708.00,95.83
1707.00,95.87
1706.00,95.91
1705.00,95.95
1704.00,95.98
1703.00,96.00
1702.00,96.01
1701.00,96.01
1700.00,96.01
1699.00,96.02
1698.00,96.03
1697.00,96.03
1696.00,96.04
1695.00,96.06
1694.00,96.08
1693.00,96.08
1692.00,96.08
1691.00,96.09
1690.00,96.10
1689.00,96.11
1688.00,96.10
1687.00,96.10
1686.00,96.09
1685.00,96.09
1684.00,96.09
1683.00,96.12
1682.00,96.13
1681.00,96.12
1680.00,96.11
1679.00,96.11
1678.00,96.12
1677.00,96.12
1676.00,96.11
1675.00,96.10
1674.00,96.10
1673.00,96.10
1672.00,96.11
1671.00,96.12
1670.00,96.10
1669.00,96.08
1668.00,96.06
1667.00,96.06
1666.00,96.06
1665.00,96.07
1664.00,96.07
1663.00,96.06
1662.00,96.06
1661.00,96.05
1660.00,96.04
1659.00,96.04
1658.00,96.05
1657.00,96.05
1656.00,96.05
1655.00,96.03
1654.00,95.98
1653.00,95.93
1652.00,95.95
1651.00,95.96
1650.00,95.96
1649.00,95.96
1648.00,95.97
1647.00,95.97
1646.00,95.99
1645.00,95.99
1644.00,95.97
1643.00,95.95
1642.00,95.94
1641.00,95.93
1640.00,95.93
1639.00,95.93
1638.00,95.94
1637.00,95.94
1636.00,95.92
1635.00,95.90
1634.00,95.89
1633.00,95.89
1632.00,95.88
1631.00,95.87
1630.00,95.86
1629.00,95.86
1628.00,95.87
1627.00,95.88
1626.00,95.89
1625.00,95.89
1624.00,95.89
1623.00,95.88
1622.00,95.89
1621.00,95.89
1620.00,95.89
1619.00,95.88
1618.00,95.88
1617.00,95.87
1616.00,95.89
1615.00,95.91
1614.00,95.94
1613.00,95.96
1612.00,95.97
1611.00,95.96
1610.00,95.95
1609.00,95.94
1608.00,95.93
1607.00,95.92
1606.00,95.90
1605.00,95.89
1604.00,95.87
1603.00,95.87
1602.00,95.88
1601.00,95.91
1600.00,95.95
1599.00,95.99
1598.00,96.03
1597.00,96.06
1596.00,96.09
1595.00,96.11
1594.00,96.12
1593.00,96.13
1592.00,96.13
1591.00,96.13
1590.00,96.14
1589.00,96.15
1588.00,96.16
1587.00,96.16
1586.00,96.16
1585.00,96.16
1584.00,96.17
1583.00,96.17
1582.00,96.17
1581.00,96.17
1580.00,96.17
1579.00,96.17
1578.00,96.16
1577.00,96.14
1576.00,96.11
1575.00,96.10
1574.00,96.10
1573.00,96.10
1572.00,96.10
1571.00,96.11
1570.00,96.10
1569.00,96.09
1568.00,96.08
1567.00,96.07
1566.00,96.07
1565.00,96.08
1564.00,96.10
1563.00,96.13
1562.00,96.15
1561.00,96.17
1560.00,96.18
1559.00,96.16
1558.00,96.16
1557.00,96.17
1556.00,96.17
1555.00,96.16
1554.00,96.17
1553.00,96.18
1552.00,96.18
1551.00,96.19
1550.00,96.20
1549.00,96.22
1548.00,96.23
1547.00,96.23
1546.00,96.23
1545.00,96.23
1544.00,96.23
1543.00,96.23
1542.00,96.23
1541.00,96.24
1540.00,96.23
1539.00,96.23
1538.00,96.23
1537.00,96.24
1536.00,96.25
1535.00,96.26
1534.00,96.27
1533.00,96.27
1532.00,96.28
1531.00,96.29
1530.00,96.30
1529.00,96.31
1528.00,96.31
1527.00,96.31
1526.00,96.30
1525.00,96.29
1524.00,96.29
1523.00,96.30
1522.00,96.31
1521.00,96.33
1520.00,96.33
1519.00,96.33
1518.00,96.32
1517.00,96.30
1516.00,96.29
1515.00,96.28
1514.00,96.27
1513.00,96.27
1512.00,96.28
1511.00,96.28
1510.00,96.29
1509.00,96.29
1508.00,96.30
1507.00,96.31
1506.00,96.36
1505.00,96.39
1504.00,96.41
1503.00,96.41
1502.00,96.40
1501.00,96.39
1500.00,96.38
1499.00,96.38
1498.00,96.39
1497.00,96.39
1496.00,96.39
1495.00,96.40
1494.00,96.40
1493.00,96.39
1492.00,96.38
1491.00,96.36
1490.00,96.35
1489.00,96.34
1488.00,96.34
1487.00,96.34
1486.00,96.34
1485.00,96.34
1484.00,96.34
1483.00,96.35
1482.00,96.36
1481.00,96.36
1480.00,96.35
1479.00,96.34
1478.00,96.33
1477.00,96.32
1476.00,96.30
1475.00,96.28
1474.00,96.22
1473.00,96.16
1472.00,96.10
1471.00,96.06
1470.00,96.03
1469.00,95.98
1468.00,95.92
1467.00,95.83
1466.00,95.71
1465.00,95.55
1464.00,95.37
1463.00,95.18
1462.00,94.98
1461.00,94.76
1460.00,94.51
1459.00,94.22
1458.00,93.87
1457.00,93.48
1456.00,93.18
1455.00,93.00
1454.00,92.88
1453.00,92.80
1452.00,92.76
1451.00,92.77
1450.00,92.81
1449.00,92.87
1448.00,92.94
1447.00,93.03
1446.00,93.14
1445.00,93.25
1444.00,93.38
1443.00,93.53
1442.00,93.68
1441.00,93.83
1440.00,93.97
1439.00,94.11
1438.00,94.25
1437.00,94.40
1436.00,94.56
1435.00,94.70
1434.00,94.80
1433.00,94.88
1432.00,94.97
1431.00,95.06
1430.00,95.16
1429.00,95.26
1428.00,95.33
1427.00,95.39
1426.00,95.44
1425.00,95.50
1424.00,95.56
1423.00,95.60
1422.00,95.64
1421.00,95.67
1420.00,95.70
1419.00,95.74
1418.00,95.78
1417.00,95.82
1416.00,95.85
1415.00,95.86
1414.00,95.88
1413.00,95.90
1412.00,95.91
1411.00,95.93
1410.00,95.94
1409.00,95.96
1408.00,95.98
1407.00,95.99
1406.00,96.00
1405.00,96.03
1404.00,96.05
1403.00,96.06
1402.00,96.06
1401.00,96.06
1400.00,96.06
1399.00,96.05
1398.00,96.03
1397.00,96.00
1396.00,95.97
1395.00,95.94
1394.00,95.92
1393.00,95.91
1392.00,95.89
1391.00,95.86
1390.00,95.82
1389.00,95.77
1388.00,95.70
1387.00,95.63
1386.00,95.55
1385.00,95.47
1384.00,95.37
1383.00,95.27
1382.00,95.15
1381.00,95.04
1380.00,94.92
1379.00,94.81
1378.00,94.71
1377.00,94.62
1376.00,94.55
1375.00,94.50
1374.00,94.45
1373.00,94.40
1372.00,94.37
1371.00,94.34
1370.00,94.31
1369.00,94.29
1368.00,94.28
1367.00,94.28
1366.00,94.29
1365.00,94.31
1364.00,94.35
1363.00,94.38
1362.00,94.40
1361.00,94.42
1360.00,94.43
1359.00,94.44
1358.00,94.47
1357.00,94.51
1356.00,94.55
1355.00,94.59
1354.00,94.61
1353.00,94.62
1352.00,94.65
1351.00,94.69
1350.00,94.74
1349.00,94.79
1348.00,94.84
1347.00,94.87
1346.00,94.91
1345.00,94.95
1344.00,95.00
1343.00,95.04
1342.00,95.09
1341.00,95.14
1340.00,95.18
1339.00,95.22
1338.00,95.26
1337.00,95.29
1336.00,95.31
1335.00,95.33
1334.00,95.34
1333.00,95.35
1332.00,95.37
1331.00,95.39
1330.00,95.41
1329.00,95.43
1328.00,95.44
1327.00,95.45
1326.00,95.46
1325.00,95.47
1324.00,95.47
1323.00,95.47
1322.00,95.46
1321.00,95.45
1320.00,95.44
1319.00,95.44
1318.00,95.43
1317.00,95.44
1316.00,95.43
1315.00,95.43
1314.00,95.42
1313.00,95.41
1312.00,95.40
1311.00,95.40
1310.00,95.38
1309.00,95.36
1308.00,95.35
1307.00,95.36
1306.00,95.37
1305.00,95.39
1304.00,95.41
1303.00,95.42
1302.00,95.43
1301.00,95.44
1300.00,95.45
1299.00,95.46
1298.00,95.46
1297.00,95.47
1296.00,95.48
1295.00,95.48
1294.00,95.48
1293.00,95.48
1292.00,95.49
1291.00,95.51
1290.00,95.52
1289.00,95.52
1288.00,95.52
1287.00,95.52
1286.00,95.52
1285.00,95.51
1284.00,95.52
1283.00,95.52
1282.00,95.52
1281.00,95.52
1280.00,95.52
1279.00,95.51
1278.00,95.50
1277.00,95.49
1276.00,95.48
1275.00,95.47
1274.00,95.44
1273.00,95.41
1272.00,95.38
1271.00,95.35
1270.00,95.31
1269.00,95.27
1268.00,95.23
1267.00,95.19
1266.00,95.14
1265.00,95.08
1264.00,95.01
1263.00,94.92
1262.00,94.82
1261.00,94.72
1260.00,94.61
1259.00,94.50
1258.00,94.39
1257.00,94.26
1256.00,94.13
1255.00,93.98
1254.00,93.84
1253.00,93.71
1252.00,93.57
1251.00,93.42
1250.00,93.26
1249.00,93.10
1248.00,92.93
1247.00,92.76
1246.00,92.59
1245.00,92.41
1244.00,92.25
1243.00,92.09
1242.00,91.94
1241.00,91.82
1240.00,91.71
1239.00,91.62
1238.00,91.54
1237.00,91.46
1236.00,91.39
1235.00,91.33
1234.00,91.28
1233.00,91.25
1232.00,91.24
1231.00,91.25
1230.00,91.27
1229.00,91.31
1228.00,91.37
1227.00,91.46
1226.00,91.57
1225.00,91.69
1224.00,91.81
1223.00,91.95
1222.00,92.10
1221.00,92.26
1220.00,92.43
1219.00,92.61
1218.00,92.81
1217.00,93.00
1216.00,93.17
1215.00,93.31
1214.00,93.44
1213.00,93.56
1212.00,93.67
1211.00,93.78
1210.00,93.87
1209.00,93.96
1208.00,94.05
1207.00,94.14
1206.00,94.25
1205.00,94.35
1204.00,94.43
1203.00,94.49
1202.00,94.53
1201.00,94.56
1200.00,94.58
1199.00,94.62
1198.00,94.66
1197.00,94.71
1196.00,94.74
1195.00,94.76
1194.00,94.78
1193.00,94.81
1192.00,94.83
1191.00,94.87
1190.00,94.90
1189.00,94.93
1188.00,94.95
1187.00,94.96
1186.00,94.98
1185.00,95.00
1184.00,95.02
1183.00,95.06
1182.00,95.09
1181.00,95.12
1180.00,95.12
1179.00,95.12
1178.00,95.13
1177.00,95.16
1176.00,95.20
1175.00,95.24
1174.00,95.28
1173.00,95.30
1172.00,95.32
1171.00,95.33
1170.00,95.34
1169.00,95.37
1168.00,95.40
1167.00,95.43
1166.00,95.44
1165.00,95.43
1164.00,95.42
1163.00,95.38
1162.00,95.34
1161.00,95.29
1160.00,95.25
1159.00,95.21
1158.00,95.18
1157.00,95.13
1156.00,95.07
1155.00,95.02
1154.00,94.99
1153.00,94.99
1152.00,95.02
1151.00,95.07
1150.00,95.12
1149.00,95.18
1148.00,95.23
1147.00,95.29
1146.00,95.34
1145.00,95.39
1144.00,95.45
1143.00,95.50
1142.00,95.54
1141.00,95.58
1140.00,95.60
1139.00,95.61
1138.00,95.61
1137.00,95.59
1136.00,95.57
1135.00,95.56
1134.00,95.56
1133.00,95.56
1132.00,95.55
1131.00,95.52
1130.00,95.48
1129.00,95.43
1128.00,95.40
1127.00,95.37
1126.00,95.34
1125.00,95.32
1124.00,95.30
1123.00,95.27
1122.00,95.23
1121.00,95.20
1120.00,95.16
1119.00,95.12
1118.00,95.08
1117.00,95.04
1116.00,95.03
1115.00,95.04
1114.00,95.08
1113.00,95.11
1112.00,95.10
1111.00,95.03
1110.00,94.95
1109.00,94.88
1108.00,94.86
1107.00,94.86
1106.00,94.86
1105.00,94.86
1104.00,94.84
1103.00,94.81
1102.00,94.78
1101.00,94.74
1100.00,94.71
1099.00,94.68
1098.00,94.65
1097.00,94.63
1096.00,94.62
1095.00,94.61
1094.00,94.59
1093.00,94.55
1092.00,94.51
1091.00,94.48
1090.00,94.46
1089.00,94.43
1088.00,94.38
1087.00,94.33
1086.00,94.29
1085.00,94.27
1084.00,94.28
1083.00,94.27
1082.00,94.23
1081.00,94.15
1080.00,94.05
1079.00,93.96
1078.00,93.90
1077.00,93.85
1076.00,93.82
1075.00,93.79
1074.00,93.76
1073.00,93.74
1072.00,93.73
1071.00,93.72
1070.00,93.72
1069.00,93.72
1068.00,93.73
1067.00,93.74
1066.00,93.77
1065.00,93.79
1064.00,93.81
1063.00,93.82
1062.00,93.83
1061.00,93.86
1060.00,93.90
1059.00,93.95
1058.00,94.00
1057.00,94.03
1056.00,94.05
1055.00,94.05
1054.00,94.06
1053.00,94.07
1052.00,94.07
1051.00,94.06
1050.00,94.03
1049.00,94.00
1048.00,93.96
1047.00,93.93
1046.00,93.92
1045.00,93.95
1044.00,93.98
1043.00,94.00
1042.00,94.01
1041.00,94.01
1040.00,94.00
1039.00,94.00
1038.00,94.00
1037.00,94.00
1036.00,94.00
1035.00,93.99
1034.00,93.98
1033.00,93.96
1032.00,93.96
1031.00,93.98
1030.00,94.00
1029.00,94.02
1028.00,94.02
1027.00,93.99
1026.00,93.97
1025.00,93.96
1024.00,93.97
1023.00,93.99
1022.00,94.02
1021.00,94.05
1020.00,94.09
1019.00,94.15
1018.00,94.22
1017.00,94.30
1016.00,94.38
1015.00,94.47
1014.00,94.55
1013.00,94.63
1012.00,94.70
1011.00,94.76
1010.00,94.81
1009.00,94.87
1008.00,94.94
1007.00,95.01
1006.00,95.07
1005.00,95.11
1004.00,95.13
1003.00,95.14
1002.00,95.16
1001.00,95.17
1000.00,95.20
999.00,95.23
998.00,95.26
997.00,95.29
996.00,95.32
995.00,95.33
994.00,95.32
993.00,95.32
992.00,95.33
991.00,95.34
990.00,95.35
989.00,95.34
988.00,95.34
987.00,95.35
986.00,95.36
985.00,95.37
984.00,95.38
983.00,95.38
982.00,95.39
981.00,95.40
980.00,95.41
979.00,95.42
978.00,95.41
977.00,95.41
976.00,95.40
975.00,95.41
974.00,95.42
973.00,95.44
972.00,95.45
971.00,95.45
970.00,95.46
969.00,95.46
968.00,95.46
967.00,95.46
966.00,95.47
965.00,95.47
964.00,95.48
963.00,95.49
962.00,95.49
961.00,95.48
960.00,95.48
959.00,95.48
958.00,95.48
957.00,95.48
956.00,95.47
955.00,95.44
954.00,95.43
953.00,95.42
952.00,95.42
951.00,95.44
950.00,95.45
949.00,95.45
948.00,95.43
947.00,95.39
946.00,95.35
945.00,95.33
944.00,95.30
943.00,95.28
942.00,95.26
941.00,95.25
940.00,95.27
939.00,95.29
938.00,95.29
937.00,95.28
936.00,95.26
935.00,95.24
934.00,95.23
933.00,95.24
932.00,95.28
931.00,95.32
930.00,95.35
929.00,95.39
928.00,95.43
927.00,95.47
926.00,95.50
925.00,95.52
924.00,95.53
923.00,95.54
922.00,95.55
921.00,95.56
920.00,95.56
919.00,95.56
918.00,95.56
917.00,95.55
916.00,95.55
915.00,95.57
914.00,95.60
913.00,95.62
912.00,95.63
911.00,95.62
910.00,95.61
909.00,95.59
908.00,95.58
907.00,95.59
906.00,95.62
905.00,95.65
904.00,95.68
903.00,95.71
902.00,95.71
901.00,95.70
900.00,95.69
899.00,95.69
898.00,95.69
897.00,95.70
896.00,95.70
895.00,95.69
894.00,95.68
893.00,95.66
892.00,95.66
891.00,95.68
890.00,95.70
889.00,95.73
888.00,95.74
887.00,95.74
886.00,95.74
885.00,95.74
884.00,95.75
883.00,95.75
882.00,95.74
881.00,95.73
880.00,95.72
879.00,95.73
878.00,95.75
877.00,95.77
876.00,95.80
875.00,95.82
874.00,95.81
873.00,95.80
872.00,95.77
871.00,95.76
870.00,95.76
869.00,95.77
868.00,95.76
867.00,95.75
866.00,95.74
865.00,95.75
864.00,95.76
863.00,95.76
862.00,95.74
861.00,95.72
860.00,95.72
859.00,95.72
858.00,95.73
857.00,95.73
856.00,95.74
855.00,95.76
854.00,95.80
853.00,95.84
852.00,95.86
851.00,95.86
850.00,95.84
849.00,95.80
848.00,95.78
847.00,95.76
846.00,95.74
845.00,95.70
844.00,95.68
843.00,95.70
842.00,95.75
841.00,95.81
840.00,95.83
839.00,95.82
838.00,95.78
837.00,95.72
836.00,95.68
835.00,95.66
834.00,95.67
833.00,95.67
832.00,95.65
831.00,95.62
830.00,95.61
829.00,95.63
828.00,95.66
827.00,95.68
826.00,95.69
825.00,95.69
824.00,95.68
823.00,95.66
822.00,95.65
821.00,95.65
820.00,95.68
819.00,95.72
818.00,95.78
817.00,95.82
816.00,95.83
815.00,95.80
814.00,95.74
813.00,95.70
812.00,95.70
811.00,95.72
810.00,95.72
809.00,95.72
808.00,95.71
807.00,95.70
806.00,95.69
805.00,95.68
804.00,95.66
803.00,95.64
802.00,95.62
801.00,95.61
800.00,95.60
799.00,95.58
798.00,95.56
797.00,95.55
796.00,95.56
795.00,95.57
794.00,95.58
793.00,95.59
792.00,95.60
791.00,95.60
790.00,95.57
789.00,95.54
788.00,95.52
787.00,95.50
786.00,95.50
785.00,95.52
784.00,95.54
783.00,95.56
782.00,95.57
781.00,95.57
780.00,95.56
779.00,95.54
778.00,95.52
777.00,95.50
776.00,95.49
775.00,95.48
774.00,95.47
773.00,95.47
772.00,95.48
771.00,95.47
770.00,95.46
769.00,95.45
768.00,95.44
767.00,95.43
766.00,95.41
765.00,95.38
764.00,95.38
763.00,95.42
762.00,95.47
761.00,95.53
760.00,95.57
759.00,95.58
758.00,95.57
757.00,95.53
756.00,95.49
755.00,95.47
754.00,95.47
753.00,95.50
752.00,95.53
751.00,95.56
750.00,95.58
749.00,95.59
748.00,95.59
747.00,95.60
746.00,95.62
745.00,95.65
744.00,95.68
743.00,95.71
742.00,95.75
741.00,95.78
740.00,95.79
739.00,95.79
738.00,95.78
737.00,95.77
736.00,95.75
735.00,95.72
734.00,95.69
733.00,95.70
732.00,95.73
731.00,95.77
730.00,95.82
729.00,95.86
728.00,95.88
727.00,95.87
726.00,95.81
725.00,95.75
724.00,95.73
723.00,95.75
722.00,95.79
721.00,95.81
720.00,95.83
719.00,95.84
718.00,95.86
717.00,95.87
716.00,95.88
715.00,95.89
714.00,95.88
713.00,95.85
712.00,95.84
711.00,95.85
710.00,95.88
709.00,95.94
708.00,95.97
707.00,95.98
706.00,95.97
705.00,95.95
704.00,95.92
703.00,95.90
702.00,95.88
701.00,95.86
700.00,95.85
699.00,95.83
698.00,95.78
697.00,95.74
696.00,95.72
695.00,95.74
694.00,95.77
693.00,95.79
692.00,95.80
691.00,95.82
690.00,95.86
689.00,95.89
688.00,95.90
687.00,95.89
686.00,95.86
685.00,95.84
684.00,95.86
683.00,95.88
682.00,95.90
681.00,95.88
680.00,95.83
679.00,95.78
678.00,95.73
677.00,95.68
676.00,95.63
675.00,95.60
674.00,95.58
673.00,95.59
672.00,95.60
671.00,95.58
670.00,95.55
669.00,95.55
668.00,95.64
667.00,95.73
666.00,95.76
665.00,95.79
664.00,95.80
663.00,95.76
662.00,95.69
661.00,95.62
660.00,95.55
659.00,95.50
658.00,95.47
657.00,95.48
656.00,95.51
655.00,95.54
654.00,95.58
653.00,95.64
652.00,95.73
651.00,95.81
650.00,95.88
649.00,95.92
648.00,95.94
647.00,95.89
646.00,95.79
645.00,95.72
644.00,95.74
643.00,95.80
642.00,95.82
641.00,95.74
640.00,95.63
639.00,95.54
638.00,95.51
637.00,95.55
636.00,95.66
635.00,95.81
634.00,95.93
633.00,95.92
632.00,95.81
631.00,95.66
630.00,95.57
629.00,95.57
628.00,95.61
627.00,95.61
626.00,95.52
625.00,95.37
624.00,95.21
623.00,95.10
622.00,95.11
621.00,95.23
620.00,95.41
619.00,95.56
618.00,95.64
617.00,95.70
616.00,95.85
615.00,96.11
614.00,96.39
613.00,96.54
612.00,96.48
611.00,96.25
610.00,96.01
609.00,95.84
608.00,95.73
607.00,95.60
606.00,95.46
605.00,95.29
604.00,95.08
603.00,94.81
602.00,94.56
601.00,94.43
600.00,94.41
599.00,94.40
598.00,94.33
597.00,94.27
596.00,94.36
595.00,94.63
594.00,94.97
593.00,95.23
592.00,95.33
591.00,95.30
590.00,95.26
589.00,95.36
588.00,95.60
587.00,95.83
586.00,95.92
585.00,95.91
584.00,95.93
583.00,95.99
582.00,95.96
581.00,95.82
580.00,95.64
579.00,95.36
578.00,94.90
577.00,94.38
576.00,94.15
575.00,94.40
574.00,94.87
573.00,95.19
572.00,95.23
571.00,95.12
570.00,94.96
569.00,94.89
568.00,95.00
567.00,95.21
566.00,95.24
565.00,94.96
564.00,94.62
563.00,94.58
562.00,94.95
561.00,95.59
560.00,96.29
559.00,96.82
558.00,97.05
557.00,96.98
556.00,96.84
555.00,96.80
554.00,96.81
553.00,96.70
552.00,96.40
551.00,95.97
550.00,95.42
