Created as New Dataset,17. Cyanenka SA
cm-1,%T
4000.00,100.01
3999.00,100.01
3998.00,100.01
3997.00,100.02
3996.00,100.02
3995.00,100.02
3994.00,100.02
3993.00,100.02
3992.00,100.01
3991.00,100.01
3990.00,100.02
3989.00,100.03
3988.00,100.05
3987.00,100.06
3986.00,100.06
3985.00,100.07
3984.00,100.08
3983.00,100.09
3982.00,100.10
3981.00,100.09
3980.00,100.08
3979.00,100.06
3978.00,100.06
3977.00,100.06
3976.00,100.06
3975.00,100.07
3974.00,100.06
3973.00,100.06
3972.00,100.05
3971.00,100.04
3970.00,100.03
3969.00,100.03
3968.00,100.02
3967.00,100.02
3966.00,100.03
3965.00,100.03
3964.00,100.04
3963.00,100.04
3962.00,100.05
3961.00,100.06
3960.00,100.07
3959.00,100.07
3958.00,100.06
3957.00,100.04
3956.00,100.03
3955.00,100.01
3954.00,100.00
3953.00,99.99
3952.00,100.00
3951.00,100.02
3950.00,100.04
3949.00,100.06
3948.00,100.08
3947.00,100.09
3946.00,100.10
3945.00,100.10
3944.00,100.09
3943.00,100.09
3942.00,100.09
3941.00,100.10
3940.00,100.11
3939.00,100.11
3938.00,100.09
3937.00,100.06
3936.00,100.04
3935.00,100.03
3934.00,100.02
3933.00,100.02
3932.00,100.02
3931.00,100.04
3930.00,100.06
3929.00,100.08
3928.00,100.09
3927.00,100.09
3926.00,100.07
3925.00,100.06
3924.00,100.04
3923.00,100.04
3922.00,100.05
3921.00,100.07
3920.00,100.08
3919.00,100.08
3918.00,100.08
3917.00,100.08
3916.00,100.08
3915.00,100.08
3914.00,100.07
3913.00,100.07
3912.00,100.06
3911.00,100.05
3910.00,100.05
3909.00,100.05
3908.00,100.06
3907.00,100.06
3906.00,100.07
3905.00,100.08
3904.00,100.09
3903.00,100.09
3902.00,100.08
3901.00,100.07
3900.00,100.07
3899.00,100.07
3898.00,100.07
3897.00,100.07
3896.00,100.07
3895.00,100.07
3894.00,100.08
3893.00,100.08
3892.00,100.08
3891.00,100.06
3890.00,100.05
3889.00,100.03
3888.00,100.03
3887.00,100.03
3886.00,100.03
3885.00,100.02
3884.00,100.01
3883.00,100.00
3882.00,99.99
3881.00,100.00
3880.00,100.02
3879.00,100.03
3878.00,100.05
3877.00,100.05
3876.00,100.05
3875.00,100.06
3874.00,100.08
3873.00,100.08
3872.00,100.07
3871.00,100.04
3870.00,100.02
3869.00,100.01
3868.00,100.01
3867.00,100.02
3866.00,100.02
3865.00,100.03
3864.00,100.04
3863.00,100.05
3862.00,100.05
3861.00,100.04
3860.00,100.01
3859.00,99.98
3858.00,99.95
3857.00,99.93
3856.00,99.94
3855.00,99.97
3854.00,100.03
3853.00,100.09
3852.00,100.13
3851.00,100.14
3850.00,100.12
3849.00,100.08
3848.00,100.06
3847.00,100.03
3846.00,100.01
3845.00,99.99
3844.00,99.99
3843.00,100.03
3842.00,100.07
3841.00,100.12
3840.00,100.16
3839.00,100.17
3838.00,100.15
3837.00,100.10
3836.00,100.05
3835.00,100.01
3834.00,99.98
3833.00,99.96
3832.00,99.97
3831.00,99.98
3830.00,100.00
3829.00,100.01
3828.00,100.02
3827.00,100.02
3826.00,100.01
3825.00,100.00
3824.00,99.98
3823.00,99.97
3822.00,99.98
3821.00,100.02
3820.00,100.05
3819.00,100.07
3818.00,100.06
3817.00,100.04
3816.00,100.02
3815.00,100.02
3814.00,100.02
3813.00,100.02
3812.00,100.02
3811.00,100.04
3810.00,100.06
3809.00,100.08
3808.00,100.09
3807.00,100.08
3806.00,100.06
3805.00,100.05
3804.00,100.03
3803.00,100.01
3802.00,99.99
3801.00,99.99
3800.00,100.00
3799.00,100.02
3798.00,100.02
3797.00,100.02
3796.00,100.02
3795.00,100.02
3794.00,100.01
3793.00,100.00
3792.00,99.99
3791.00,99.97
3790.00,99.97
3789.00,99.97
3788.00,99.99
3787.00,100.00
3786.00,100.02
3785.00,100.03
3784.00,100.03
3783.00,100.02
3782.00,100.00
3781.00,99.99
3780.00,100.00
3779.00,100.03
3778.00,100.05
3777.00,100.05
3776.00,100.04
3775.00,100.03
3774.00,100.04
3773.00,100.04
3772.00,100.04
3771.00,100.03
3770.00,100.03
3769.00,100.04
3768.00,100.05
3767.00,100.05
3766.00,100.05
3765.00,100.05
3764.00,100.06
3763.00,100.06
3762.00,100.06
3761.00,100.04
3760.00,100.02
3759.00,100.01
3758.00,100.01
3757.00,100.01
3756.00,100.02
3755.00,100.03
3754.00,100.03
3753.00,100.03
3752.00,100.01
3751.00,99.99
3750.00,100.00
3749.00,100.02
3748.00,100.04
3747.00,100.04
3746.00,100.02
3745.00,99.99
3744.00,99.98
3743.00,99.99
3742.00,100.00
3741.00,100.01
3740.00,100.02
3739.00,100.05
3738.00,100.08
3737.00,100.08
3736.00,100.04
3735.00,99.98
3734.00,99.93
3733.00,99.90
3732.00,99.89
3731.00,99.90
3730.00,99.92
3729.00,99.95
3728.00,99.98
3727.00,100.02
3726.00,100.07
3725.00,100.12
3724.00,100.14
3723.00,100.13
3722.00,100.11
3721.00,100.09
3720.00,100.08
3719.00,100.08
3718.00,100.09
3717.00,100.10
3716.00,100.09
3715.00,100.06
3714.00,100.02
3713.00,99.99
3712.00,99.98
3711.00,99.99
3710.00,99.99
3709.00,99.98
3708.00,99.97
3707.00,99.96
3706.00,99.97
3705.00,99.99
3704.00,100.01
3703.00,100.03
3702.00,100.04
3701.00,100.05
3700.00,100.04
3699.00,100.02
3698.00,100.01
3697.00,100.01
3696.00,100.02
3695.00,100.02
3694.00,100.03
3693.00,100.03
3692.00,100.03
3691.00,100.02
3690.00,100.01
3689.00,100.01
3688.00,100.01
3687.00,100.00
3686.00,99.99
3685.00,99.98
3684.00,99.98
3683.00,99.99
3682.00,99.99
3681.00,99.98
3680.00,99.98
3679.00,99.97
3678.00,99.98
3677.00,99.98
3676.00,99.97
3675.00,99.96
3674.00,99.96
3673.00,99.95
3672.00,99.93
3671.00,99.91
3670.00,99.88
3669.00,99.87
3668.00,99.87
3667.00,99.87
3666.00,99.87
3665.00,99.88
3664.00,99.89
3663.00,99.90
3662.00,99.89
3661.00,99.89
3660.00,99.88
3659.00,99.88
3658.00,99.88
3657.00,99.89
3656.00,99.92
3655.00,99.93
3654.00,99.94
3653.00,99.92
3652.00,99.89
3651.00,99.87
3650.00,99.88
3649.00,99.93
3648.00,99.97
3647.00,99.97
3646.00,99.94
3645.00,99.90
3644.00,99.85
3643.00,99.83
3642.00,99.83
3641.00,99.87
3640.00,99.91
3639.00,99.95
3638.00,99.98
3637.00,99.99
3636.00,99.99
3635.00,99.99
3634.00,99.98
3633.00,99.97
3632.00,99.96
3631.00,99.94
3630.00,99.93
3629.00,99.93
3628.00,99.94
3627.00,99.95
3626.00,99.94
3625.00,99.94
3624.00,99.94
3623.00,99.96
3622.00,99.98
3621.00,99.99
3620.00,99.97
3619.00,99.94
3618.00,99.91
3617.00,99.90
3616.00,99.91
3615.00,99.94
3614.00,99.96
3613.00,99.96
3612.00,99.92
3611.00,99.88
3610.00,99.84
3609.00,99.83
3608.00,99.85
3607.00,99.88
3606.00,99.91
3605.00,99.91
3604.00,99.91
3603.00,99.91
3602.00,99.92
3601.00,99.94
3600.00,99.96
3599.00,99.96
3598.00,99.94
3597.00,99.92
3596.00,99.90
3595.00,99.90
3594.00,99.90
3593.00,99.90
3592.00,99.89
3591.00,99.88
3590.00,99.88
3589.00,99.88
3588.00,99.89
3587.00,99.91
3586.00,99.94
3585.00,99.95
3584.00,99.94
3583.00,99.92
3582.00,99.90
3581.00,99.89
3580.00,99.88
3579.00,99.87
3578.00,99.86
3577.00,99.86
3576.00,99.86
3575.00,99.85
3574.00,99.85
3573.00,99.86
3572.00,99.88
3571.00,99.91
3570.00,99.92
3569.00,99.92
3568.00,99.92
3567.00,99.94
3566.00,99.96
3565.00,99.97
3564.00,99.97
3563.00,99.96
3562.00,99.96
3561.00,99.96
3560.00,99.96
3559.00,99.97
3558.00,99.97
3557.00,99.97
3556.00,99.96
3555.00,99.94
3554.00,99.93
3553.00,99.93
3552.00,99.93
3551.00,99.92
3550.00,99.91
3549.00,99.89
3548.00,99.88
3547.00,99.88
3546.00,99.89
3545.00,99.90
3544.00,99.91
3543.00,99.92
3542.00,99.93
3541.00,99.94
3540.00,99.95
3539.00,99.96
3538.00,99.96
3537.00,99.95
3536.00,99.93
3535.00,99.91
3534.00,99.90
3533.00,99.91
3532.00,99.92
3531.00,99.94
3530.00,99.94
3529.00,99.93
3528.00,99.93
3527.00,99.93
3526.00,99.93
3525.00,99.92
3524.00,99.91
3523.00,99.89
3522.00,99.88
3521.00,99.88
3520.00,99.90
3519.00,99.91
3518.00,99.93
3517.00,99.94
3516.00,99.94
3515.00,99.95
3514.00,99.97
3513.00,99.98
3512.00,99.98
3511.00,99.95
3510.00,99.91
3509.00,99.88
3508.00,99.87
3507.00,99.87
3506.00,99.87
3505.00,99.87
3504.00,99.87
3503.00,99.86
3502.00,99.87
3501.00,99.88
3500.00,99.89
3499.00,99.91
3498.00,99.93
3497.00,99.94
3496.00,99.94
3495.00,99.94
3494.00,99.94
3493.00,99.96
3492.00,99.98
3491.00,100.00
3490.00,100.00
3489.00,99.97
3488.00,99.93
3487.00,99.90
3486.00,99.89
3485.00,99.90
3484.00,99.90
3483.00,99.90
3482.00,99.90
3481.00,99.90
3480.00,99.91
3479.00,99.91
3478.00,99.91
3477.00,99.90
3476.00,99.89
3475.00,99.88
3474.00,99.88
3473.00,99.89
3472.00,99.91
3471.00,99.92
3470.00,99.93
3469.00,99.92
3468.00,99.92
3467.00,99.94
3466.00,99.97
3465.00,100.00
3464.00,100.01
3463.00,100.01
3462.00,99.99
3461.00,99.97
3460.00,99.96
3459.00,99.95
3458.00,99.94
3457.00,99.93
3456.00,99.93
3455.00,99.92
3454.00,99.92
3453.00,99.93
3452.00,99.95
3451.00,99.96
3450.00,99.95
3449.00,99.93
3448.00,99.90
3447.00,99.87
3446.00,99.86
3445.00,99.87
3444.00,99.90
3443.00,99.93
3442.00,99.97
3441.00,100.01
3440.00,100.03
3439.00,100.03
3438.00,100.00
3437.00,99.97
3436.00,99.94
3435.00,99.91
3434.00,99.89
3433.00,99.87
3432.00,99.87
3431.00,99.88
3430.00,99.90
3429.00,99.92
3428.00,99.94
3427.00,99.93
3426.00,99.92
3425.00,99.91
3424.00,99.90
3423.00,99.90
3422.00,99.91
3421.00,99.93
3420.00,99.94
3419.00,99.95
3418.00,99.95
3417.00,99.94
3416.00,99.92
3415.00,99.90
3414.00,99.89
3413.00,99.90
3412.00,99.93
3411.00,99.95
3410.00,99.95
3409.00,99.94
3408.00,99.92
3407.00,99.91
3406.00,99.91
3405.00,99.92
3404.00,99.92
3403.00,99.92
3402.00,99.92
3401.00,99.92
3400.00,99.92
3399.00,99.92
3398.00,99.93
3397.00,99.94
3396.00,99.96
3395.00,99.97
3394.00,99.98
3393.00,99.98
3392.00,99.96
3391.00,99.94
3390.00,99.92
3389.00,99.90
3388.00,99.88
3387.00,99.88
3386.00,99.88
3385.00,99.88
3384.00,99.90
3383.00,99.93
3382.00,99.96
3381.00,99.98
3380.00,99.98
3379.00,99.97
3378.00,99.95
3377.00,99.93
3376.00,99.93
3375.00,99.93
3374.00,99.94
3373.00,99.95
3372.00,99.96
3371.00,99.95
3370.00,99.93
3369.00,99.92
3368.00,99.91
3367.00,99.92
3366.00,99.93
3365.00,99.95
3364.00,99.97
3363.00,99.97
3362.00,99.96
3361.00,99.96
3360.00,99.96
3359.00,99.96
3358.00,99.95
3357.00,99.94
3356.00,99.93
3355.00,99.95
3354.00,99.97
3353.00,99.99
3352.00,100.00
3351.00,100.00
3350.00,99.99
3349.00,99.98
3348.00,99.96
3347.00,99.95
3346.00,99.94
3345.00,99.94
3344.00,99.95
3343.00,99.96
3342.00,99.97
3341.00,99.98
3340.00,99.97
3339.00,99.96
3338.00,99.96
3337.00,99.97
3336.00,99.99
3335.00,100.01
3334.00,100.02
3333.00,100.01
3332.00,100.00
3331.00,99.99
3330.00,99.98
3329.00,99.97
3328.00,99.96
3327.00,99.95
3326.00,99.94
3325.00,99.93
3324.00,99.92
3323.00,99.92
3322.00,99.92
3321.00,99.91
3320.00,99.89
3319.00,99.89
3318.00,99.89
3317.00,99.91
3316.00,99.94
3315.00,99.97
3314.00,100.01
3313.00,100.04
3312.00,100.05
3311.00,100.04
3310.00,100.02
3309.00,99.99
3308.00,99.97
3307.00,99.94
3306.00,99.92
3305.00,99.92
3304.00,99.93
3303.00,99.95
3302.00,99.96
3301.00,99.97
3300.00,99.97
3299.00,99.96
3298.00,99.95
3297.00,99.94
3296.00,99.93
3295.00,99.92
3294.00,99.92
3293.00,99.91
3292.00,99.91
3291.00,99.91
3290.00,99.92
3289.00,99.93
3288.00,99.95
3287.00,99.97
3286.00,99.99
3285.00,100.00
3284.00,99.99
3283.00,99.98
3282.00,99.96
3281.00,99.95
3280.00,99.94
3279.00,99.94
3278.00,99.94
3277.00,99.94
3276.00,99.95
3275.00,99.97
3274.00,99.99
3273.00,99.99
3272.00,99.98
3271.00,99.96
3270.00,99.96
3269.00,99.97
3268.00,99.98
3267.00,99.99
3266.00,99.99
3265.00,99.97
3264.00,99.96
3263.00,99.95
3262.00,99.95
3261.00,99.94
3260.00,99.92
3259.00,99.91
3258.00,99.90
3257.00,99.90
3256.00,99.91
3255.00,99.92
3254.00,99.92
3253.00,99.92
3252.00,99.94
3251.00,99.96
3250.00,99.98
3249.00,99.98
3248.00,99.97
3247.00,99.96
3246.00,99.96
3245.00,99.96
3244.00,99.96
3243.00,99.97
3242.00,99.97
3241.00,99.97
3240.00,99.96
3239.00,99.96
3238.00,99.96
3237.00,99.97
3236.00,99.98
3235.00,99.99
3234.00,99.99
3233.00,99.99
3232.00,100.00
3231.00,100.00
3230.00,100.00
3229.00,99.98
3228.00,99.96
3227.00,99.95
3226.00,99.95
3225.00,99.96
3224.00,99.97
3223.00,99.97
3222.00,99.97
3221.00,99.96
3220.00,99.97
3219.00,99.98
3218.00,100.00
3217.00,100.01
3216.00,100.00
3215.00,99.98
3214.00,99.94
3213.00,99.92
3212.00,99.91
3211.00,99.91
3210.00,99.92
3209.00,99.95
3208.00,99.97
3207.00,99.98
3206.00,99.98
3205.00,99.96
3204.00,99.94
3203.00,99.94
3202.00,99.96
3201.00,99.96
3200.00,99.96
3199.00,99.95
3198.00,99.95
3197.00,99.95
3196.00,99.96
3195.00,99.96
3194.00,99.95
3193.00,99.95
3192.00,99.95
3191.00,99.95
3190.00,99.96
3189.00,99.98
3188.00,100.01
3187.00,100.02
3186.00,100.02
3185.00,100.01
3184.00,99.99
3183.00,99.99
3182.00,100.00
3181.00,100.01
3180.00,100.01
3179.00,99.99
3178.00,99.97
3177.00,99.96
3176.00,99.96
3175.00,99.97
3174.00,99.97
3173.00,99.97
3172.00,99.96
3171.00,99.95
3170.00,99.96
3169.00,99.97
3168.00,99.98
3167.00,99.98
3166.00,99.96
3165.00,99.96
3164.00,99.96
3163.00,99.98
3162.00,99.99
3161.00,99.99
3160.00,99.97
3159.00,99.96
3158.00,99.94
3157.00,99.94
3156.00,99.94
3155.00,99.95
3154.00,99.96
3153.00,99.96
3152.00,99.96
3151.00,99.97
3150.00,99.98
3149.00,99.98
3148.00,99.98
3147.00,99.97
3146.00,99.97
3145.00,99.98
3144.00,99.99
3143.00,100.00
3142.00,99.99
3141.00,99.98
3140.00,99.97
3139.00,99.96
3138.00,99.96
3137.00,99.95
3136.00,99.95
3135.00,99.97
3134.00,99.99
3133.00,100.00
3132.00,100.00
3131.00,99.99
3130.00,99.98
3129.00,99.98
3128.00,99.99
3127.00,99.99
3126.00,99.99
3125.00,99.99
3124.00,99.99
3123.00,99.98
3122.00,99.97
3121.00,99.96
3120.00,99.96
3119.00,99.95
3118.00,99.95
3117.00,99.96
3116.00,99.97
3115.00,99.99
3114.00,99.99
3113.00,99.97
3112.00,99.94
3111.00,99.91
3110.00,99.90
3109.00,99.91
3108.00,99.94
3107.00,99.96
3106.00,99.97
3105.00,99.97
3104.00,99.96
3103.00,99.96
3102.00,99.97
3101.00,99.98
3100.00,99.98
3099.00,99.97
3098.00,99.96
3097.00,99.95
3096.00,99.94
3095.00,99.93
3094.00,99.92
3093.00,99.93
3092.00,99.94
3091.00,99.96
3090.00,99.97
3089.00,99.96
3088.00,99.95
3087.00,99.94
3086.00,99.93
3085.00,99.93
3084.00,99.93
3083.00,99.93
3082.00,99.93
3081.00,99.93
3080.00,99.93
3079.00,99.93
3078.00,99.93
3077.00,99.92
3076.00,99.93
3075.00,99.93
3074.00,99.94
3073.00,99.94
3072.00,99.95
3071.00,99.96
3070.00,99.97
3069.00,99.97
3068.00,99.96
3067.00,99.94
3066.00,99.93
3065.00,99.93
3064.00,99.94
3063.00,99.96
3062.00,99.96
3061.00,99.96
3060.00,99.95
3059.00,99.94
3058.00,99.94
3057.00,99.95
3056.00,99.95
3055.00,99.94
3054.00,99.92
3053.00,99.91
3052.00,99.90
3051.00,99.92
3050.00,99.94
3049.00,99.94
3048.00,99.94
3047.00,99.94
3046.00,99.94
3045.00,99.94
3044.00,99.94
3043.00,99.94
3042.00,99.94
3041.00,99.93
3040.00,99.92
3039.00,99.92
3038.00,99.91
3037.00,99.92
3036.00,99.93
3035.00,99.93
3034.00,99.93
3033.00,99.92
3032.00,99.92
3031.00,99.92
3030.00,99.92
3029.00,99.92
3028.00,99.91
3027.00,99.89
3026.00,99.89
3025.00,99.89
3024.00,99.90
3023.00,99.91
3022.00,99.91
3021.00,99.91
3020.00,99.90
3019.00,99.88
3018.00,99.86
3017.00,99.85
3016.00,99.85
3015.00,99.87
3014.00,99.89
3013.00,99.90
3012.00,99.91
3011.00,99.90
3010.00,99.89
3009.00,99.88
3008.00,99.88
3007.00,99.87
3006.00,99.87
3005.00,99.87
3004.00,99.86
3003.00,99.85
3002.00,99.84
3001.00,99.84
3000.00,99.84
2999.00,99.84
2998.00,99.85
2997.00,99.86
2996.00,99.87
2995.00,99.87
2994.00,99.86
2993.00,99.85
2992.00,99.84
2991.00,99.82
2990.00,99.81
2989.00,99.81
2988.00,99.81
2987.00,99.83
2986.00,99.84
2985.00,99.84
2984.00,99.83
2983.00,99.81
2982.00,99.79
2981.00,99.79
2980.00,99.80
2979.00,99.83
2978.00,99.84
2977.00,99.83
2976.00,99.81
2975.00,99.77
2974.00,99.75
2973.00,99.74
2972.00,99.75
2971.00,99.76
2970.00,99.76
2969.00,99.76
2968.00,99.76
2967.00,99.76
2966.00,99.76
2965.00,99.75
2964.00,99.74
2963.00,99.72
2962.00,99.71
2961.00,99.70
2960.00,99.68
2959.00,99.67
2958.00,99.66
2957.00,99.66
2956.00,99.67
2955.00,99.67
2954.00,99.68
2953.00,99.68
2952.00,99.69
2951.00,99.70
2950.00,99.70
2949.00,99.69
2948.00,99.68
2947.00,99.66
2946.00,99.65
2945.00,99.64
2944.00,99.63
2943.00,99.62
2942.00,99.61
2941.00,99.59
2940.00,99.58
2939.00,99.57
2938.00,99.55
2937.00,99.54
2936.00,99.53
2935.00,99.53
2934.00,99.53
2933.00,99.54
2932.00,99.55
2931.00,99.55
2930.00,99.54
2929.00,99.53
2928.00,99.51
2927.00,99.51
2926.00,99.52
2925.00,99.54
2924.00,99.56
2923.00,99.56
2922.00,99.54
2921.00,99.51
2920.00,99.49
2919.00,99.49
2918.00,99.51
2917.00,99.52
2916.00,99.52
2915.00,99.53
2914.00,99.53
2913.00,99.54
2912.00,99.56
2911.00,99.58
2910.00,99.60
2909.00,99.63
2908.00,99.65
2907.00,99.68
2906.00,99.69
2905.00,99.70
2904.00,99.70
2903.00,99.70
2902.00,99.70
2901.00,99.70
2900.00,99.71
2899.00,99.73
2898.00,99.74
2897.00,99.75
2896.00,99.75
2895.00,99.76
2894.00,99.75
2893.00,99.75
2892.00,99.75
2891.00,99.75
2890.00,99.75
2889.00,99.75
2888.00,99.74
2887.00,99.74
2886.00,99.74
2885.00,99.74
2884.00,99.74
2883.00,99.74
2882.00,99.73
2881.00,99.73
2880.00,99.74
2879.00,99.75
2878.00,99.76
2877.00,99.77
2876.00,99.77
2875.00,99.77
2874.00,99.77
2873.00,99.77
2872.00,99.78
2871.00,99.77
2870.00,99.76
2869.00,99.74
2868.00,99.74
2867.00,99.76
2866.00,99.78
2865.00,99.79
2864.00,99.79
2863.00,99.78
2862.00,99.77
2861.00,99.76
2860.00,99.76
2859.00,99.76
2858.00,99.76
2857.00,99.76
2856.00,99.76
2855.00,99.76
2854.00,99.75
2853.00,99.73
2852.00,99.71
2851.00,99.70
2850.00,99.71
2849.00,99.72
2848.00,99.75
2847.00,99.77
2846.00,99.78
2845.00,99.79
2844.00,99.80
2843.00,99.80
2842.00,99.80
2841.00,99.80
2840.00,99.82
2839.00,99.83
2838.00,99.85
2837.00,99.86
2836.00,99.86
2835.00,99.86
2834.00,99.86
2833.00,99.87
2832.00,99.88
2831.00,99.88
2830.00,99.88
2829.00,99.88
2828.00,99.89
2827.00,99.90
2826.00,99.91
2825.00,99.91
2824.00,99.90
2823.00,99.90
2822.00,99.90
2821.00,99.89
2820.00,99.87
2819.00,99.86
2818.00,99.84
2817.00,99.84
2816.00,99.84
2815.00,99.85
2814.00,99.86
2813.00,99.87
2812.00,99.89
2811.00,99.90
2810.00,99.91
2809.00,99.91
2808.00,99.92
2807.00,99.93
2806.00,99.92
2805.00,99.91
2804.00,99.88
2803.00,99.87
2802.00,99.87
2801.00,99.88
2800.00,99.89
2799.00,99.89
2798.00,99.88
2797.00,99.89
2796.00,99.90
2795.00,99.91
2794.00,99.93
2793.00,99.93
2792.00,99.93
2791.00,99.92
2790.00,99.91
2789.00,99.91
2788.00,99.90
2787.00,99.90
2786.00,99.89
2785.00,99.88
2784.00,99.88
2783.00,99.89
2782.00,99.90
2781.00,99.91
2780.00,99.92
2779.00,99.92
2778.00,99.92
2777.00,99.92
2776.00,99.93
2775.00,99.94
2774.00,99.95
2773.00,99.96
2772.00,99.96
2771.00,99.95
2770.00,99.95
2769.00,99.94
2768.00,99.93
2767.00,99.93
2766.00,99.93
2765.00,99.93
2764.00,99.93
2763.00,99.93
2762.00,99.93
2761.00,99.93
2760.00,99.93
2759.00,99.93
2758.00,99.92
2757.00,99.91
2756.00,99.90
2755.00,99.90
2754.00,99.92
2753.00,99.93
2752.00,99.94
2751.00,99.92
2750.00,99.91
2749.00,99.90
2748.00,99.89
2747.00,99.90
2746.00,99.90
2745.00,99.91
2744.00,99.91
2743.00,99.92
2742.00,99.92
2741.00,99.91
2740.00,99.91
2739.00,99.91
2738.00,99.91
2737.00,99.91
2736.00,99.90
2735.00,99.91
2734.00,99.91
2733.00,99.91
2732.00,99.92
2731.00,99.92
2730.00,99.92
2729.00,99.93
2728.00,99.94
2727.00,99.94
2726.00,99.93
2725.00,99.92
2724.00,99.91
2723.00,99.90
2722.00,99.89
2721.00,99.89
2720.00,99.89
2719.00,99.91
2718.00,99.93
2717.00,99.93
2716.00,99.93
2715.00,99.92
2714.00,99.91
2713.00,99.92
2712.00,99.94
2711.00,99.95
2710.00,99.95
2709.00,99.94
2708.00,99.92
2707.00,99.91
2706.00,99.91
2705.00,99.92
2704.00,99.92
2703.00,99.93
2702.00,99.94
2701.00,99.95
2700.00,99.96
2699.00,99.96
2698.00,99.96
2697.00,99.96
2696.00,99.95
2695.00,99.95
2694.00,99.95
2693.00,99.94
2692.00,99.93
2691.00,99.92
2690.00,99.92
2689.00,99.92
2688.00,99.93
2687.00,99.94
2686.00,99.94
2685.00,99.93
2684.00,99.92
2683.00,99.90
2682.00,99.90
2681.00,99.90
2680.00,99.90
2679.00,99.91
2678.00,99.91
2677.00,99.90
2676.00,99.89
2675.00,99.89
2674.00,99.89
2673.00,99.90
2672.00,99.90
2671.00,99.90
2670.00,99.90
2669.00,99.91
2668.00,99.92
2667.00,99.94
2666.00,99.95
2665.00,99.95
2664.00,99.94
2663.00,99.92
2662.00,99.91
2661.00,99.89
2660.00,99.88
2659.00,99.88
2658.00,99.88
2657.00,99.89
2656.00,99.88
2655.00,99.87
2654.00,99.86
2653.00,99.87
2652.00,99.88
2651.00,99.90
2650.00,99.92
2649.00,99.92
2648.00,99.93
2647.00,99.93
2646.00,99.93
2645.00,99.93
2644.00,99.92
2643.00,99.91
2642.00,99.90
2641.00,99.89
2640.00,99.89
2639.00,99.89
2638.00,99.90
2637.00,99.91
2636.00,99.92
2635.00,99.92
2634.00,99.91
2633.00,99.90
2632.00,99.89
2631.00,99.89
2630.00,99.89
2629.00,99.89
2628.00,99.88
2627.00,99.87
2626.00,99.87
2625.00,99.88
2624.00,99.89
2623.00,99.92
2622.00,99.94
2621.00,99.94
2620.00,99.94
2619.00,99.93
2618.00,99.92
2617.00,99.93
2616.00,99.93
2615.00,99.93
2614.00,99.91
2613.00,99.89
2612.00,99.88
2611.00,99.88
2610.00,99.90
2609.00,99.93
2608.00,99.94
2607.00,99.94
2606.00,99.94
2605.00,99.92
2604.00,99.90
2603.00,99.90
2602.00,99.91
2601.00,99.92
2600.00,99.93
2599.00,99.93
2598.00,99.93
2597.00,99.93
2596.00,99.92
2595.00,99.91
2594.00,99.90
2593.00,99.90
2592.00,99.91
2591.00,99.91
2590.00,99.90
2589.00,99.88
2588.00,99.86
2587.00,99.84
2586.00,99.86
2585.00,99.89
2584.00,99.93
2583.00,99.93
2582.00,99.92
2581.00,99.89
2580.00,99.86
2579.00,99.86
2578.00,99.87
2577.00,99.89
2576.00,99.89
2575.00,99.88
2574.00,99.87
2573.00,99.87
2572.00,99.87
2571.00,99.88
2570.00,99.89
2569.00,99.89
2568.00,99.90
2567.00,99.90
2566.00,99.90
2565.00,99.90
2564.00,99.90
2563.00,99.91
2562.00,99.91
2561.00,99.91
2560.00,99.90
2559.00,99.89
2558.00,99.89
2557.00,99.91
2556.00,99.93
2555.00,99.94
2554.00,99.93
2553.00,99.92
2552.00,99.91
2551.00,99.92
2550.00,99.93
2549.00,99.93
2548.00,99.93
2547.00,99.93
2546.00,99.93
2545.00,99.93
2544.00,99.93
2543.00,99.92
2542.00,99.92
2541.00,99.92
2540.00,99.91
2539.00,99.90
2538.00,99.89
2537.00,99.89
2536.00,99.90
2535.00,99.91
2534.00,99.91
2533.00,99.90
2532.00,99.90
2531.00,99.91
2530.00,99.92
2529.00,99.94
2528.00,99.94
2527.00,99.93
2526.00,99.92
2525.00,99.90
2524.00,99.89
2523.00,99.88
2522.00,99.88
2521.00,99.89
2520.00,99.89
2519.00,99.90
2518.00,99.90
2517.00,99.91
2516.00,99.92
2515.00,99.92
2514.00,99.92
2513.00,99.91
2512.00,99.91
2511.00,99.91
2510.00,99.92
2509.00,99.92
2508.00,99.92
2507.00,99.90
2506.00,99.90
2505.00,99.90
2504.00,99.91
2503.00,99.93
2502.00,99.94
2501.00,99.93
2500.00,99.92
2499.00,99.90
2498.00,99.88
2497.00,99.87
2496.00,99.87
2495.00,99.88
2494.00,99.89
2493.00,99.89
2492.00,99.88
2491.00,99.85
2490.00,99.84
2489.00,99.84
2488.00,99.86
2487.00,99.89
2486.00,99.91
2485.00,99.92
2484.00,99.93
2483.00,99.93
2482.00,99.91
2481.00,99.89
2480.00,99.89
2479.00,99.90
2478.00,99.91
2477.00,99.91
2476.00,99.91
2475.00,99.89
2474.00,99.88
2473.00,99.87
2472.00,99.86
2471.00,99.88
2470.00,99.89
2469.00,99.91
2468.00,99.91
2467.00,99.91
2466.00,99.89
2465.00,99.88
2464.00,99.87
2463.00,99.87
2462.00,99.88
2461.00,99.88
2460.00,99.88
2459.00,99.88
2458.00,99.88
2457.00,99.88
2456.00,99.86
2455.00,99.84
2454.00,99.84
2453.00,99.85
2452.00,99.86
2451.00,99.87
2450.00,99.88
2449.00,99.90
2448.00,99.91
2447.00,99.92
2446.00,99.92
2445.00,99.93
2444.00,99.92
2443.00,99.92
2442.00,99.91
2441.00,99.89
2440.00,99.88
2439.00,99.88
2438.00,99.89
2437.00,99.89
2436.00,99.88
2435.00,99.86
2434.00,99.84
2433.00,99.83
2432.00,99.83
2431.00,99.84
2430.00,99.85
2429.00,99.88
2428.00,99.89
2427.00,99.90
2426.00,99.91
2425.00,99.91
2424.00,99.91
2423.00,99.91
2422.00,99.91
2421.00,99.90
2420.00,99.90
2419.00,99.90
2418.00,99.88
2417.00,99.86
2416.00,99.86
2415.00,99.86
2414.00,99.88
2413.00,99.88
2412.00,99.88
2411.00,99.89
2410.00,99.89
2409.00,99.89
2408.00,99.89
2407.00,99.89
2406.00,99.88
2405.00,99.88
2404.00,99.89
2403.00,99.90
2402.00,99.90
2401.00,99.90
2400.00,99.89
2399.00,99.89
2398.00,99.90
2397.00,99.91
2396.00,99.92
2395.00,99.91
2394.00,99.90
2393.00,99.89
2392.00,99.88
2391.00,99.87
2390.00,99.85
2389.00,99.85
2388.00,99.85
2387.00,99.87
2386.00,99.90
2385.00,99.92
2384.00,99.93
2383.00,99.91
2382.00,99.89
2381.00,99.89
2380.00,99.90
2379.00,99.94
2378.00,99.97
2377.00,99.98
2376.00,99.96
2375.00,99.92
2374.00,99.87
2373.00,99.83
2372.00,99.81
2371.00,99.80
2370.00,99.81
2369.00,99.83
2368.00,99.86
2367.00,99.89
2366.00,99.93
2365.00,99.97
2364.00,100.00
2363.00,100.00
2362.00,99.96
2361.00,99.90
2360.00,99.83
2359.00,99.79
2358.00,99.79
2357.00,99.82
2356.00,99.85
2355.00,99.87
2354.00,99.88
2353.00,99.87
2352.00,99.85
2351.00,99.85
2350.00,99.87
2349.00,99.89
2348.00,99.90
2347.00,99.89
2346.00,99.88
2345.00,99.88
2344.00,99.89
2343.00,99.91
2342.00,99.91
2341.00,99.92
2340.00,99.92
2339.00,99.92
2338.00,99.90
2337.00,99.87
2336.00,99.82
2335.00,99.79
2334.00,99.79
2333.00,99.82
2332.00,99.87
2331.00,99.91
2330.00,99.93
2329.00,99.94
2328.00,99.95
2327.00,99.94
2326.00,99.92
2325.00,99.90
2324.00,99.88
2323.00,99.88
2322.00,99.90
2321.00,99.91
2320.00,99.91
2319.00,99.90
2318.00,99.88
2317.00,99.87
2316.00,99.87
2315.00,99.87
2314.00,99.87
2313.00,99.87
2312.00,99.85
2311.00,99.83
2310.00,99.81
2309.00,99.81
2308.00,99.81
2307.00,99.83
2306.00,99.84
2305.00,99.85
2304.00,99.86
2303.00,99.87
2302.00,99.88
2301.00,99.90
2300.00,99.90
2299.00,99.90
2298.00,99.89
2297.00,99.86
2296.00,99.83
2295.00,99.82
2294.00,99.82
2293.00,99.84
2292.00,99.86
2291.00,99.89
2290.00,99.92
2289.00,99.92
2288.00,99.90
2287.00,99.88
2286.00,99.87
2285.00,99.87
2284.00,99.87
2283.00,99.88
2282.00,99.88
2281.00,99.88
2280.00,99.88
2279.00,99.88
2278.00,99.89
2277.00,99.88
2276.00,99.86
2275.00,99.84
2274.00,99.82
2273.00,99.84
2272.00,99.87
2271.00,99.91
2270.00,99.93
2269.00,99.93
2268.00,99.91
2267.00,99.89
2266.00,99.88
2265.00,99.88
2264.00,99.89
2263.00,99.89
2262.00,99.89
2261.00,99.89
2260.00,99.87
2259.00,99.83
2258.00,99.77
2257.00,99.73
2256.00,99.70
2255.00,99.70
2254.00,99.71
2253.00,99.72
2252.00,99.69
2251.00,99.65
2250.00,99.59
2249.00,99.53
2248.00,99.46
2247.00,99.36
2246.00,99.23
2245.00,99.12
2244.00,99.04
2243.00,99.01
2242.00,99.02
2241.00,99.06
2240.00,99.13
2239.00,99.20
2238.00,99.25
2237.00,99.30
2236.00,99.36
2235.00,99.43
2234.00,99.51
2233.00,99.58
2232.00,99.63
2231.00,99.67
2230.00,99.71
2229.00,99.75
2228.00,99.77
2227.00,99.75
2226.00,99.71
2225.00,99.68
2224.00,99.69
2223.00,99.73
2222.00,99.78
2221.00,99.81
2220.00,99.82
2219.00,99.81
2218.00,99.80
2217.00,99.80
2216.00,99.82
2215.00,99.86
2214.00,99.89
2213.00,99.89
2212.00,99.87
2211.00,99.84
2210.00,99.82
2209.00,99.80
2208.00,99.79
2207.00,99.80
2206.00,99.83
2205.00,99.87
2204.00,99.87
2203.00,99.83
2202.00,99.76
2201.00,99.73
2200.00,99.76
2199.00,99.84
2198.00,99.92
2197.00,99.96
2196.00,99.97
2195.00,99.97
2194.00,99.97
2193.00,99.93
2192.00,99.86
2191.00,99.79
2190.00,99.75
2189.00,99.74
2188.00,99.72
2187.00,99.70
2186.00,99.69
2185.00,99.69
2184.00,99.71
2183.00,99.73
2182.00,99.76
2181.00,99.78
2180.00,99.80
2179.00,99.80
2178.00,99.80
2177.00,99.79
2176.00,99.79
2175.00,99.81
2174.00,99.85
2173.00,99.90
2172.00,99.93
2171.00,99.92
2170.00,99.89
2169.00,99.85
2168.00,99.83
2167.00,99.82
2166.00,99.82
2165.00,99.83
2164.00,99.84
2163.00,99.85
2162.00,99.90
2161.00,99.95
2160.00,100.00
2159.00,100.00
2158.00,99.98
2157.00,99.96
2156.00,99.95
2155.00,99.91
2154.00,99.86
2153.00,99.83
2152.00,99.82
2151.00,99.85
2150.00,99.90
2149.00,99.93
2148.00,99.94
2147.00,99.97
2146.00,100.00
2145.00,100.04
2144.00,100.05
2143.00,100.03
2142.00,99.97
2141.00,99.90
2140.00,99.85
2139.00,99.82
2138.00,99.78
2137.00,99.76
2136.00,99.76
2135.00,99.79
2134.00,99.85
2133.00,99.90
2132.00,99.92
2131.00,99.92
2130.00,99.91
2129.00,99.90
2128.00,99.89
2127.00,99.89
2126.00,99.89
2125.00,99.90
2124.00,99.90
2123.00,99.88
2122.00,99.88
2121.00,99.88
2120.00,99.89
2119.00,99.91
2118.00,99.90
2117.00,99.89
2116.00,99.85
2115.00,99.81
2114.00,99.78
2113.00,99.77
2112.00,99.80
2111.00,99.84
2110.00,99.87
2109.00,99.89
2108.00,99.88
2107.00,99.88
2106.00,99.88
2105.00,99.88
2104.00,99.87
2103.00,99.84
2102.00,99.83
2101.00,99.84
2100.00,99.85
2099.00,99.86
2098.00,99.86
2097.00,99.86
2096.00,99.87
2095.00,99.89
2094.00,99.89
2093.00,99.85
2092.00,99.80
2091.00,99.75
2090.00,99.73
2089.00,99.75
2088.00,99.77
2087.00,99.80
2086.00,99.83
2085.00,99.85
2084.00,99.87
2083.00,99.86
2082.00,99.83
2081.00,99.81
2080.00,99.80
2079.00,99.82
2078.00,99.82
2077.00,99.82
2076.00,99.81
2075.00,99.82
2074.00,99.82
2073.00,99.80
2072.00,99.76
2071.00,99.73
2070.00,99.73
2069.00,99.75
2068.00,99.77
2067.00,99.79
2066.00,99.81
2065.00,99.86
2064.00,99.90
2063.00,99.92
2062.00,99.91
2061.00,99.89
2060.00,99.88
2059.00,99.89
2058.00,99.92
2057.00,99.94
2056.00,99.93
2055.00,99.91
2054.00,99.87
2053.00,99.85
2052.00,99.84
2051.00,99.83
2050.00,99.83
2049.00,99.85
2048.00,99.86
2047.00,99.86
2046.00,99.83
2045.00,99.81
2044.00,99.80
2043.00,99.80
2042.00,99.79
2041.00,99.77
2040.00,99.76
2039.00,99.75
2038.00,99.72
2037.00,99.69
2036.00,99.67
2035.00,99.68
2034.00,99.74
2033.00,99.80
2032.00,99.83
2031.00,99.82
2030.00,99.81
2029.00,99.84
2028.00,99.89
2027.00,99.93
2026.00,99.90
2025.00,99.82
2024.00,99.75
2023.00,99.71
2022.00,99.70
2021.00,99.69
2020.00,99.67
2019.00,99.66
2018.00,99.65
2017.00,99.64
2016.00,99.66
2015.00,99.69
2014.00,99.73
2013.00,99.77
2012.00,99.80
2011.00,99.81
2010.00,99.80
2009.00,99.76
2008.00,99.71
2007.00,99.69
2006.00,99.70
2005.00,99.75
2004.00,99.81
2003.00,99.88
2002.00,99.93
2001.00,99.95
2000.00,99.94
1999.00,99.91
1998.00,99.88
1997.00,99.83
1996.00,99.77
1995.00,99.72
1994.00,99.67
1993.00,99.64
1992.00,99.64
1991.00,99.68
1990.00,99.77
1989.00,99.84
1988.00,99.87
1987.00,99.84
1986.00,99.80
1985.00,99.77
1984.00,99.77
1983.00,99.78
1982.00,99.77
1981.00,99.74
1980.00,99.72
1979.00,99.74
1978.00,99.82
1977.00,99.90
1976.00,99.94
1975.00,99.91
1974.00,99.87
1973.00,99.85
1972.00,99.86
1971.00,99.87
1970.00,99.87
1969.00,99.86
1968.00,99.85
1967.00,99.86
1966.00,99.90
1965.00,99.95
1964.00,99.98
1963.00,99.96
1962.00,99.92
1961.00,99.88
1960.00,99.84
1959.00,99.82
1958.00,99.81
1957.00,99.82
1956.00,99.84
1955.00,99.85
1954.00,99.86
1953.00,99.86
1952.00,99.85
1951.00,99.84
1950.00,99.82
1949.00,99.81
1948.00,99.79
1947.00,99.76
1946.00,99.73
1945.00,99.72
1944.00,99.73
1943.00,99.75
1942.00,99.76
1941.00,99.78
1940.00,99.80
1939.00,99.82
1938.00,99.82
1937.00,99.80
1936.00,99.78
1935.00,99.79
1934.00,99.83
1933.00,99.86
1932.00,99.88
1931.00,99.87
1930.00,99.84
1929.00,99.79
1928.00,99.75
1927.00,99.72
1926.00,99.70
1925.00,99.68
1924.00,99.68
1923.00,99.69
1922.00,99.72
1921.00,99.76
1920.00,99.79
1919.00,99.81
1918.00,99.81
1917.00,99.80
1916.00,99.78
1915.00,99.75
1914.00,99.72
1913.00,99.69
1912.00,99.69
1911.00,99.71
1910.00,99.73
1909.00,99.76
1908.00,99.78
1907.00,99.79
1906.00,99.81
1905.00,99.84
1904.00,99.86
1903.00,99.86
1902.00,99.82
1901.00,99.79
1900.00,99.76
1899.00,99.75
1898.00,99.76
1897.00,99.79
1896.00,99.83
1895.00,99.86
1894.00,99.86
1893.00,99.85
1892.00,99.82
1891.00,99.78
1890.00,99.75
1889.00,99.75
1888.00,99.76
1887.00,99.78
1886.00,99.80
1885.00,99.81
1884.00,99.81
1883.00,99.80
1882.00,99.80
1881.00,99.81
1880.00,99.82
1879.00,99.80
1878.00,99.75
1877.00,99.70
1876.00,99.69
1875.00,99.72
1874.00,99.79
1873.00,99.83
1872.00,99.84
1871.00,99.82
1870.00,99.79
1869.00,99.76
1868.00,99.77
1867.00,99.77
1866.00,99.77
1865.00,99.75
1864.00,99.74
1863.00,99.74
1862.00,99.74
1861.00,99.75
1860.00,99.76
1859.00,99.76
1858.00,99.77
1857.00,99.78
1856.00,99.80
1855.00,99.80
1854.00,99.79
1853.00,99.78
1852.00,99.76
1851.00,99.76
1850.00,99.77
1849.00,99.79
1848.00,99.80
1847.00,99.80
1846.00,99.80
1845.00,99.80
1844.00,99.79
1843.00,99.78
1842.00,99.77
1841.00,99.77
1840.00,99.78
1839.00,99.77
1838.00,99.76
1837.00,99.76
1836.00,99.77
1835.00,99.78
1834.00,99.79
1833.00,99.79
1832.00,99.78
1831.00,99.79
1830.00,99.81
1829.00,99.83
1828.00,99.82
1827.00,99.80
1826.00,99.77
1825.00,99.75
1824.00,99.74
1823.00,99.73
1822.00,99.72
1821.00,99.72
1820.00,99.72
1819.00,99.74
1818.00,99.77
1817.00,99.79
1816.00,99.80
1815.00,99.79
1814.00,99.78
1813.00,99.77
1812.00,99.76
1811.00,99.75
1810.00,99.75
1809.00,99.74
1808.00,99.74
1807.00,99.74
1806.00,99.74
1805.00,99.75
1804.00,99.77
1803.00,99.77
1802.00,99.77
1801.00,99.76
1800.00,99.74
1799.00,99.74
1798.00,99.75
1797.00,99.76
1796.00,99.77
1795.00,99.79
1794.00,99.80
1793.00,99.80
1792.00,99.79
1791.00,99.77
1790.00,99.77
1789.00,99.76
1788.00,99.76
1787.00,99.76
1786.00,99.75
1785.00,99.74
1784.00,99.74
1783.00,99.73
1782.00,99.73
1781.00,99.73
1780.00,99.72
1779.00,99.71
1778.00,99.71
1777.00,99.71
1776.00,99.71
1775.00,99.72
1774.00,99.73
1773.00,99.74
1772.00,99.74
1771.00,99.74
1770.00,99.75
1769.00,99.77
1768.00,99.79
1767.00,99.81
1766.00,99.81
1765.00,99.79
1764.00,99.76
1763.00,99.74
1762.00,99.73
1761.00,99.74
1760.00,99.76
1759.00,99.76
1758.00,99.75
1757.00,99.74
1756.00,99.74
1755.00,99.74
1754.00,99.74
1753.00,99.74
1752.00,99.73
1751.00,99.72
1750.00,99.71
1749.00,99.70
1748.00,99.67
1747.00,99.62
1746.00,99.57
1745.00,99.54
1744.00,99.51
1743.00,99.49
1742.00,99.44
1741.00,99.36
1740.00,99.28
1739.00,99.22
1738.00,99.17
1737.00,99.14
1736.00,99.09
1735.00,99.02
1734.00,98.94
1733.00,98.88
1732.00,98.85
1731.00,98.82
1730.00,98.79
1729.00,98.75
1728.00,98.71
1727.00,98.67
1726.00,98.64
1725.00,98.63
1724.00,98.64
1723.00,98.65
1722.00,98.66
1721.00,98.66
1720.00,98.67
1719.00,98.72
1718.00,98.80
1717.00,98.88
1716.00,98.94
1715.00,98.97
1714.00,99.00
1713.00,99.04
1712.00,99.08
1711.00,99.12
1710.00,99.16
1709.00,99.19
1708.00,99.21
1707.00,99.23
1706.00,99.26
1705.00,99.29
1704.00,99.32
1703.00,99.36
1702.00,99.39
1701.00,99.42
1700.00,99.45
1699.00,99.46
1698.00,99.47
1697.00,99.48
1696.00,99.50
1695.00,99.53
1694.00,99.54
1693.00,99.53
1692.00,99.52
1691.00,99.52
1690.00,99.52
1689.00,99.52
1688.00,99.51
1687.00,99.51
1686.00,99.51
1685.00,99.51
1684.00,99.53
1683.00,99.55
1682.00,99.56
1681.00,99.56
1680.00,99.57
1679.00,99.57
1678.00,99.57
1677.00,99.56
1676.00,99.55
1675.00,99.54
1674.00,99.55
1673.00,99.55
1672.00,99.56
1671.00,99.58
1670.00,99.60
1669.00,99.60
1668.00,99.59
1667.00,99.57
1666.00,99.57
1665.00,99.58
1664.00,99.59
1663.00,99.59
1662.00,99.59
1661.00,99.58
1660.00,99.57
1659.00,99.56
1658.00,99.56
1657.00,99.55
1656.00,99.55
1655.00,99.55
1654.00,99.56
1653.00,99.58
1652.00,99.58
1651.00,99.58
1650.00,99.57
1649.00,99.57
1648.00,99.57
1647.00,99.57
1646.00,99.55
1645.00,99.52
1644.00,99.50
1643.00,99.49
1642.00,99.51
1641.00,99.53
1640.00,99.55
1639.00,99.55
1638.00,99.52
1637.00,99.49
1636.00,99.46
1635.00,99.43
1634.00,99.42
1633.00,99.40
1632.00,99.40
1631.00,99.41
1630.00,99.42
1629.00,99.45
1628.00,99.48
1627.00,99.50
1626.00,99.52
1625.00,99.52
1624.00,99.51
1623.00,99.51
1622.00,99.51
1621.00,99.52
1620.00,99.51
1619.00,99.51
1618.00,99.51
1617.00,99.51
1616.00,99.52
1615.00,99.52
1614.00,99.53
1613.00,99.53
1612.00,99.53
1611.00,99.52
1610.00,99.51
1609.00,99.52
1608.00,99.53
1607.00,99.54
1606.00,99.54
1605.00,99.53
1604.00,99.53
1603.00,99.55
1602.00,99.57
1601.00,99.58
1600.00,99.59
1599.00,99.59
1598.00,99.58
1597.00,99.58
1596.00,99.58
1595.00,99.59
1594.00,99.59
1593.00,99.59
1592.00,99.59
1591.00,99.58
1590.00,99.57
1589.00,99.57
1588.00,99.57
1587.00,99.57
1586.00,99.56
1585.00,99.55
1584.00,99.55
1583.00,99.54
1582.00,99.53
1581.00,99.52
1580.00,99.52
1579.00,99.52
1578.00,99.53
1577.00,99.53
1576.00,99.54
1575.00,99.55
1574.00,99.56
1573.00,99.56
1572.00,99.57
1571.00,99.58
1570.00,99.59
1569.00,99.59
1568.00,99.59
1567.00,99.59
1566.00,99.59
1565.00,99.59
1564.00,99.58
1563.00,99.57
1562.00,99.56
1561.00,99.55
1560.00,99.55
1559.00,99.58
1558.00,99.60
1557.00,99.60
1556.00,99.60
1555.00,99.60
1554.00,99.60
1553.00,99.59
1552.00,99.59
1551.00,99.60
1550.00,99.61
1549.00,99.62
1548.00,99.61
1547.00,99.58
1546.00,99.56
1545.00,99.53
1544.00,99.52
1543.00,99.51
1542.00,99.51
1541.00,99.51
1540.00,99.50
1539.00,99.50
1538.00,99.50
1537.00,99.51
1536.00,99.52
1535.00,99.53
1534.00,99.55
1533.00,99.56
1532.00,99.58
1531.00,99.59
1530.00,99.59
1529.00,99.60
1528.00,99.61
1527.00,99.62
1526.00,99.64
1525.00,99.67
1524.00,99.69
1523.00,99.68
1522.00,99.66
1521.00,99.64
1520.00,99.63
1519.00,99.62
1518.00,99.62
1517.00,99.62
1516.00,99.63
1515.00,99.64
1514.00,99.65
1513.00,99.66
1512.00,99.66
1511.00,99.66
1510.00,99.65
1509.00,99.65
1508.00,99.64
1507.00,99.64
1506.00,99.64
1505.00,99.63
1504.00,99.63
1503.00,99.63
1502.00,99.63
1501.00,99.62
1500.00,99.61
1499.00,99.61
1498.00,99.63
1497.00,99.65
1496.00,99.66
1495.00,99.66
1494.00,99.65
1493.00,99.64
1492.00,99.63
1491.00,99.61
1490.00,99.60
1489.00,99.60
1488.00,99.61
1487.00,99.62
1486.00,99.62
1485.00,99.61
1484.00,99.59
1483.00,99.56
1482.00,99.53
1481.00,99.51
1480.00,99.49
1479.00,99.48
1478.00,99.46
1477.00,99.44
1476.00,99.42
1475.00,99.42
1474.00,99.42
1473.00,99.43
1472.00,99.42
1471.00,99.41
1470.00,99.38
1469.00,99.36
1468.00,99.34
1467.00,99.33
1466.00,99.32
1465.00,99.31
1464.00,99.29
1463.00,99.24
1462.00,99.18
1461.00,99.10
1460.00,99.01
1459.00,98.94
1458.00,98.85
1457.00,98.75
1456.00,98.64
1455.00,98.57
1454.00,98.52
1453.00,98.49
1452.00,98.47
1451.00,98.46
1450.00,98.46
1449.00,98.47
1448.00,98.50
1447.00,98.55
1446.00,98.59
1445.00,98.63
1444.00,98.67
1443.00,98.70
1442.00,98.74
1441.00,98.77
1440.00,98.80
1439.00,98.82
1438.00,98.84
1437.00,98.88
1436.00,98.93
1435.00,98.97
1434.00,99.00
1433.00,99.03
1432.00,99.05
1431.00,99.08
1430.00,99.11
1429.00,99.14
1428.00,99.17
1427.00,99.20
1426.00,99.23
1425.00,99.25
1424.00,99.26
1423.00,99.28
1422.00,99.29
1421.00,99.31
1420.00,99.34
1419.00,99.38
1418.00,99.40
1417.00,99.40
1416.00,99.40
1415.00,99.40
1414.00,99.41
1413.00,99.42
1412.00,99.44
1411.00,99.45
1410.00,99.46
1409.00,99.47
1408.00,99.48
1407.00,99.49
1406.00,99.50
1405.00,99.50
1404.00,99.50
1403.00,99.49
1402.00,99.48
1401.00,99.47
1400.00,99.46
1399.00,99.45
1398.00,99.44
1397.00,99.42
1396.00,99.39
1395.00,99.37
1394.00,99.35
1393.00,99.34
1392.00,99.33
1391.00,99.33
1390.00,99.33
1389.00,99.33
1388.00,99.34
1387.00,99.35
1386.00,99.36
1385.00,99.37
1384.00,99.37
1383.00,99.36
1382.00,99.34
1381.00,99.33
1380.00,99.32
1379.00,99.30
1378.00,99.28
1377.00,99.27
1376.00,99.26
1375.00,99.25
1374.00,99.24
1373.00,99.24
1372.00,99.24
1371.00,99.23
1370.00,99.22
1369.00,99.21
1368.00,99.19
1367.00,99.18
1366.00,99.16
1365.00,99.16
1364.00,99.16
1363.00,99.17
1362.00,99.17
1361.00,99.16
1360.00,99.15
1359.00,99.14
1358.00,99.14
1357.00,99.14
1356.00,99.14
1355.00,99.15
1354.00,99.16
1353.00,99.16
1352.00,99.16
1351.00,99.16
1350.00,99.16
1349.00,99.16
1348.00,99.15
1347.00,99.15
1346.00,99.16
1345.00,99.19
1344.00,99.21
1343.00,99.23
1342.00,99.23
1341.00,99.22
1340.00,99.22
1339.00,99.23
1338.00,99.25
1337.00,99.27
1336.00,99.28
1335.00,99.28
1334.00,99.27
1333.00,99.26
1332.00,99.26
1331.00,99.26
1330.00,99.28
1329.00,99.30
1328.00,99.31
1327.00,99.31
1326.00,99.30
1325.00,99.29
1324.00,99.28
1323.00,99.28
1322.00,99.28
1321.00,99.28
1320.00,99.28
1319.00,99.28
1318.00,99.28
1317.00,99.27
1316.00,99.25
1315.00,99.24
1314.00,99.25
1313.00,99.26
1312.00,99.27
1311.00,99.26
1310.00,99.24
1309.00,99.23
1308.00,99.23
1307.00,99.25
1306.00,99.27
1305.00,99.27
1304.00,99.27
1303.00,99.26
1302.00,99.25
1301.00,99.24
1300.00,99.23
1299.00,99.24
1298.00,99.24
1297.00,99.25
1296.00,99.26
1295.00,99.27
1294.00,99.28
1293.00,99.27
1292.00,99.26
1291.00,99.25
1290.00,99.25
1289.00,99.24
1288.00,99.22
1287.00,99.21
1286.00,99.21
1285.00,99.21
1284.00,99.22
1283.00,99.22
1282.00,99.22
1281.00,99.22
1280.00,99.22
1279.00,99.23
1278.00,99.23
1277.00,99.23
1276.00,99.22
1275.00,99.22
1274.00,99.21
1273.00,99.21
1272.00,99.21
1271.00,99.21
1270.00,99.20
1269.00,99.21
1268.00,99.21
1267.00,99.20
1266.00,99.20
1265.00,99.19
1264.00,99.18
1263.00,99.16
1262.00,99.14
1261.00,99.12
1260.00,99.11
1259.00,99.11
1258.00,99.11
1257.00,99.10
1256.00,99.08
1255.00,99.07
1254.00,99.06
1253.00,99.05
1252.00,99.05
1251.00,99.04
1250.00,99.04
1249.00,99.03
1248.00,99.00
1247.00,98.97
1246.00,98.94
1245.00,98.91
1244.00,98.89
1243.00,98.88
1242.00,98.88
1241.00,98.90
1240.00,98.92
1239.00,98.93
1238.00,98.92
1237.00,98.91
1236.00,98.89
1235.00,98.87
1234.00,98.85
1233.00,98.84
1232.00,98.81
1231.00,98.77
1230.00,98.73
1229.00,98.70
1228.00,98.68
1227.00,98.67
1226.00,98.65
1225.00,98.63
1224.00,98.61
1223.00,98.59
1222.00,98.59
1221.00,98.60
1220.00,98.61
1219.00,98.60
1218.00,98.58
1217.00,98.57
1216.00,98.56
1215.00,98.54
1214.00,98.52
1213.00,98.50
1212.00,98.50
1211.00,98.51
1210.00,98.53
1209.00,98.55
1208.00,98.57
1207.00,98.58
1206.00,98.59
1205.00,98.60
1204.00,98.61
1203.00,98.61
1202.00,98.63
1201.00,98.64
1200.00,98.66
1199.00,98.68
1198.00,98.72
1197.00,98.75
1196.00,98.77
1195.00,98.78
1194.00,98.79
1193.00,98.80
1192.00,98.82
1191.00,98.84
1190.00,98.85
1189.00,98.86
1188.00,98.87
1187.00,98.89
1186.00,98.92
1185.00,98.95
1184.00,98.97
1183.00,98.98
1182.00,98.98
1181.00,98.97
1180.00,98.98
1179.00,98.99
1178.00,98.99
1177.00,98.98
1176.00,98.97
1175.00,98.98
1174.00,99.00
1173.00,99.02
1172.00,99.03
1171.00,99.04
1170.00,99.05
1169.00,99.07
1168.00,99.07
1167.00,99.05
1166.00,99.04
1165.00,99.04
1164.00,99.04
1163.00,99.03
1162.00,99.03
1161.00,99.03
1160.00,99.05
1159.00,99.05
1158.00,99.06
1157.00,99.07
1156.00,99.10
1155.00,99.13
1154.00,99.14
1153.00,99.14
1152.00,99.13
1151.00,99.13
1150.00,99.15
1149.00,99.16
1148.00,99.16
1147.00,99.16
1146.00,99.16
1145.00,99.14
1144.00,99.10
1143.00,99.07
1142.00,99.05
1141.00,99.05
1140.00,99.03
1139.00,99.00
1138.00,98.95
1137.00,98.90
1136.00,98.88
1135.00,98.88
1134.00,98.88
1133.00,98.87
1132.00,98.84
1131.00,98.81
1130.00,98.77
1129.00,98.73
1128.00,98.71
1127.00,98.70
1126.00,98.68
1125.00,98.68
1124.00,98.68
1123.00,98.70
1122.00,98.72
1121.00,98.76
1120.00,98.81
1119.00,98.85
1118.00,98.89
1117.00,98.92
1116.00,98.92
1115.00,98.92
1114.00,98.92
1113.00,98.93
1112.00,98.95
1111.00,98.97
1110.00,98.98
1109.00,99.00
1108.00,99.02
1107.00,99.04
1106.00,99.04
1105.00,99.01
1104.00,98.99
1103.00,98.99
1102.00,99.01
1101.00,99.03
1100.00,99.05
1099.00,99.05
1098.00,99.05
1097.00,99.06
1096.00,99.09
1095.00,99.12
1094.00,99.13
1093.00,99.12
1092.00,99.07
1091.00,99.03
1090.00,99.00
1089.00,99.00
1088.00,99.00
1087.00,99.02
1086.00,99.04
1085.00,99.05
1084.00,99.05
1083.00,99.06
1082.00,99.06
1081.00,99.06
1080.00,99.05
1079.00,99.02
1078.00,98.99
1077.00,98.96
1076.00,98.94
1075.00,98.92
1074.00,98.89
1073.00,98.87
1072.00,98.87
1071.00,98.89
1070.00,98.91
1069.00,98.92
1068.00,98.93
1067.00,98.92
1066.00,98.92
1065.00,98.92
1064.00,98.94
1063.00,98.99
1062.00,99.04
1061.00,99.07
1060.00,99.07
1059.00,99.06
1058.00,99.05
1057.00,99.04
1056.00,99.04
1055.00,99.04
1054.00,99.04
1053.00,99.03
1052.00,99.04
1051.00,99.04
1050.00,99.06
1049.00,99.07
1048.00,99.08
1047.00,99.08
1046.00,99.07
1045.00,99.05
1044.00,99.04
1043.00,99.04
1042.00,99.05
1041.00,99.05
1040.00,99.04
1039.00,99.03
1038.00,99.03
1037.00,99.05
1036.00,99.08
1035.00,99.12
1034.00,99.16
1033.00,99.20
1032.00,99.22
1031.00,99.22
1030.00,99.20
1029.00,99.18
1028.00,99.17
1027.00,99.18
1026.00,99.18
1025.00,99.17
1024.00,99.14
1023.00,99.13
1022.00,99.13
1021.00,99.15
1020.00,99.18
1019.00,99.21
1018.00,99.23
1017.00,99.22
1016.00,99.21
1015.00,99.20
1014.00,99.19
1013.00,99.19
1012.00,99.19
1011.00,99.20
1010.00,99.21
1009.00,99.23
1008.00,99.23
1007.00,99.22
1006.00,99.20
1005.00,99.18
1004.00,99.17
1003.00,99.15
1002.00,99.15
1001.00,99.16
1000.00,99.17
999.00,99.17
998.00,99.16
997.00,99.15
996.00,99.15
995.00,99.14
994.00,99.14
993.00,99.13
992.00,99.13
991.00,99.13
990.00,99.14
989.00,99.15
988.00,99.13
987.00,99.12
986.00,99.12
985.00,99.11
984.00,99.11
983.00,99.10
982.00,99.10
981.00,99.10
980.00,99.10
979.00,99.10
978.00,99.10
977.00,99.11
976.00,99.12
975.00,99.12
974.00,99.13
973.00,99.14
972.00,99.15
971.00,99.16
970.00,99.19
969.00,99.21
968.00,99.23
967.00,99.22
966.00,99.21
965.00,99.21
964.00,99.22
963.00,99.23
962.00,99.24
961.00,99.25
960.00,99.25
959.00,99.24
958.00,99.20
957.00,99.17
956.00,99.15
955.00,99.14
954.00,99.15
953.00,99.16
952.00,99.18
951.00,99.20
950.00,99.22
949.00,99.23
948.00,99.24
947.00,99.25
946.00,99.25
945.00,99.24
944.00,99.22
943.00,99.19
942.00,99.18
941.00,99.18
940.00,99.19
939.00,99.21
938.00,99.24
937.00,99.26
936.00,99.27
935.00,99.27
934.00,99.25
933.00,99.22
932.00,99.19
931.00,99.16
930.00,99.14
929.00,99.14
928.00,99.14
927.00,99.16
926.00,99.18
925.00,99.21
924.00,99.23
923.00,99.25
922.00,99.27
921.00,99.29
920.00,99.28
919.00,99.26
918.00,99.24
917.00,99.23
916.00,99.24
915.00,99.26
914.00,99.28
913.00,99.30
912.00,99.30
911.00,99.29
910.00,99.29
909.00,99.29
908.00,99.29
907.00,99.28
906.00,99.26
905.00,99.25
904.00,99.25
903.00,99.24
902.00,99.23
901.00,99.23
900.00,99.23
899.00,99.22
898.00,99.21
897.00,99.21
896.00,99.23
895.00,99.25
894.00,99.26
893.00,99.25
892.00,99.23
891.00,99.22
890.00,99.22
889.00,99.24
888.00,99.26
887.00,99.27
886.00,99.27
885.00,99.27
884.00,99.27
883.00,99.27
882.00,99.25
881.00,99.23
880.00,99.23
879.00,99.24
878.00,99.25
877.00,99.28
876.00,99.31
875.00,99.33
874.00,99.34
873.00,99.34
872.00,99.33
871.00,99.30
870.00,99.26
869.00,99.22
868.00,99.20
867.00,99.21
866.00,99.21
865.00,99.21
864.00,99.21
863.00,99.22
862.00,99.25
861.00,99.27
860.00,99.27
859.00,99.27
858.00,99.26
857.00,99.27
856.00,99.28
855.00,99.28
854.00,99.30
853.00,99.32
852.00,99.34
851.00,99.34
850.00,99.32
849.00,99.28
848.00,99.26
847.00,99.26
846.00,99.27
845.00,99.29
844.00,99.32
843.00,99.33
842.00,99.33
841.00,99.34
840.00,99.33
839.00,99.32
838.00,99.30
837.00,99.28
836.00,99.26
835.00,99.24
834.00,99.23
833.00,99.22
832.00,99.23
831.00,99.25
830.00,99.27
829.00,99.28
828.00,99.27
827.00,99.27
826.00,99.26
825.00,99.25
824.00,99.26
823.00,99.26
822.00,99.27
821.00,99.27
820.00,99.28
819.00,99.30
818.00,99.31
817.00,99.31
816.00,99.30
815.00,99.28
814.00,99.27
813.00,99.27
812.00,99.27
811.00,99.26
810.00,99.24
809.00,99.22
808.00,99.22
807.00,99.25
806.00,99.30
805.00,99.34
804.00,99.33
803.00,99.30
802.00,99.26
801.00,99.24
800.00,99.23
799.00,99.21
798.00,99.18
797.00,99.16
796.00,99.18
795.00,99.23
794.00,99.27
793.00,99.30
792.00,99.29
791.00,99.26
790.00,99.23
789.00,99.23
788.00,99.25
787.00,99.28
786.00,99.30
785.00,99.30
784.00,99.29
783.00,99.28
782.00,99.28
781.00,99.27
780.00,99.25
779.00,99.24
778.00,99.24
777.00,99.23
776.00,99.22
775.00,99.21
774.00,99.21
773.00,99.21
772.00,99.18
771.00,99.15
770.00,99.13
769.00,99.16
768.00,99.21
767.00,99.27
766.00,99.29
765.00,99.28
764.00,99.27
763.00,99.26
762.00,99.26
761.00,99.27
760.00,99.29
759.00,99.30
758.00,99.32
757.00,99.32
756.00,99.30
755.00,99.27
754.00,99.25
753.00,99.24
752.00,99.25
751.00,99.24
750.00,99.25
749.00,99.28
748.00,99.34
747.00,99.39
746.00,99.42
745.00,99.41
744.00,99.37
743.00,99.34
742.00,99.34
741.00,99.37
740.00,99.44
739.00,99.48
738.00,99.46
737.00,99.39
736.00,99.35
735.00,99.36
734.00,99.44
733.00,99.55
732.00,99.63
731.00,99.64
730.00,99.59
729.00,99.55
728.00,99.54
727.00,99.55
726.00,99.55
725.00,99.51
724.00,99.45
723.00,99.40
722.00,99.40
721.00,99.42
720.00,99.46
719.00,99.49
718.00,99.51
717.00,99.50
716.00,99.48
715.00,99.46
714.00,99.47
713.00,99.49
712.00,99.50
711.00,99.47
710.00,99.43
709.00,99.40
708.00,99.40
707.00,99.43
706.00,99.47
705.00,99.48
704.00,99.48
703.00,99.50
702.00,99.55
701.00,99.62
700.00,99.66
699.00,99.65
698.00,99.61
697.00,99.56
696.00,99.52
695.00,99.50
694.00,99.48
693.00,99.47
692.00,99.46
691.00,99.45
690.00,99.46
689.00,99.49
688.00,99.51
687.00,99.49
686.00,99.44
685.00,99.40
684.00,99.39
683.00,99.41
682.00,99.42
681.00,99.44
680.00,99.46
679.00,99.49
678.00,99.52
677.00,99.54
676.00,99.53
675.00,99.49
674.00,99.45
673.00,99.42
672.00,99.42
671.00,99.47
670.00,99.58
669.00,99.71
668.00,99.75
667.00,99.64
666.00,99.53
665.00,99.51
664.00,99.54
663.00,99.59
662.00,99.64
661.00,99.67
660.00,99.65
659.00,99.58
658.00,99.50
657.00,99.47
656.00,99.51
655.00,99.57
654.00,99.58
653.00,99.55
652.00,99.51
651.00,99.49
650.00,99.48
649.00,99.46
648.00,99.41
647.00,99.35
646.00,99.28
645.00,99.25
644.00,99.29
643.00,99.41
642.00,99.56
641.00,99.68
640.00,99.73
639.00,99.73
638.00,99.73
637.00,99.78
636.00,99.85
635.00,99.87
634.00,99.82
633.00,99.75
632.00,99.68
631.00,99.60
630.00,99.52
629.00,99.46
628.00,99.45
627.00,99.45
626.00,99.41
625.00,99.29
624.00,99.16
623.00,99.08
622.00,99.05
621.00,99.02
620.00,98.93
619.00,98.83
618.00,98.79
617.00,98.89
616.00,99.11
615.00,99.36
614.00,99.56
613.00,99.67
612.00,99.66
611.00,99.62
610.00,99.70
609.00,99.94
608.00,100.16
607.00,100.19
606.00,100.00
605.00,99.71
604.00,99.34
603.00,98.85
602.00,98.31
601.00,97.97
600.00,97.98
599.00,98.27
598.00,98.59
597.00,98.77
596.00,98.86
595.00,98.91
594.00,98.92
593.00,98.82
592.00,98.63
591.00,98.48
590.00,98.56
589.00,98.94
588.00,99.53
587.00,100.11
586.00,100.51
585.00,100.70
584.00,100.81
583.00,100.88
582.00,100.87
581.00,100.65
580.00,100.16
579.00,99.48
578.00,98.97
577.00,98.95
576.00,99.35
575.00,99.73
574.00,99.81
573.00,99.72
572.00,99.72
571.00,99.78
570.00,99.67
569.00,99.37
568.00,99.10
567.00,99.01
566.00,99.07
565.00,99.11
564.00,99.02
563.00,98.85
562.00,98.83
561.00,99.14
560.00,99.68
559.00,100.07
558.00,100.06
557.00,99.85
556.00,99.71
555.00,99.63
554.00,99.50
553.00,99.36
552.00,99.38
551.00,99.46
550.00,99.42
