Created as New Dataset,17. Cyanenka SA
cm-1,%T
4000.00,98.99
3999.00,98.97
3998.00,98.96
3997.00,98.95
3996.00,98.95
3995.00,98.94
3994.00,98.94
3993.00,98.93
3992.00,98.93
3991.00,98.94
3990.00,98.95
3989.00,98.96
3988.00,98.97
3987.00,98.96
3986.00,98.95
3985.00,98.94
3984.00,98.94
3983.00,98.94
3982.00,98.95
3981.00,98.95
3980.00,98.96
3979.00,98.97
3978.00,98.99
3977.00,99.00
3976.00,99.00
3975.00,98.98
3974.00,98.95
3973.00,98.93
3972.00,98.92
3971.00,98.94
3970.00,98.96
3969.00,98.97
3968.00,98.97
3967.00,98.96
3966.00,98.94
3965.00,98.93
3964.00,98.92
3963.00,98.91
3962.00,98.91
3961.00,98.91
3960.00,98.91
3959.00,98.92
3958.00,98.92
3957.00,98.93
3956.00,98.94
3955.00,98.95
3954.00,98.97
3953.00,98.98
3952.00,99.00
3951.00,99.00
3950.00,99.00
3949.00,99.00
3948.00,99.01
3947.00,99.00
3946.00,98.99
3945.00,98.97
3944.00,98.95
3943.00,98.94
3942.00,98.93
3941.00,98.94
3940.00,98.95
3939.00,98.95
3938.00,98.95
3937.00,98.95
3936.00,98.93
3935.00,98.92
3934.00,98.91
3933.00,98.91
3932.00,98.91
3931.00,98.90
3930.00,98.89
3929.00,98.89
3928.00,98.89
3927.00,98.89
3926.00,98.90
3925.00,98.90
3924.00,98.89
3923.00,98.89
3922.00,98.89
3921.00,98.89
3920.00,98.88
3919.00,98.87
3918.00,98.86
3917.00,98.87
3916.00,98.88
3915.00,98.90
3914.00,98.92
3913.00,98.95
3912.00,98.97
3911.00,98.98
3910.00,98.97
3909.00,98.95
3908.00,98.93
3907.00,98.91
3906.00,98.91
3905.00,98.93
3904.00,98.94
3903.00,98.93
3902.00,98.91
3901.00,98.89
3900.00,98.89
3899.00,98.90
3898.00,98.90
3897.00,98.90
3896.00,98.89
3895.00,98.89
3894.00,98.89
3893.00,98.90
3892.00,98.93
3891.00,98.95
3890.00,98.97
3889.00,98.97
3888.00,98.96
3887.00,98.96
3886.00,98.96
3885.00,98.96
3884.00,98.95
3883.00,98.93
3882.00,98.93
3881.00,98.94
3880.00,98.94
3879.00,98.94
3878.00,98.92
3877.00,98.91
3876.00,98.91
3875.00,98.93
3874.00,98.92
3873.00,98.89
3872.00,98.84
3871.00,98.81
3870.00,98.82
3869.00,98.84
3868.00,98.86
3867.00,98.87
3866.00,98.88
3865.00,98.89
3864.00,98.88
3863.00,98.87
3862.00,98.87
3861.00,98.90
3860.00,98.93
3859.00,98.95
3858.00,98.96
3857.00,98.94
3856.00,98.91
3855.00,98.90
3854.00,98.91
3853.00,98.92
3852.00,98.93
3851.00,98.92
3850.00,98.91
3849.00,98.90
3848.00,98.90
3847.00,98.90
3846.00,98.91
3845.00,98.91
3844.00,98.91
3843.00,98.91
3842.00,98.92
3841.00,98.93
3840.00,98.93
3839.00,98.92
3838.00,98.90
3837.00,98.88
3836.00,98.87
3835.00,98.88
3834.00,98.88
3833.00,98.87
3832.00,98.85
3831.00,98.83
3830.00,98.82
3829.00,98.82
3828.00,98.83
3827.00,98.85
3826.00,98.86
3825.00,98.85
3824.00,98.82
3823.00,98.79
3822.00,98.77
3821.00,98.76
3820.00,98.74
3819.00,98.72
3818.00,98.71
3817.00,98.73
3816.00,98.76
3815.00,98.77
3814.00,98.77
3813.00,98.76
3812.00,98.75
3811.00,98.74
3810.00,98.72
3809.00,98.72
3808.00,98.74
3807.00,98.77
3806.00,98.78
3805.00,98.76
3804.00,98.73
3803.00,98.71
3802.00,98.74
3801.00,98.77
3800.00,98.79
3799.00,98.79
3798.00,98.78
3797.00,98.77
3796.00,98.75
3795.00,98.73
3794.00,98.71
3793.00,98.70
3792.00,98.70
3791.00,98.71
3790.00,98.73
3789.00,98.75
3788.00,98.77
3787.00,98.77
3786.00,98.76
3785.00,98.73
3784.00,98.70
3783.00,98.68
3782.00,98.68
3781.00,98.70
3780.00,98.71
3779.00,98.72
3778.00,98.71
3777.00,98.70
3776.00,98.69
3775.00,98.68
3774.00,98.68
3773.00,98.68
3772.00,98.70
3771.00,98.72
3770.00,98.72
3769.00,98.69
3768.00,98.65
3767.00,98.63
3766.00,98.65
3765.00,98.68
3764.00,98.70
3763.00,98.70
3762.00,98.68
3761.00,98.66
3760.00,98.63
3759.00,98.60
3758.00,98.59
3757.00,98.60
3756.00,98.61
3755.00,98.63
3754.00,98.67
3753.00,98.70
3752.00,98.71
3751.00,98.69
3750.00,98.67
3749.00,98.66
3748.00,98.66
3747.00,98.65
3746.00,98.67
3745.00,98.70
3744.00,98.70
3743.00,98.66
3742.00,98.63
3741.00,98.60
3740.00,98.58
3739.00,98.57
3738.00,98.58
3737.00,98.61
3736.00,98.63
3735.00,98.63
3734.00,98.61
3733.00,98.59
3732.00,98.57
3731.00,98.56
3730.00,98.54
3729.00,98.52
3728.00,98.50
3727.00,98.49
3726.00,98.48
3725.00,98.47
3724.00,98.47
3723.00,98.48
3722.00,98.49
3721.00,98.50
3720.00,98.51
3719.00,98.52
3718.00,98.52
3717.00,98.51
3716.00,98.49
3715.00,98.47
3714.00,98.45
3713.00,98.44
3712.00,98.43
3711.00,98.41
3710.00,98.41
3709.00,98.41
3708.00,98.42
3707.00,98.43
3706.00,98.42
3705.00,98.41
3704.00,98.41
3703.00,98.41
3702.00,98.42
3701.00,98.42
3700.00,98.41
3699.00,98.39
3698.00,98.38
3697.00,98.38
3696.00,98.38
3695.00,98.39
3694.00,98.39
3693.00,98.40
3692.00,98.41
3691.00,98.42
3690.00,98.43
3689.00,98.45
3688.00,98.45
3687.00,98.45
3686.00,98.44
3685.00,98.41
3684.00,98.39
3683.00,98.37
3682.00,98.36
3681.00,98.37
3680.00,98.40
3679.00,98.40
3678.00,98.37
3677.00,98.34
3676.00,98.33
3675.00,98.32
3674.00,98.32
3673.00,98.32
3672.00,98.32
3671.00,98.32
3670.00,98.30
3669.00,98.26
3668.00,98.22
3667.00,98.19
3666.00,98.18
3665.00,98.18
3664.00,98.18
3663.00,98.18
3662.00,98.18
3661.00,98.16
3660.00,98.13
3659.00,98.11
3658.00,98.10
3657.00,98.10
3656.00,98.09
3655.00,98.07
3654.00,98.04
3653.00,98.02
3652.00,98.03
3651.00,98.05
3650.00,98.04
3649.00,98.01
3648.00,97.98
3647.00,97.96
3646.00,97.95
3645.00,97.95
3644.00,97.95
3643.00,97.96
3642.00,97.97
3641.00,97.98
3640.00,97.98
3639.00,97.97
3638.00,97.96
3637.00,97.95
3636.00,97.97
3635.00,98.00
3634.00,98.04
3633.00,98.04
3632.00,98.03
3631.00,98.00
3630.00,97.99
3629.00,97.97
3628.00,97.94
3627.00,97.91
3626.00,97.90
3625.00,97.90
3624.00,97.90
3623.00,97.89
3622.00,97.89
3621.00,97.89
3620.00,97.91
3619.00,97.94
3618.00,97.96
3617.00,97.96
3616.00,97.95
3615.00,97.94
3614.00,97.92
3613.00,97.91
3612.00,97.91
3611.00,97.92
3610.00,97.94
3609.00,97.94
3608.00,97.92
3607.00,97.90
3606.00,97.90
3605.00,97.92
3604.00,97.94
3603.00,97.96
3602.00,97.97
3601.00,97.97
3600.00,97.97
3599.00,97.97
3598.00,97.98
3597.00,97.99
3596.00,98.01
3595.00,98.01
3594.00,98.00
3593.00,97.97
3592.00,97.95
3591.00,97.94
3590.00,97.94
3589.00,97.95
3588.00,97.95
3587.00,97.95
3586.00,97.95
3585.00,97.98
3584.00,98.01
3583.00,98.03
3582.00,98.04
3581.00,98.04
3580.00,98.04
3579.00,98.03
3578.00,98.02
3577.00,98.02
3576.00,98.04
3575.00,98.07
3574.00,98.12
3573.00,98.15
3572.00,98.15
3571.00,98.12
3570.00,98.08
3569.00,98.05
3568.00,98.03
3567.00,98.04
3566.00,98.05
3565.00,98.06
3564.00,98.06
3563.00,98.05
3562.00,98.05
3561.00,98.04
3560.00,98.05
3559.00,98.04
3558.00,98.04
3557.00,98.02
3556.00,98.01
3555.00,98.00
3554.00,97.99
3553.00,98.00
3552.00,98.02
3551.00,98.03
3550.00,98.03
3549.00,98.02
3548.00,98.01
3547.00,98.00
3546.00,98.01
3545.00,98.02
3544.00,98.03
3543.00,98.03
3542.00,98.01
3541.00,97.99
3540.00,97.98
3539.00,97.98
3538.00,97.98
3537.00,97.99
3536.00,98.01
3535.00,98.02
3534.00,98.02
3533.00,98.03
3532.00,98.03
3531.00,98.03
3530.00,98.03
3529.00,98.04
3528.00,98.05
3527.00,98.04
3526.00,98.03
3525.00,98.01
3524.00,98.01
3523.00,98.01
3522.00,98.02
3521.00,98.03
3520.00,98.05
3519.00,98.07
3518.00,98.08
3517.00,98.08
3516.00,98.06
3515.00,98.03
3514.00,98.01
3513.00,98.00
3512.00,98.01
3511.00,98.05
3510.00,98.09
3509.00,98.12
3508.00,98.13
3507.00,98.13
3506.00,98.12
3505.00,98.11
3504.00,98.09
3503.00,98.08
3502.00,98.07
3501.00,98.07
3500.00,98.07
3499.00,98.07
3498.00,98.07
3497.00,98.07
3496.00,98.08
3495.00,98.09
3494.00,98.11
3493.00,98.11
3492.00,98.11
3491.00,98.11
3490.00,98.11
3489.00,98.12
3488.00,98.13
3487.00,98.15
3486.00,98.17
3485.00,98.17
3484.00,98.16
3483.00,98.15
3482.00,98.14
3481.00,98.14
3480.00,98.14
3479.00,98.14
3478.00,98.13
3477.00,98.12
3476.00,98.12
3475.00,98.12
3474.00,98.13
3473.00,98.14
3472.00,98.15
3471.00,98.16
3470.00,98.17
3469.00,98.17
3468.00,98.17
3467.00,98.17
3466.00,98.18
3465.00,98.19
3464.00,98.20
3463.00,98.20
3462.00,98.19
3461.00,98.17
3460.00,98.15
3459.00,98.13
3458.00,98.12
3457.00,98.13
3456.00,98.14
3455.00,98.13
3454.00,98.11
3453.00,98.09
3452.00,98.08
3451.00,98.09
3450.00,98.10
3449.00,98.10
3448.00,98.09
3447.00,98.09
3446.00,98.09
3445.00,98.11
3444.00,98.12
3443.00,98.13
3442.00,98.13
3441.00,98.13
3440.00,98.14
3439.00,98.15
3438.00,98.17
3437.00,98.18
3436.00,98.19
3435.00,98.19
3434.00,98.19
3433.00,98.18
3432.00,98.17
3431.00,98.17
3430.00,98.17
3429.00,98.17
3428.00,98.16
3427.00,98.14
3426.00,98.13
3425.00,98.13
3424.00,98.14
3423.00,98.16
3422.00,98.17
3421.00,98.17
3420.00,98.16
3419.00,98.16
3418.00,98.16
3417.00,98.17
3416.00,98.18
3415.00,98.18
3414.00,98.19
3413.00,98.20
3412.00,98.21
3411.00,98.24
3410.00,98.25
3409.00,98.26
3408.00,98.25
3407.00,98.23
3406.00,98.21
3405.00,98.21
3404.00,98.22
3403.00,98.23
3402.00,98.24
3401.00,98.24
3400.00,98.24
3399.00,98.22
3398.00,98.21
3397.00,98.21
3396.00,98.21
3395.00,98.21
3394.00,98.21
3393.00,98.21
3392.00,98.21
3391.00,98.22
3390.00,98.22
3389.00,98.22
3388.00,98.22
3387.00,98.21
3386.00,98.20
3385.00,98.19
3384.00,98.19
3383.00,98.19
3382.00,98.19
3381.00,98.20
3380.00,98.22
3379.00,98.23
3378.00,98.24
3377.00,98.24
3376.00,98.23
3375.00,98.22
3374.00,98.21
3373.00,98.20
3372.00,98.20
3371.00,98.21
3370.00,98.23
3369.00,98.24
3368.00,98.24
3367.00,98.24
3366.00,98.24
3365.00,98.24
3364.00,98.24
3363.00,98.23
3362.00,98.22
3361.00,98.22
3360.00,98.23
3359.00,98.25
3358.00,98.27
3357.00,98.28
3356.00,98.28
3355.00,98.26
3354.00,98.24
3353.00,98.22
3352.00,98.21
3351.00,98.21
3350.00,98.22
3349.00,98.23
3348.00,98.25
3347.00,98.26
3346.00,98.27
3345.00,98.28
3344.00,98.28
3343.00,98.28
3342.00,98.27
3341.00,98.25
3340.00,98.24
3339.00,98.24
3338.00,98.25
3337.00,98.27
3336.00,98.29
3335.00,98.28
3334.00,98.26
3333.00,98.23
3332.00,98.21
3331.00,98.20
3330.00,98.20
3329.00,98.22
3328.00,98.23
3327.00,98.24
3326.00,98.24
3325.00,98.22
3324.00,98.21
3323.00,98.20
3322.00,98.22
3321.00,98.23
3320.00,98.24
3319.00,98.23
3318.00,98.22
3317.00,98.21
3316.00,98.21
3315.00,98.22
3314.00,98.23
3313.00,98.24
3312.00,98.24
3311.00,98.23
3310.00,98.22
3309.00,98.22
3308.00,98.22
3307.00,98.23
3306.00,98.22
3305.00,98.21
3304.00,98.19
3303.00,98.17
3302.00,98.15
3301.00,98.15
3300.00,98.15
3299.00,98.16
3298.00,98.17
3297.00,98.18
3296.00,98.20
3295.00,98.21
3294.00,98.22
3293.00,98.22
3292.00,98.21
3291.00,98.20
3290.00,98.19
3289.00,98.17
3288.00,98.16
3287.00,98.17
3286.00,98.18
3285.00,98.20
3284.00,98.19
3283.00,98.17
3282.00,98.15
3281.00,98.13
3280.00,98.13
3279.00,98.15
3278.00,98.16
3277.00,98.17
3276.00,98.18
3275.00,98.17
3274.00,98.15
3273.00,98.15
3272.00,98.15
3271.00,98.16
3270.00,98.17
3269.00,98.17
3268.00,98.15
3267.00,98.12
3266.00,98.11
3265.00,98.11
3264.00,98.14
3263.00,98.17
3262.00,98.18
3261.00,98.16
3260.00,98.15
3259.00,98.14
3258.00,98.14
3257.00,98.14
3256.00,98.13
3255.00,98.13
3254.00,98.14
3253.00,98.16
3252.00,98.18
3251.00,98.20
3250.00,98.19
3249.00,98.18
3248.00,98.16
3247.00,98.15
3246.00,98.15
3245.00,98.16
3244.00,98.17
3243.00,98.17
3242.00,98.18
3241.00,98.18
3240.00,98.16
3239.00,98.13
3238.00,98.09
3237.00,98.07
3236.00,98.06
3235.00,98.07
3234.00,98.09
3233.00,98.10
3232.00,98.11
3231.00,98.10
3230.00,98.10
3229.00,98.10
3228.00,98.10
3227.00,98.10
3226.00,98.09
3225.00,98.10
3224.00,98.10
3223.00,98.11
3222.00,98.11
3221.00,98.12
3220.00,98.14
3219.00,98.16
3218.00,98.17
3217.00,98.16
3216.00,98.14
3215.00,98.13
3214.00,98.14
3213.00,98.16
3212.00,98.19
3211.00,98.19
3210.00,98.18
3209.00,98.16
3208.00,98.13
3207.00,98.13
3206.00,98.14
3205.00,98.16
3204.00,98.18
3203.00,98.19
3202.00,98.19
3201.00,98.19
3200.00,98.19
3199.00,98.20
3198.00,98.21
3197.00,98.21
3196.00,98.20
3195.00,98.18
3194.00,98.17
3193.00,98.16
3192.00,98.16
3191.00,98.15
3190.00,98.15
3189.00,98.14
3188.00,98.14
3187.00,98.14
3186.00,98.14
3185.00,98.15
3184.00,98.16
3183.00,98.16
3182.00,98.17
3181.00,98.17
3180.00,98.17
3179.00,98.17
3178.00,98.16
3177.00,98.16
3176.00,98.16
3175.00,98.16
3174.00,98.15
3173.00,98.14
3172.00,98.13
3171.00,98.13
3170.00,98.15
3169.00,98.17
3168.00,98.18
3167.00,98.19
3166.00,98.19
3165.00,98.19
3164.00,98.19
3163.00,98.19
3162.00,98.18
3161.00,98.18
3160.00,98.19
3159.00,98.21
3158.00,98.22
3157.00,98.23
3156.00,98.22
3155.00,98.21
3154.00,98.21
3153.00,98.21
3152.00,98.21
3151.00,98.21
3150.00,98.22
3149.00,98.22
3148.00,98.20
3147.00,98.18
3146.00,98.17
3145.00,98.17
3144.00,98.18
3143.00,98.19
3142.00,98.20
3141.00,98.20
3140.00,98.19
3139.00,98.19
3138.00,98.19
3137.00,98.20
3136.00,98.20
3135.00,98.19
3134.00,98.19
3133.00,98.18
3132.00,98.18
3131.00,98.18
3130.00,98.18
3129.00,98.17
3128.00,98.16
3127.00,98.16
3126.00,98.17
3125.00,98.19
3124.00,98.20
3123.00,98.19
3122.00,98.17
3121.00,98.16
3120.00,98.16
3119.00,98.17
3118.00,98.18
3117.00,98.19
3116.00,98.18
3115.00,98.18
3114.00,98.18
3113.00,98.18
3112.00,98.18
3111.00,98.19
3110.00,98.20
3109.00,98.21
3108.00,98.22
3107.00,98.22
3106.00,98.21
3105.00,98.19
3104.00,98.18
3103.00,98.17
3102.00,98.18
3101.00,98.18
3100.00,98.18
3099.00,98.18
3098.00,98.18
3097.00,98.19
3096.00,98.19
3095.00,98.19
3094.00,98.17
3093.00,98.15
3092.00,98.13
3091.00,98.11
3090.00,98.09
3089.00,98.09
3088.00,98.09
3087.00,98.10
3086.00,98.11
3085.00,98.14
3084.00,98.16
3083.00,98.18
3082.00,98.20
3081.00,98.21
3080.00,98.21
3079.00,98.21
3078.00,98.20
3077.00,98.18
3076.00,98.16
3075.00,98.15
3074.00,98.15
3073.00,98.15
3072.00,98.16
3071.00,98.16
3070.00,98.17
3069.00,98.16
3068.00,98.15
3067.00,98.14
3066.00,98.13
3065.00,98.12
3064.00,98.12
3063.00,98.11
3062.00,98.12
3061.00,98.14
3060.00,98.16
3059.00,98.18
3058.00,98.17
3057.00,98.15
3056.00,98.11
3055.00,98.08
3054.00,98.06
3053.00,98.07
3052.00,98.08
3051.00,98.10
3050.00,98.11
3049.00,98.12
3048.00,98.13
3047.00,98.13
3046.00,98.12
3045.00,98.10
3044.00,98.07
3043.00,98.06
3042.00,98.05
3041.00,98.05
3040.00,98.04
3039.00,98.05
3038.00,98.06
3037.00,98.07
3036.00,98.08
3035.00,98.08
3034.00,98.08
3033.00,98.07
3032.00,98.06
3031.00,98.05
3030.00,98.04
3029.00,98.03
3028.00,98.03
3027.00,98.06
3026.00,98.09
3025.00,98.11
3024.00,98.11
3023.00,98.09
3022.00,98.06
3021.00,98.04
3020.00,98.02
3019.00,98.01
3018.00,98.01
3017.00,98.01
3016.00,98.01
3015.00,98.01
3014.00,97.98
3013.00,97.96
3012.00,97.94
3011.00,97.93
3010.00,97.92
3009.00,97.91
3008.00,97.89
3007.00,97.86
3006.00,97.84
3005.00,97.82
3004.00,97.81
3003.00,97.80
3002.00,97.78
3001.00,97.76
3000.00,97.74
2999.00,97.72
2998.00,97.71
2997.00,97.69
2996.00,97.68
2995.00,97.68
2994.00,97.68
2993.00,97.68
2992.00,97.68
2991.00,97.68
2990.00,97.68
2989.00,97.66
2988.00,97.64
2987.00,97.62
2986.00,97.60
2985.00,97.59
2984.00,97.59
2983.00,97.58
2982.00,97.57
2981.00,97.56
2980.00,97.56
2979.00,97.56
2978.00,97.57
2977.00,97.58
2976.00,97.60
2975.00,97.61
2974.00,97.61
2973.00,97.60
2972.00,97.58
2971.00,97.55
2970.00,97.53
2969.00,97.50
2968.00,97.46
2967.00,97.43
2966.00,97.40
2965.00,97.39
2964.00,97.37
2963.00,97.34
2962.00,97.29
2961.00,97.24
2960.00,97.21
2959.00,97.18
2958.00,97.15
2957.00,97.12
2956.00,97.08
2955.00,97.05
2954.00,97.01
2953.00,96.98
2952.00,96.95
2951.00,96.92
2950.00,96.89
2949.00,96.85
2948.00,96.81
2947.00,96.77
2946.00,96.74
2945.00,96.72
2944.00,96.71
2943.00,96.69
2942.00,96.66
2941.00,96.62
2940.00,96.60
2939.00,96.58
2938.00,96.57
2937.00,96.56
2936.00,96.55
2935.00,96.54
2934.00,96.52
2933.00,96.49
2932.00,96.47
2931.00,96.47
2930.00,96.48
2929.00,96.49
2928.00,96.50
2927.00,96.48
2926.00,96.45
2925.00,96.42
2924.00,96.40
2923.00,96.39
2922.00,96.40
2921.00,96.43
2920.00,96.47
2919.00,96.51
2918.00,96.55
2917.00,96.60
2916.00,96.67
2915.00,96.76
2914.00,96.85
2913.00,96.92
2912.00,96.98
2911.00,97.02
2910.00,97.06
2909.00,97.12
2908.00,97.17
2907.00,97.23
2906.00,97.28
2905.00,97.31
2904.00,97.33
2903.00,97.34
2902.00,97.37
2901.00,97.40
2900.00,97.44
2899.00,97.48
2898.00,97.50
2897.00,97.53
2896.00,97.54
2895.00,97.56
2894.00,97.57
2893.00,97.57
2892.00,97.58
2891.00,97.60
2890.00,97.61
2889.00,97.63
2888.00,97.64
2887.00,97.65
2886.00,97.65
2885.00,97.65
2884.00,97.64
2883.00,97.64
2882.00,97.63
2881.00,97.63
2880.00,97.64
2879.00,97.65
2878.00,97.65
2877.00,97.65
2876.00,97.65
2875.00,97.65
2874.00,97.65
2873.00,97.65
2872.00,97.64
2871.00,97.63
2870.00,97.62
2869.00,97.62
2868.00,97.62
2867.00,97.62
2866.00,97.62
2865.00,97.63
2864.00,97.64
2863.00,97.65
2862.00,97.64
2861.00,97.63
2860.00,97.63
2859.00,97.64
2858.00,97.65
2857.00,97.66
2856.00,97.66
2855.00,97.65
2854.00,97.64
2853.00,97.63
2852.00,97.63
2851.00,97.63
2850.00,97.65
2849.00,97.68
2848.00,97.73
2847.00,97.77
2846.00,97.81
2845.00,97.83
2844.00,97.84
2843.00,97.86
2842.00,97.88
2841.00,97.90
2840.00,97.92
2839.00,97.93
2838.00,97.95
2837.00,97.97
2836.00,97.99
2835.00,98.00
2834.00,98.01
2833.00,98.01
2832.00,98.02
2831.00,98.03
2830.00,98.04
2829.00,98.05
2828.00,98.06
2827.00,98.07
2826.00,98.07
2825.00,98.08
2824.00,98.09
2823.00,98.09
2822.00,98.09
2821.00,98.08
2820.00,98.08
2819.00,98.07
2818.00,98.06
2817.00,98.06
2816.00,98.07
2815.00,98.07
2814.00,98.08
2813.00,98.08
2812.00,98.09
2811.00,98.10
2810.00,98.11
2809.00,98.12
2808.00,98.12
2807.00,98.12
2806.00,98.12
2805.00,98.12
2804.00,98.12
2803.00,98.12
2802.00,98.11
2801.00,98.11
2800.00,98.12
2799.00,98.13
2798.00,98.14
2797.00,98.14
2796.00,98.15
2795.00,98.15
2794.00,98.15
2793.00,98.14
2792.00,98.14
2791.00,98.13
2790.00,98.14
2789.00,98.14
2788.00,98.14
2787.00,98.14
2786.00,98.14
2785.00,98.13
2784.00,98.13
2783.00,98.15
2782.00,98.18
2781.00,98.21
2780.00,98.23
2779.00,98.22
2778.00,98.20
2777.00,98.18
2776.00,98.18
2775.00,98.18
2774.00,98.18
2773.00,98.17
2772.00,98.16
2771.00,98.16
2770.00,98.16
2769.00,98.16
2768.00,98.16
2767.00,98.16
2766.00,98.16
2765.00,98.16
2764.00,98.17
2763.00,98.18
2762.00,98.19
2761.00,98.20
2760.00,98.20
2759.00,98.21
2758.00,98.21
2757.00,98.21
2756.00,98.20
2755.00,98.18
2754.00,98.16
2753.00,98.15
2752.00,98.14
2751.00,98.15
2750.00,98.16
2749.00,98.17
2748.00,98.18
2747.00,98.18
2746.00,98.18
2745.00,98.19
2744.00,98.18
2743.00,98.18
2742.00,98.17
2741.00,98.16
2740.00,98.16
2739.00,98.16
2738.00,98.17
2737.00,98.17
2736.00,98.17
2735.00,98.16
2734.00,98.17
2733.00,98.18
2732.00,98.18
2731.00,98.17
2730.00,98.15
2729.00,98.14
2728.00,98.15
2727.00,98.16
2726.00,98.16
2725.00,98.15
2724.00,98.14
2723.00,98.12
2722.00,98.11
2721.00,98.12
2720.00,98.13
2719.00,98.14
2718.00,98.14
2717.00,98.15
2716.00,98.16
2715.00,98.16
2714.00,98.16
2713.00,98.16
2712.00,98.15
2711.00,98.15
2710.00,98.16
2709.00,98.16
2708.00,98.17
2707.00,98.18
2706.00,98.19
2705.00,98.19
2704.00,98.19
2703.00,98.18
2702.00,98.18
2701.00,98.18
2700.00,98.19
2699.00,98.20
2698.00,98.20
2697.00,98.19
2696.00,98.17
2695.00,98.16
2694.00,98.15
2693.00,98.16
2692.00,98.16
2691.00,98.15
2690.00,98.14
2689.00,98.14
2688.00,98.13
2687.00,98.13
2686.00,98.13
2685.00,98.12
2684.00,98.11
2683.00,98.10
2682.00,98.10
2681.00,98.10
2680.00,98.11
2679.00,98.13
2678.00,98.13
2677.00,98.14
2676.00,98.14
2675.00,98.15
2674.00,98.16
2673.00,98.16
2672.00,98.15
2671.00,98.15
2670.00,98.14
2669.00,98.14
2668.00,98.13
2667.00,98.12
2666.00,98.12
2665.00,98.11
2664.00,98.10
2663.00,98.10
2662.00,98.10
2661.00,98.09
2660.00,98.08
2659.00,98.06
2658.00,98.04
2657.00,98.02
2656.00,97.99
2655.00,97.96
2654.00,97.95
2653.00,97.95
2652.00,97.96
2651.00,97.96
2650.00,97.95
2649.00,97.94
2648.00,97.92
2647.00,97.91
2646.00,97.89
2645.00,97.87
2644.00,97.85
2643.00,97.84
2642.00,97.83
2641.00,97.83
2640.00,97.83
2639.00,97.81
2638.00,97.80
2637.00,97.79
2636.00,97.79
2635.00,97.79
2634.00,97.78
2633.00,97.76
2632.00,97.74
2631.00,97.72
2630.00,97.70
2629.00,97.68
2628.00,97.67
2627.00,97.67
2626.00,97.67
2625.00,97.67
2624.00,97.66
2623.00,97.64
2622.00,97.63
2621.00,97.61
2620.00,97.60
2619.00,97.60
2618.00,97.61
2617.00,97.62
2616.00,97.61
2615.00,97.60
2614.00,97.60
2613.00,97.60
2612.00,97.60
2611.00,97.61
2610.00,97.60
2609.00,97.59
2608.00,97.58
2607.00,97.56
2606.00,97.54
2605.00,97.53
2604.00,97.52
2603.00,97.52
2602.00,97.53
2601.00,97.53
2600.00,97.52
2599.00,97.51
2598.00,97.50
2597.00,97.49
2596.00,97.48
2595.00,97.46
2594.00,97.43
2593.00,97.41
2592.00,97.39
2591.00,97.38
2590.00,97.37
2589.00,97.36
2588.00,97.36
2587.00,97.36
2586.00,97.36
2585.00,97.35
2584.00,97.35
2583.00,97.35
2582.00,97.36
2581.00,97.36
2580.00,97.36
2579.00,97.35
2578.00,97.34
2577.00,97.34
2576.00,97.33
2575.00,97.33
2574.00,97.32
2573.00,97.31
2572.00,97.31
2571.00,97.30
2570.00,97.30
2569.00,97.29
2568.00,97.28
2567.00,97.27
2566.00,97.26
2565.00,97.27
2564.00,97.28
2563.00,97.27
2562.00,97.26
2561.00,97.25
2560.00,97.24
2559.00,97.24
2558.00,97.24
2557.00,97.23
2556.00,97.22
2555.00,97.21
2554.00,97.21
2553.00,97.23
2552.00,97.26
2551.00,97.28
2550.00,97.29
2549.00,97.30
2548.00,97.30
2547.00,97.29
2546.00,97.28
2545.00,97.27
2544.00,97.25
2543.00,97.23
2542.00,97.20
2541.00,97.18
2540.00,97.16
2539.00,97.15
2538.00,97.14
2537.00,97.14
2536.00,97.13
2535.00,97.12
2534.00,97.13
2533.00,97.14
2532.00,97.16
2531.00,97.17
2530.00,97.19
2529.00,97.21
2528.00,97.21
2527.00,97.21
2526.00,97.20
2525.00,97.19
2524.00,97.17
2523.00,97.15
2522.00,97.15
2521.00,97.16
2520.00,97.17
2519.00,97.19
2518.00,97.19
2517.00,97.19
2516.00,97.18
2515.00,97.18
2514.00,97.18
2513.00,97.17
2512.00,97.16
2511.00,97.15
2510.00,97.15
2509.00,97.17
2508.00,97.19
2507.00,97.20
2506.00,97.20
2505.00,97.20
2504.00,97.19
2503.00,97.18
2502.00,97.18
2501.00,97.18
2500.00,97.18
2499.00,97.18
2498.00,97.18
2497.00,97.18
2496.00,97.21
2495.00,97.23
2494.00,97.24
2493.00,97.22
2492.00,97.19
2491.00,97.17
2490.00,97.17
2489.00,97.19
2488.00,97.21
2487.00,97.22
2486.00,97.22
2485.00,97.21
2484.00,97.21
2483.00,97.21
2482.00,97.22
2481.00,97.23
2480.00,97.24
2479.00,97.25
2478.00,97.25
2477.00,97.25
2476.00,97.25
2475.00,97.25
2474.00,97.23
2473.00,97.22
2472.00,97.21
2471.00,97.21
2470.00,97.21
2469.00,97.21
2468.00,97.20
2467.00,97.19
2466.00,97.20
2465.00,97.23
2464.00,97.25
2463.00,97.26
2462.00,97.25
2461.00,97.24
2460.00,97.23
2459.00,97.22
2458.00,97.22
2457.00,97.22
2456.00,97.23
2455.00,97.23
2454.00,97.23
2453.00,97.23
2452.00,97.21
2451.00,97.19
2450.00,97.16
2449.00,97.16
2448.00,97.17
2447.00,97.19
2446.00,97.21
2445.00,97.22
2444.00,97.22
2443.00,97.23
2442.00,97.23
2441.00,97.23
2440.00,97.24
2439.00,97.25
2438.00,97.27
2437.00,97.28
2436.00,97.27
2435.00,97.26
2434.00,97.25
2433.00,97.25
2432.00,97.25
2431.00,97.25
2430.00,97.25
2429.00,97.24
2428.00,97.23
2427.00,97.24
2426.00,97.25
2425.00,97.26
2424.00,97.25
2423.00,97.24
2422.00,97.24
2421.00,97.26
2420.00,97.29
2419.00,97.30
2418.00,97.30
2417.00,97.30
2416.00,97.31
2415.00,97.32
2414.00,97.31
2413.00,97.29
2412.00,97.27
2411.00,97.27
2410.00,97.28
2409.00,97.28
2408.00,97.28
2407.00,97.27
2406.00,97.26
2405.00,97.27
2404.00,97.28
2403.00,97.30
2402.00,97.30
2401.00,97.30
2400.00,97.31
2399.00,97.33
2398.00,97.35
2397.00,97.38
2396.00,97.40
2395.00,97.43
2394.00,97.46
2393.00,97.48
2392.00,97.50
2391.00,97.51
2390.00,97.53
2389.00,97.55
2388.00,97.56
2387.00,97.57
2386.00,97.57
2385.00,97.56
2384.00,97.58
2383.00,97.61
2382.00,97.65
2381.00,97.71
2380.00,97.76
2379.00,97.81
2378.00,97.83
2377.00,97.83
2376.00,97.82
2375.00,97.80
2374.00,97.80
2373.00,97.79
2372.00,97.77
2371.00,97.73
2370.00,97.69
2369.00,97.68
2368.00,97.70
2367.00,97.74
2366.00,97.78
2365.00,97.81
2364.00,97.82
2363.00,97.82
2362.00,97.82
2361.00,97.82
2360.00,97.83
2359.00,97.85
2358.00,97.86
2357.00,97.83
2356.00,97.78
2355.00,97.72
2354.00,97.70
2353.00,97.73
2352.00,97.78
2351.00,97.83
2350.00,97.86
2349.00,97.88
2348.00,97.87
2347.00,97.85
2346.00,97.83
2345.00,97.82
2344.00,97.83
2343.00,97.86
2342.00,97.88
2341.00,97.88
2340.00,97.86
2339.00,97.81
2338.00,97.75
2337.00,97.71
2336.00,97.70
2335.00,97.71
2334.00,97.73
2333.00,97.74
2332.00,97.76
2331.00,97.77
2330.00,97.77
2329.00,97.77
2328.00,97.78
2327.00,97.77
2326.00,97.71
2325.00,97.63
2324.00,97.55
2323.00,97.50
2322.00,97.49
2321.00,97.48
2320.00,97.46
2319.00,97.44
2318.00,97.45
2317.00,97.48
2316.00,97.49
2315.00,97.48
2314.00,97.43
2313.00,97.38
2312.00,97.35
2311.00,97.34
2310.00,97.34
2309.00,97.33
2308.00,97.30
2307.00,97.29
2306.00,97.29
2305.00,97.30
2304.00,97.29
2303.00,97.27
2302.00,97.23
2301.00,97.18
2300.00,97.14
2299.00,97.10
2298.00,97.08
2297.00,97.07
2296.00,97.06
2295.00,97.04
2294.00,97.01
2293.00,96.97
2292.00,96.94
2291.00,96.91
2290.00,96.88
2289.00,96.83
2288.00,96.77
2287.00,96.71
2286.00,96.67
2285.00,96.63
2284.00,96.60
2283.00,96.56
2282.00,96.54
2281.00,96.54
2280.00,96.53
2279.00,96.51
2278.00,96.48
2277.00,96.44
2276.00,96.43
2275.00,96.44
2274.00,96.44
2273.00,96.42
2272.00,96.36
2271.00,96.28
2270.00,96.22
2269.00,96.20
2268.00,96.21
2267.00,96.23
2266.00,96.24
2265.00,96.22
2264.00,96.19
2263.00,96.17
2262.00,96.13
2261.00,96.08
2260.00,96.00
2259.00,95.92
2258.00,95.82
2257.00,95.69
2256.00,95.53
2255.00,95.35
2254.00,95.15
2253.00,94.94
2252.00,94.70
2251.00,94.41
2250.00,94.08
2249.00,93.73
2248.00,93.37
2247.00,93.03
2246.00,92.72
2245.00,92.45
2244.00,92.23
2243.00,92.10
2242.00,92.05
2241.00,92.11
2240.00,92.27
2239.00,92.53
2238.00,92.87
2237.00,93.26
2236.00,93.66
2235.00,94.01
2234.00,94.31
2233.00,94.57
2232.00,94.79
2231.00,94.96
2230.00,95.06
2229.00,95.09
2228.00,95.08
2227.00,95.07
2226.00,95.07
2225.00,95.10
2224.00,95.15
2223.00,95.20
2222.00,95.24
2221.00,95.26
2220.00,95.25
2219.00,95.24
2218.00,95.22
2217.00,95.20
2216.00,95.19
2215.00,95.19
2214.00,95.21
2213.00,95.22
2212.00,95.20
2211.00,95.17
2210.00,95.15
2209.00,95.14
2208.00,95.14
2207.00,95.14
2206.00,95.16
2205.00,95.18
2204.00,95.18
2203.00,95.15
2202.00,95.08
2201.00,95.01
2200.00,94.98
2199.00,94.98
2198.00,94.99
2197.00,94.97
2196.00,94.90
2195.00,94.82
2194.00,94.77
2193.00,94.78
2192.00,94.81
2191.00,94.83
2190.00,94.83
2189.00,94.80
2188.00,94.76
2187.00,94.69
2186.00,94.59
2185.00,94.51
2184.00,94.46
2183.00,94.48
2182.00,94.54
2181.00,94.61
2180.00,94.65
2179.00,94.67
2178.00,94.70
2177.00,94.72
2176.00,94.71
2175.00,94.66
2174.00,94.61
2173.00,94.57
2172.00,94.55
2171.00,94.53
2170.00,94.50
2169.00,94.43
2168.00,94.33
2167.00,94.21
2166.00,94.10
2165.00,94.02
2164.00,93.95
2163.00,93.88
2162.00,93.82
2161.00,93.82
2160.00,93.93
2159.00,94.13
2158.00,94.34
2157.00,94.50
2156.00,94.59
2155.00,94.64
2154.00,94.68
2153.00,94.71
2152.00,94.75
2151.00,94.78
2150.00,94.83
2149.00,94.89
2148.00,94.94
2147.00,94.97
2146.00,95.00
2145.00,95.04
2144.00,95.10
2143.00,95.16
2142.00,95.24
2141.00,95.33
2140.00,95.44
2139.00,95.55
2138.00,95.64
2137.00,95.71
2136.00,95.76
2135.00,95.79
2134.00,95.83
2133.00,95.89
2132.00,95.94
2131.00,95.98
2130.00,96.01
2129.00,96.03
2128.00,96.06
2127.00,96.08
2126.00,96.09
2125.00,96.09
2124.00,96.09
2123.00,96.09
2122.00,96.11
2121.00,96.12
2120.00,96.13
2119.00,96.14
2118.00,96.13
2117.00,96.12
2116.00,96.11
2115.00,96.11
2114.00,96.10
2113.00,96.09
2112.00,96.07
2111.00,96.05
2110.00,96.02
2109.00,95.99
2108.00,95.98
2107.00,95.98
2106.00,95.99
2105.00,96.02
2104.00,96.04
2103.00,96.05
2102.00,96.05
2101.00,96.05
2100.00,96.03
2099.00,96.01
2098.00,96.00
2097.00,96.02
2096.00,96.06
2095.00,96.09
2094.00,96.11
2093.00,96.11
2092.00,96.11
2091.00,96.11
2090.00,96.10
2089.00,96.08
2088.00,96.07
2087.00,96.07
2086.00,96.06
2085.00,96.04
2084.00,96.00
2083.00,95.96
2082.00,95.91
2081.00,95.87
2080.00,95.84
2079.00,95.83
2078.00,95.83
2077.00,95.84
2076.00,95.86
2075.00,95.87
2074.00,95.89
2073.00,95.89
2072.00,95.88
2071.00,95.85
2070.00,95.80
2069.00,95.76
2068.00,95.72
2067.00,95.70
2066.00,95.68
2065.00,95.64
2064.00,95.60
2063.00,95.57
2062.00,95.56
2061.00,95.56
2060.00,95.57
2059.00,95.57
2058.00,95.54
2057.00,95.49
2056.00,95.44
2055.00,95.42
2054.00,95.42
2053.00,95.39
2052.00,95.33
2051.00,95.25
2050.00,95.18
2049.00,95.12
2048.00,95.07
2047.00,94.99
2046.00,94.92
2045.00,94.87
2044.00,94.84
2043.00,94.80
2042.00,94.75
2041.00,94.70
2040.00,94.63
2039.00,94.56
2038.00,94.47
2037.00,94.41
2036.00,94.40
2035.00,94.41
2034.00,94.41
2033.00,94.39
2032.00,94.37
2031.00,94.36
2030.00,94.36
2029.00,94.35
2028.00,94.35
2027.00,94.37
2026.00,94.41
2025.00,94.44
2024.00,94.44
2023.00,94.40
2022.00,94.37
2021.00,94.40
2020.00,94.48
2019.00,94.55
2018.00,94.60
2017.00,94.61
2016.00,94.61
2015.00,94.60
2014.00,94.57
2013.00,94.54
2012.00,94.53
2011.00,94.53
2010.00,94.53
2009.00,94.55
2008.00,94.62
2007.00,94.72
2006.00,94.84
2005.00,94.95
2004.00,95.03
2003.00,95.09
2002.00,95.11
2001.00,95.10
2000.00,95.07
1999.00,95.07
1998.00,95.08
1997.00,95.09
1996.00,95.09
1995.00,95.10
1994.00,95.09
1993.00,95.08
1992.00,95.05
1991.00,95.02
1990.00,94.97
1989.00,94.92
1988.00,94.89
1987.00,94.90
1986.00,94.92
1985.00,94.90
1984.00,94.83
1983.00,94.72
1982.00,94.60
1981.00,94.50
1980.00,94.43
1979.00,94.44
1978.00,94.53
1977.00,94.65
1976.00,94.73
1975.00,94.74
1974.00,94.72
1973.00,94.70
1972.00,94.71
1971.00,94.74
1970.00,94.77
1969.00,94.83
1968.00,94.90
1967.00,94.98
1966.00,95.03
1965.00,95.05
1964.00,95.06
1963.00,95.10
1962.00,95.18
1961.00,95.28
1960.00,95.36
1959.00,95.42
1958.00,95.47
1957.00,95.52
1956.00,95.54
1955.00,95.54
1954.00,95.52
1953.00,95.53
1952.00,95.56
1951.00,95.62
1950.00,95.68
1949.00,95.74
1948.00,95.77
1947.00,95.79
1946.00,95.81
1945.00,95.84
1944.00,95.89
1943.00,95.95
1942.00,96.01
1941.00,96.05
1940.00,96.06
1939.00,96.07
1938.00,96.10
1937.00,96.12
1936.00,96.14
1935.00,96.14
1934.00,96.14
1933.00,96.15
1932.00,96.17
1931.00,96.17
1930.00,96.17
1929.00,96.18
1928.00,96.21
1927.00,96.26
1926.00,96.30
1925.00,96.33
1924.00,96.34
1923.00,96.33
1922.00,96.32
1921.00,96.31
1920.00,96.32
1919.00,96.34
1918.00,96.37
1917.00,96.41
1916.00,96.43
1915.00,96.44
1914.00,96.44
1913.00,96.45
1912.00,96.48
1911.00,96.51
1910.00,96.54
1909.00,96.58
1908.00,96.60
1907.00,96.60
1906.00,96.58
1905.00,96.56
1904.00,96.54
1903.00,96.54
1902.00,96.56
1901.00,96.59
1900.00,96.62
1899.00,96.65
1898.00,96.65
1897.00,96.64
1896.00,96.63
1895.00,96.63
1894.00,96.63
1893.00,96.64
1892.00,96.64
1891.00,96.66
1890.00,96.68
1889.00,96.72
1888.00,96.75
1887.00,96.76
1886.00,96.74
1885.00,96.73
1884.00,96.71
1883.00,96.71
1882.00,96.72
1881.00,96.74
1880.00,96.76
1879.00,96.78
1878.00,96.78
1877.00,96.78
1876.00,96.80
1875.00,96.83
1874.00,96.87
1873.00,96.91
1872.00,96.93
1871.00,96.93
1870.00,96.93
1869.00,96.91
1868.00,96.88
1867.00,96.86
1866.00,96.84
1865.00,96.85
1864.00,96.88
1863.00,96.92
1862.00,96.96
1861.00,96.98
1860.00,96.99
1859.00,96.99
1858.00,96.98
1857.00,96.98
1856.00,96.98
1855.00,96.99
1854.00,97.00
1853.00,97.01
1852.00,97.01
1851.00,97.00
1850.00,96.98
1849.00,96.97
1848.00,96.97
1847.00,96.98
1846.00,97.01
1845.00,97.05
1844.00,97.07
1843.00,97.08
1842.00,97.07
1841.00,97.08
1840.00,97.09
1839.00,97.10
1838.00,97.12
1837.00,97.13
1836.00,97.14
1835.00,97.12
1834.00,97.11
1833.00,97.10
1832.00,97.11
1831.00,97.14
1830.00,97.16
1829.00,97.17
1828.00,97.18
1827.00,97.18
1826.00,97.18
1825.00,97.18
1824.00,97.19
1823.00,97.21
1822.00,97.23
1821.00,97.25
1820.00,97.25
1819.00,97.25
1818.00,97.25
1817.00,97.26
1816.00,97.28
1815.00,97.29
1814.00,97.30
1813.00,97.29
1812.00,97.27
1811.00,97.24
1810.00,97.23
1809.00,97.22
1808.00,97.23
1807.00,97.23
1806.00,97.24
1805.00,97.26
1804.00,97.28
1803.00,97.28
1802.00,97.28
1801.00,97.29
1800.00,97.30
1799.00,97.32
1798.00,97.34
1797.00,97.34
1796.00,97.34
1795.00,97.34
1794.00,97.34
1793.00,97.33
1792.00,97.32
1791.00,97.31
1790.00,97.30
1789.00,97.32
1788.00,97.34
1787.00,97.35
1786.00,97.36
1785.00,97.36
1784.00,97.36
1783.00,97.35
1782.00,97.34
1781.00,97.34
1780.00,97.34
1779.00,97.36
1778.00,97.38
1777.00,97.39
1776.00,97.40
1775.00,97.40
1774.00,97.38
1773.00,97.36
1772.00,97.36
1771.00,97.37
1770.00,97.37
1769.00,97.37
1768.00,97.37
1767.00,97.37
1766.00,97.37
1765.00,97.36
1764.00,97.35
1763.00,97.34
1762.00,97.34
1761.00,97.35
1760.00,97.35
1759.00,97.33
1758.00,97.31
1757.00,97.28
1756.00,97.26
1755.00,97.22
1754.00,97.19
1753.00,97.15
1752.00,97.10
1751.00,97.02
1750.00,96.94
1749.00,96.84
1748.00,96.74
1747.00,96.61
1746.00,96.47
1745.00,96.30
1744.00,96.12
1743.00,95.92
1742.00,95.70
1741.00,95.47
1740.00,95.21
1739.00,94.93
1738.00,94.68
1737.00,94.46
1736.00,94.22
1735.00,93.88
1734.00,93.45
1733.00,93.08
1732.00,92.83
1731.00,92.63
1730.00,92.45
1729.00,92.28
1728.00,92.15
1727.00,92.05
1726.00,91.96
1725.00,91.90
1724.00,91.89
1723.00,91.93
1722.00,92.00
1721.00,92.10
1720.00,92.24
1719.00,92.42
1718.00,92.65
1717.00,92.91
1716.00,93.17
1715.00,93.42
1714.00,93.67
1713.00,93.90
1712.00,94.13
1711.00,94.36
1710.00,94.59
1709.00,94.80
1708.00,94.99
1707.00,95.18
1706.00,95.37
1705.00,95.54
1704.00,95.68
1703.00,95.81
1702.00,95.94
1701.00,96.08
1700.00,96.19
1699.00,96.26
1698.00,96.31
1697.00,96.37
1696.00,96.42
1695.00,96.46
1694.00,96.47
1693.00,96.48
1692.00,96.50
1691.00,96.52
1690.00,96.55
1689.00,96.57
1688.00,96.58
1687.00,96.58
1686.00,96.58
1685.00,96.58
1684.00,96.59
1683.00,96.61
1682.00,96.63
1681.00,96.64
1680.00,96.65
1679.00,96.67
1678.00,96.69
1677.00,96.71
1676.00,96.71
1675.00,96.72
1674.00,96.72
1673.00,96.74
1672.00,96.75
1671.00,96.77
1670.00,96.78
1669.00,96.79
1668.00,96.79
1667.00,96.79
1666.00,96.80
1665.00,96.80
1664.00,96.80
1663.00,96.80
1662.00,96.80
1661.00,96.79
1660.00,96.78
1659.00,96.78
1658.00,96.78
1657.00,96.78
1656.00,96.79
1655.00,96.80
1654.00,96.82
1653.00,96.78
1652.00,96.71
1651.00,96.67
1650.00,96.67
1649.00,96.67
1648.00,96.67
1647.00,96.66
1646.00,96.63
1645.00,96.60
1644.00,96.58
1643.00,96.57
1642.00,96.58
1641.00,96.58
1640.00,96.57
1639.00,96.56
1638.00,96.56
1637.00,96.58
1636.00,96.57
1635.00,96.52
1634.00,96.46
1633.00,96.41
1632.00,96.40
1631.00,96.40
1630.00,96.40
1629.00,96.40
1628.00,96.39
1627.00,96.39
1626.00,96.40
1625.00,96.40
1624.00,96.41
1623.00,96.42
1622.00,96.42
1621.00,96.42
1620.00,96.41
1619.00,96.41
1618.00,96.43
1617.00,96.45
1616.00,96.47
1615.00,96.49
1614.00,96.51
1613.00,96.53
1612.00,96.55
1611.00,96.58
1610.00,96.60
1609.00,96.63
1608.00,96.64
1607.00,96.66
1606.00,96.68
1605.00,96.70
1604.00,96.71
1603.00,96.72
1602.00,96.74
1601.00,96.74
1600.00,96.76
1599.00,96.77
1598.00,96.78
1597.00,96.80
1596.00,96.80
1595.00,96.81
1594.00,96.81
1593.00,96.82
1592.00,96.83
1591.00,96.85
1590.00,96.87
1589.00,96.88
1588.00,96.88
1587.00,96.87
1586.00,96.87
1585.00,96.87
1584.00,96.86
1583.00,96.85
1582.00,96.83
1581.00,96.82
1580.00,96.81
1579.00,96.82
1578.00,96.82
1577.00,96.83
1576.00,96.85
1575.00,96.88
1574.00,96.92
1573.00,96.96
1572.00,96.99
1571.00,97.01
1570.00,97.02
1569.00,97.01
1568.00,96.98
1567.00,96.96
1566.00,96.96
1565.00,96.96
1564.00,96.98
1563.00,96.98
1562.00,96.99
1561.00,96.98
1560.00,96.96
1559.00,96.94
1558.00,96.95
1557.00,96.97
1556.00,96.98
1555.00,96.99
1554.00,97.00
1553.00,96.99
1552.00,96.98
1551.00,96.95
1550.00,96.93
1549.00,96.93
1548.00,96.92
1547.00,96.92
1546.00,96.92
1545.00,96.93
1544.00,96.93
1543.00,96.94
1542.00,96.93
1541.00,96.92
1540.00,96.91
1539.00,96.90
1538.00,96.91
1537.00,96.92
1536.00,96.94
1535.00,96.96
1534.00,96.98
1533.00,96.99
1532.00,97.00
1531.00,97.02
1530.00,97.04
1529.00,97.06
1528.00,97.06
1527.00,97.07
1526.00,97.06
1525.00,97.05
1524.00,97.04
1523.00,97.04
1522.00,97.06
1521.00,97.09
1520.00,97.10
1519.00,97.10
1518.00,97.10
1517.00,97.10
1516.00,97.09
1515.00,97.09
1514.00,97.09
1513.00,97.10
1512.00,97.10
1511.00,97.10
1510.00,97.10
1509.00,97.11
1508.00,97.12
1507.00,97.13
1506.00,97.11
1505.00,97.09
1504.00,97.08
1503.00,97.08
1502.00,97.08
1501.00,97.08
1500.00,97.08
1499.00,97.10
1498.00,97.12
1497.00,97.12
1496.00,97.11
1495.00,97.09
1494.00,97.08
1493.00,97.06
1492.00,97.05
1491.00,97.04
1490.00,97.03
1489.00,97.01
1488.00,96.96
1487.00,96.91
1486.00,96.85
1485.00,96.79
1484.00,96.73
1483.00,96.67
1482.00,96.61
1481.00,96.54
1480.00,96.46
1479.00,96.39
1478.00,96.32
1477.00,96.23
1476.00,96.15
1475.00,96.07
1474.00,96.02
1473.00,95.97
1472.00,95.93
1471.00,95.91
1470.00,95.89
1469.00,95.87
1468.00,95.84
1467.00,95.77
1466.00,95.64
1465.00,95.43
1464.00,95.17
1463.00,94.91
1462.00,94.66
1461.00,94.38
1460.00,94.05
1459.00,93.64
1458.00,93.11
1457.00,92.53
1456.00,92.12
1455.00,91.91
1454.00,91.79
1453.00,91.70
1452.00,91.65
1451.00,91.63
1450.00,91.66
1449.00,91.72
1448.00,91.83
1447.00,91.99
1446.00,92.17
1445.00,92.34
1444.00,92.53
1443.00,92.72
1442.00,92.92
1441.00,93.11
1440.00,93.31
1439.00,93.50
1438.00,93.69
1437.00,93.86
1436.00,94.02
1435.00,94.16
1434.00,94.28
1433.00,94.41
1432.00,94.55
1431.00,94.72
1430.00,94.89
1429.00,95.07
1428.00,95.24
1427.00,95.38
1426.00,95.50
1425.00,95.61
1424.00,95.73
1423.00,95.85
1422.00,95.94
1421.00,96.02
1420.00,96.08
1419.00,96.13
1418.00,96.16
1417.00,96.19
1416.00,96.22
1415.00,96.26
1414.00,96.29
1413.00,96.34
1412.00,96.37
1411.00,96.40
1410.00,96.41
1409.00,96.42
1408.00,96.42
1407.00,96.41
1406.00,96.41
1405.00,96.41
1404.00,96.41
1403.00,96.40
1402.00,96.39
1401.00,96.36
1400.00,96.31
1399.00,96.24
1398.00,96.15
1397.00,96.08
1396.00,96.00
1395.00,95.92
1394.00,95.85
1393.00,95.81
1392.00,95.80
1391.00,95.80
1390.00,95.80
1389.00,95.81
1388.00,95.81
1387.00,95.82
1386.00,95.83
1385.00,95.85
1384.00,95.85
1383.00,95.84
1382.00,95.83
1381.00,95.80
1380.00,95.76
1379.00,95.71
1378.00,95.66
1377.00,95.61
1376.00,95.56
1375.00,95.51
1374.00,95.45
1373.00,95.40
1372.00,95.35
1371.00,95.29
1370.00,95.24
1369.00,95.18
1368.00,95.12
1367.00,95.06
1366.00,95.03
1365.00,95.01
1364.00,95.01
1363.00,95.00
1362.00,94.98
1361.00,94.97
1360.00,94.97
1359.00,94.97
1358.00,94.98
1357.00,94.98
1356.00,94.97
1355.00,94.97
1354.00,94.99
1353.00,95.02
1352.00,95.04
1351.00,95.05
1350.00,95.06
1349.00,95.07
1348.00,95.11
1347.00,95.14
1346.00,95.17
1345.00,95.20
1344.00,95.23
1343.00,95.26
1342.00,95.29
1341.00,95.32
1340.00,95.35
1339.00,95.38
1338.00,95.42
1337.00,95.45
1336.00,95.47
1335.00,95.49
1334.00,95.52
1333.00,95.54
1332.00,95.57
1331.00,95.59
1330.00,95.62
1329.00,95.65
1328.00,95.67
1327.00,95.68
1326.00,95.68
1325.00,95.68
1324.00,95.68
1323.00,95.67
1322.00,95.66
1321.00,95.64
1320.00,95.63
1319.00,95.61
1318.00,95.58
1317.00,95.56
1316.00,95.53
1315.00,95.50
1314.00,95.49
1313.00,95.48
1312.00,95.48
1311.00,95.48
1310.00,95.48
1309.00,95.49
1308.00,95.50
1307.00,95.50
1306.00,95.49
1305.00,95.49
1304.00,95.49
1303.00,95.49
1302.00,95.50
1301.00,95.50
1300.00,95.48
1299.00,95.46
1298.00,95.44
1297.00,95.44
1296.00,95.45
1295.00,95.45
1294.00,95.45
1293.00,95.44
1292.00,95.43
1291.00,95.42
1290.00,95.43
1289.00,95.43
1288.00,95.43
1287.00,95.43
1286.00,95.42
1285.00,95.40
1284.00,95.39
1283.00,95.37
1282.00,95.36
1281.00,95.35
1280.00,95.34
1279.00,95.32
1278.00,95.31
1277.00,95.31
1276.00,95.31
1275.00,95.31
1274.00,95.31
1273.00,95.30
1272.00,95.28
1271.00,95.26
1270.00,95.22
1269.00,95.20
1268.00,95.18
1267.00,95.15
1266.00,95.12
1265.00,95.08
1264.00,95.03
1263.00,94.98
1262.00,94.93
1261.00,94.89
1260.00,94.83
1259.00,94.78
1258.00,94.72
1257.00,94.66
1256.00,94.61
1255.00,94.55
1254.00,94.49
1253.00,94.43
1252.00,94.36
1251.00,94.28
1250.00,94.21
1249.00,94.15
1248.00,94.09
1247.00,94.03
1246.00,93.96
1245.00,93.89
1244.00,93.84
1243.00,93.80
1242.00,93.77
1241.00,93.74
1240.00,93.70
1239.00,93.65
1238.00,93.59
1237.00,93.52
1236.00,93.45
1235.00,93.38
1234.00,93.31
1233.00,93.25
1232.00,93.17
1231.00,93.09
1230.00,93.01
1229.00,92.94
1228.00,92.87
1227.00,92.79
1226.00,92.71
1225.00,92.64
1224.00,92.58
1223.00,92.54
1222.00,92.50
1221.00,92.45
1220.00,92.41
1219.00,92.37
1218.00,92.35
1217.00,92.34
1216.00,92.33
1215.00,92.32
1214.00,92.31
1213.00,92.31
1212.00,92.32
1211.00,92.35
1210.00,92.40
1209.00,92.45
1208.00,92.50
1207.00,92.55
1206.00,92.61
1205.00,92.68
1204.00,92.76
1203.00,92.85
1202.00,92.95
1201.00,93.03
1200.00,93.10
1199.00,93.17
1198.00,93.25
1197.00,93.34
1196.00,93.41
1195.00,93.48
1194.00,93.53
1193.00,93.58
1192.00,93.64
1191.00,93.72
1190.00,93.79
1189.00,93.86
1188.00,93.92
1187.00,93.97
1186.00,94.02
1185.00,94.06
1184.00,94.10
1183.00,94.13
1182.00,94.15
1181.00,94.16
1180.00,94.16
1179.00,94.17
1178.00,94.19
1177.00,94.21
1176.00,94.24
1175.00,94.27
1174.00,94.30
1173.00,94.31
1172.00,94.32
1171.00,94.33
1170.00,94.35
1169.00,94.37
1168.00,94.38
1167.00,94.39
1166.00,94.41
1165.00,94.44
1164.00,94.47
1163.00,94.50
1162.00,94.54
1161.00,94.58
1160.00,94.62
1159.00,94.67
1158.00,94.73
1157.00,94.79
1156.00,94.85
1155.00,94.89
1154.00,94.91
1153.00,94.91
1152.00,94.91
1151.00,94.90
1150.00,94.88
1149.00,94.85
1148.00,94.80
1147.00,94.75
1146.00,94.68
1145.00,94.61
1144.00,94.56
1143.00,94.52
1142.00,94.48
1141.00,94.44
1140.00,94.38
1139.00,94.29
1138.00,94.19
1137.00,94.08
1136.00,93.94
1135.00,93.80
1134.00,93.65
1133.00,93.50
1132.00,93.35
1131.00,93.22
1130.00,93.11
1129.00,93.02
1128.00,92.94
1127.00,92.87
1126.00,92.83
1125.00,92.84
1124.00,92.89
1123.00,92.98
1122.00,93.09
1121.00,93.23
1120.00,93.38
1119.00,93.53
1118.00,93.67
1117.00,93.81
1116.00,93.94
1115.00,94.07
1114.00,94.17
1113.00,94.26
1112.00,94.34
1111.00,94.42
1110.00,94.48
1109.00,94.52
1108.00,94.56
1107.00,94.60
1106.00,94.63
1105.00,94.65
1104.00,94.67
1103.00,94.68
1102.00,94.70
1101.00,94.71
1100.00,94.71
1099.00,94.71
1098.00,94.70
1097.00,94.69
1096.00,94.69
1095.00,94.68
1094.00,94.68
1093.00,94.67
1092.00,94.63
1091.00,94.58
1090.00,94.54
1089.00,94.52
1088.00,94.53
1087.00,94.55
1086.00,94.55
1085.00,94.53
1084.00,94.47
1083.00,94.40
1082.00,94.33
1081.00,94.27
1080.00,94.22
1079.00,94.17
1078.00,94.14
1077.00,94.13
1076.00,94.11
1075.00,94.08
1074.00,94.04
1073.00,94.01
1072.00,93.98
1071.00,93.96
1070.00,93.95
1069.00,93.94
1068.00,93.93
1067.00,93.95
1066.00,93.98
1065.00,94.02
1064.00,94.07
1063.00,94.11
1062.00,94.16
1061.00,94.23
1060.00,94.32
1059.00,94.40
1058.00,94.44
1057.00,94.45
1056.00,94.46
1055.00,94.50
1054.00,94.56
1053.00,94.61
1052.00,94.64
1051.00,94.66
1050.00,94.66
1049.00,94.66
1048.00,94.65
1047.00,94.64
1046.00,94.62
1045.00,94.61
1044.00,94.58
1043.00,94.55
1042.00,94.54
1041.00,94.53
1040.00,94.54
1039.00,94.56
1038.00,94.59
1037.00,94.64
1036.00,94.70
1035.00,94.78
1034.00,94.86
1033.00,94.94
1032.00,95.01
1031.00,95.06
1030.00,95.10
1029.00,95.13
1028.00,95.16
1027.00,95.17
1026.00,95.17
1025.00,95.15
1024.00,95.14
1023.00,95.14
1022.00,95.16
1021.00,95.18
1020.00,95.20
1019.00,95.23
1018.00,95.26
1017.00,95.29
1016.00,95.31
1015.00,95.32
1014.00,95.32
1013.00,95.33
1012.00,95.32
1011.00,95.31
1010.00,95.30
1009.00,95.30
1008.00,95.31
1007.00,95.31
1006.00,95.30
1005.00,95.29
1004.00,95.30
1003.00,95.30
1002.00,95.29
1001.00,95.27
1000.00,95.24
999.00,95.22
998.00,95.20
997.00,95.16
996.00,95.13
995.00,95.10
994.00,95.09
993.00,95.08
992.00,95.07
991.00,95.04
990.00,95.01
989.00,94.97
988.00,94.94
987.00,94.91
986.00,94.88
985.00,94.85
984.00,94.83
983.00,94.83
982.00,94.83
981.00,94.85
980.00,94.86
979.00,94.87
978.00,94.90
977.00,94.93
976.00,94.97
975.00,95.01
974.00,95.04
973.00,95.07
972.00,95.08
971.00,95.09
970.00,95.10
969.00,95.12
968.00,95.14
967.00,95.17
966.00,95.20
965.00,95.23
964.00,95.26
963.00,95.28
962.00,95.29
961.00,95.29
960.00,95.29
959.00,95.30
958.00,95.30
957.00,95.31
956.00,95.32
955.00,95.35
954.00,95.38
953.00,95.39
952.00,95.39
951.00,95.38
950.00,95.39
949.00,95.39
948.00,95.40
947.00,95.40
946.00,95.39
945.00,95.38
944.00,95.36
943.00,95.35
942.00,95.36
941.00,95.37
940.00,95.37
939.00,95.37
938.00,95.37
937.00,95.38
936.00,95.40
935.00,95.42
934.00,95.42
933.00,95.40
932.00,95.37
931.00,95.36
930.00,95.35
929.00,95.34
928.00,95.32
927.00,95.31
926.00,95.33
925.00,95.38
924.00,95.43
923.00,95.46
922.00,95.46
921.00,95.43
920.00,95.40
919.00,95.38
918.00,95.38
917.00,95.38
916.00,95.37
915.00,95.36
914.00,95.34
913.00,95.31
912.00,95.30
911.00,95.32
910.00,95.34
909.00,95.37
908.00,95.38
907.00,95.40
906.00,95.40
905.00,95.41
904.00,95.41
903.00,95.43
902.00,95.46
901.00,95.47
900.00,95.47
899.00,95.47
898.00,95.46
897.00,95.44
896.00,95.43
895.00,95.42
894.00,95.43
893.00,95.44
892.00,95.45
891.00,95.45
890.00,95.45
889.00,95.45
888.00,95.44
887.00,95.43
886.00,95.43
885.00,95.42
884.00,95.41
883.00,95.40
882.00,95.41
881.00,95.41
880.00,95.41
879.00,95.40
878.00,95.39
877.00,95.37
876.00,95.37
875.00,95.38
874.00,95.39
873.00,95.40
872.00,95.40
871.00,95.39
870.00,95.38
869.00,95.38
868.00,95.36
867.00,95.34
866.00,95.34
865.00,95.36
864.00,95.38
863.00,95.39
862.00,95.38
861.00,95.36
860.00,95.35
859.00,95.33
858.00,95.31
857.00,95.28
856.00,95.28
855.00,95.30
854.00,95.34
853.00,95.38
852.00,95.40
851.00,95.40
850.00,95.40
849.00,95.40
848.00,95.41
847.00,95.42
846.00,95.43
845.00,95.45
844.00,95.45
843.00,95.45
842.00,95.45
841.00,95.46
840.00,95.47
839.00,95.48
838.00,95.47
837.00,95.47
836.00,95.48
835.00,95.49
834.00,95.50
833.00,95.50
832.00,95.48
831.00,95.47
830.00,95.45
829.00,95.44
828.00,95.43
827.00,95.41
826.00,95.39
825.00,95.37
824.00,95.36
823.00,95.34
822.00,95.34
821.00,95.35
820.00,95.37
819.00,95.37
818.00,95.37
817.00,95.38
816.00,95.38
815.00,95.37
814.00,95.33
813.00,95.29
812.00,95.26
811.00,95.25
810.00,95.24
809.00,95.23
808.00,95.22
807.00,95.24
806.00,95.27
805.00,95.28
804.00,95.27
803.00,95.25
802.00,95.24
801.00,95.26
800.00,95.29
799.00,95.32
798.00,95.33
797.00,95.33
796.00,95.33
795.00,95.33
794.00,95.32
793.00,95.29
792.00,95.24
791.00,95.18
790.00,95.14
789.00,95.12
788.00,95.11
787.00,95.11
786.00,95.12
785.00,95.13
784.00,95.14
783.00,95.13
782.00,95.10
781.00,95.06
780.00,95.04
779.00,95.01
778.00,94.97
777.00,94.94
776.00,94.91
775.00,94.91
774.00,94.90
773.00,94.88
772.00,94.84
771.00,94.82
770.00,94.83
769.00,94.85
768.00,94.88
767.00,94.89
766.00,94.89
765.00,94.89
764.00,94.89
763.00,94.90
762.00,94.91
761.00,94.92
760.00,94.94
759.00,94.98
758.00,95.03
757.00,95.08
756.00,95.11
755.00,95.13
754.00,95.14
753.00,95.14
752.00,95.14
751.00,95.13
750.00,95.13
749.00,95.13
748.00,95.17
747.00,95.24
746.00,95.30
745.00,95.32
744.00,95.32
743.00,95.32
742.00,95.34
741.00,95.37
740.00,95.41
739.00,95.46
738.00,95.50
737.00,95.53
736.00,95.53
735.00,95.51
734.00,95.49
733.00,95.51
732.00,95.57
731.00,95.63
730.00,95.66
729.00,95.64
728.00,95.62
727.00,95.62
726.00,95.64
725.00,95.64
724.00,95.63
723.00,95.63
722.00,95.65
721.00,95.68
720.00,95.70
719.00,95.73
718.00,95.76
717.00,95.79
716.00,95.79
715.00,95.79
714.00,95.79
713.00,95.79
712.00,95.78
711.00,95.77
710.00,95.79
709.00,95.81
708.00,95.81
707.00,95.77
706.00,95.72
705.00,95.69
704.00,95.68
703.00,95.70
702.00,95.73
701.00,95.74
700.00,95.72
699.00,95.69
698.00,95.67
697.00,95.69
696.00,95.71
695.00,95.71
694.00,95.66
693.00,95.58
692.00,95.50
691.00,95.47
690.00,95.48
689.00,95.51
688.00,95.56
687.00,95.59
686.00,95.59
685.00,95.56
684.00,95.51
683.00,95.48
682.00,95.49
681.00,95.52
680.00,95.55
679.00,95.54
678.00,95.51
677.00,95.47
676.00,95.43
675.00,95.43
674.00,95.46
673.00,95.53
672.00,95.59
671.00,95.59
670.00,95.51
669.00,95.34
668.00,95.15
667.00,95.10
666.00,95.19
665.00,95.30
664.00,95.39
663.00,95.49
662.00,95.59
661.00,95.64
660.00,95.62
659.00,95.54
658.00,95.48
657.00,95.46
656.00,95.46
655.00,95.46
654.00,95.47
653.00,95.50
652.00,95.52
651.00,95.49
650.00,95.40
649.00,95.27
648.00,95.14
647.00,95.07
646.00,95.09
645.00,95.21
644.00,95.38
643.00,95.55
642.00,95.66
641.00,95.66
640.00,95.54
639.00,95.37
638.00,95.22
637.00,95.12
636.00,95.10
635.00,95.14
634.00,95.25
633.00,95.39
632.00,95.48
631.00,95.54
630.00,95.58
629.00,95.61
628.00,95.59
627.00,95.51
626.00,95.40
625.00,95.32
624.00,95.25
623.00,95.18
622.00,95.11
621.00,95.01
620.00,94.85
619.00,94.67
618.00,94.56
617.00,94.60
616.00,94.80
615.00,95.06
614.00,95.24
613.00,95.23
612.00,95.05
611.00,94.83
610.00,94.79
609.00,94.93
608.00,95.16
607.00,95.36
606.00,95.51
605.00,95.61
604.00,95.63
603.00,95.53
602.00,95.34
601.00,95.16
600.00,95.02
599.00,94.88
598.00,94.69
597.00,94.47
596.00,94.33
595.00,94.37
594.00,94.48
593.00,94.43
592.00,94.08
591.00,93.71
590.00,93.71
589.00,94.14
588.00,94.74
587.00,95.28
586.00,95.67
585.00,95.85
584.00,95.72
583.00,95.31
582.00,94.96
581.00,94.92
580.00,95.06
579.00,95.08
578.00,94.91
577.00,94.74
576.00,94.71
575.00,94.84
574.00,95.16
573.00,95.62
572.00,95.96
571.00,95.97
570.00,95.69
569.00,95.33
568.00,94.88
567.00,94.18
566.00,93.37
565.00,92.87
564.00,92.93
563.00,93.41
562.00,93.90
561.00,94.18
560.00,94.38
559.00,94.70
558.00,95.12
557.00,95.29
556.00,94.97
555.00,94.27
554.00,93.68
553.00,93.46
552.00,93.50
551.00,93.57
550.00,93.62
