Created as New Dataset,24 Du Pont
cm-1,%T
4000.00,99.02
3999.00,99.02
3998.00,99.00
3997.00,98.97
3996.00,98.94
3995.00,98.92
3994.00,98.90
3993.00,98.90
3992.00,98.89
3991.00,98.91
3990.00,98.92
3989.00,98.93
3988.00,98.94
3987.00,98.95
3986.00,98.95
3985.00,98.95
3984.00,98.93
3983.00,98.92
3982.00,98.90
3981.00,98.90
3980.00,98.91
3979.00,98.92
3978.00,98.92
3977.00,98.91
3976.00,98.91
3975.00,98.91
3974.00,98.91
3973.00,98.92
3972.00,98.93
3971.00,98.93
3970.00,98.93
3969.00,98.92
3968.00,98.91
3967.00,98.91
3966.00,98.91
3965.00,98.92
3964.00,98.93
3963.00,98.94
3962.00,98.95
3961.00,98.95
3960.00,98.94
3959.00,98.94
3958.00,98.95
3957.00,98.95
3956.00,98.96
3955.00,98.96
3954.00,98.96
3953.00,98.96
3952.00,98.96
3951.00,98.97
3950.00,98.98
3949.00,99.00
3948.00,99.02
3947.00,99.03
3946.00,99.03
3945.00,99.00
3944.00,98.97
3943.00,98.94
3942.00,98.91
3941.00,98.90
3940.00,98.90
3939.00,98.92
3938.00,98.95
3937.00,98.97
3936.00,98.98
3935.00,98.96
3934.00,98.94
3933.00,98.91
3932.00,98.89
3931.00,98.88
3930.00,98.87
3929.00,98.87
3928.00,98.86
3927.00,98.85
3926.00,98.85
3925.00,98.86
3924.00,98.87
3923.00,98.87
3922.00,98.85
3921.00,98.84
3920.00,98.83
3919.00,98.82
3918.00,98.82
3917.00,98.83
3916.00,98.84
3915.00,98.86
3914.00,98.88
3913.00,98.91
3912.00,98.93
3911.00,98.94
3910.00,98.94
3909.00,98.94
3908.00,98.93
3907.00,98.92
3906.00,98.92
3905.00,98.93
3904.00,98.94
3903.00,98.93
3902.00,98.92
3901.00,98.90
3900.00,98.88
3899.00,98.88
3898.00,98.88
3897.00,98.87
3896.00,98.86
3895.00,98.85
3894.00,98.84
3893.00,98.84
3892.00,98.84
3891.00,98.84
3890.00,98.83
3889.00,98.81
3888.00,98.79
3887.00,98.79
3886.00,98.81
3885.00,98.83
3884.00,98.82
3883.00,98.79
3882.00,98.76
3881.00,98.76
3880.00,98.78
3879.00,98.82
3878.00,98.84
3877.00,98.84
3876.00,98.83
3875.00,98.81
3874.00,98.81
3873.00,98.81
3872.00,98.82
3871.00,98.82
3870.00,98.84
3869.00,98.86
3868.00,98.87
3867.00,98.87
3866.00,98.86
3865.00,98.85
3864.00,98.84
3863.00,98.83
3862.00,98.82
3861.00,98.81
3860.00,98.80
3859.00,98.78
3858.00,98.78
3857.00,98.78
3856.00,98.79
3855.00,98.79
3854.00,98.79
3853.00,98.79
3852.00,98.78
3851.00,98.78
3850.00,98.77
3849.00,98.77
3848.00,98.77
3847.00,98.76
3846.00,98.75
3845.00,98.74
3844.00,98.74
3843.00,98.75
3842.00,98.75
3841.00,98.74
3840.00,98.72
3839.00,98.71
3838.00,98.71
3837.00,98.72
3836.00,98.74
3835.00,98.75
3834.00,98.75
3833.00,98.76
3832.00,98.78
3831.00,98.79
3830.00,98.79
3829.00,98.78
3828.00,98.76
3827.00,98.73
3826.00,98.72
3825.00,98.71
3824.00,98.71
3823.00,98.71
3822.00,98.71
3821.00,98.72
3820.00,98.73
3819.00,98.72
3818.00,98.72
3817.00,98.72
3816.00,98.72
3815.00,98.72
3814.00,98.71
3813.00,98.70
3812.00,98.70
3811.00,98.70
3810.00,98.69
3809.00,98.68
3808.00,98.67
3807.00,98.67
3806.00,98.68
3805.00,98.68
3804.00,98.68
3803.00,98.67
3802.00,98.68
3801.00,98.69
3800.00,98.69
3799.00,98.69
3798.00,98.69
3797.00,98.71
3796.00,98.74
3795.00,98.76
3794.00,98.76
3793.00,98.77
3792.00,98.77
3791.00,98.78
3790.00,98.76
3789.00,98.74
3788.00,98.71
3787.00,98.68
3786.00,98.66
3785.00,98.66
3784.00,98.67
3783.00,98.67
3782.00,98.66
3781.00,98.64
3780.00,98.63
3779.00,98.64
3778.00,98.66
3777.00,98.68
3776.00,98.68
3775.00,98.67
3774.00,98.65
3773.00,98.62
3772.00,98.59
3771.00,98.57
3770.00,98.57
3769.00,98.56
3768.00,98.56
3767.00,98.55
3766.00,98.55
3765.00,98.56
3764.00,98.58
3763.00,98.59
3762.00,98.59
3761.00,98.58
3760.00,98.57
3759.00,98.56
3758.00,98.55
3757.00,98.55
3756.00,98.53
3755.00,98.51
3754.00,98.49
3753.00,98.47
3752.00,98.47
3751.00,98.48
3750.00,98.48
3749.00,98.48
3748.00,98.48
3747.00,98.48
3746.00,98.49
3745.00,98.52
3744.00,98.55
3743.00,98.54
3742.00,98.52
3741.00,98.51
3740.00,98.52
3739.00,98.53
3738.00,98.53
3737.00,98.51
3736.00,98.49
3735.00,98.49
3734.00,98.50
3733.00,98.50
3732.00,98.50
3731.00,98.50
3730.00,98.49
3729.00,98.49
3728.00,98.49
3727.00,98.50
3726.00,98.51
3725.00,98.50
3724.00,98.46
3723.00,98.43
3722.00,98.43
3721.00,98.44
3720.00,98.45
3719.00,98.45
3718.00,98.43
3717.00,98.41
3716.00,98.40
3715.00,98.39
3714.00,98.39
3713.00,98.40
3712.00,98.41
3711.00,98.41
3710.00,98.41
3709.00,98.42
3708.00,98.43
3707.00,98.44
3706.00,98.45
3705.00,98.45
3704.00,98.44
3703.00,98.43
3702.00,98.42
3701.00,98.40
3700.00,98.40
3699.00,98.40
3698.00,98.42
3697.00,98.43
3696.00,98.43
3695.00,98.41
3694.00,98.40
3693.00,98.39
3692.00,98.38
3691.00,98.38
3690.00,98.36
3689.00,98.36
3688.00,98.36
3687.00,98.36
3686.00,98.37
3685.00,98.38
3684.00,98.40
3683.00,98.41
3682.00,98.41
3681.00,98.40
3680.00,98.39
3679.00,98.39
3678.00,98.38
3677.00,98.34
3676.00,98.30
3675.00,98.27
3674.00,98.26
3673.00,98.27
3672.00,98.30
3671.00,98.34
3670.00,98.38
3669.00,98.39
3668.00,98.38
3667.00,98.36
3666.00,98.34
3665.00,98.32
3664.00,98.30
3663.00,98.28
3662.00,98.26
3661.00,98.25
3660.00,98.24
3659.00,98.23
3658.00,98.23
3657.00,98.23
3656.00,98.24
3655.00,98.22
3654.00,98.19
3653.00,98.15
3652.00,98.12
3651.00,98.11
3650.00,98.11
3649.00,98.11
3648.00,98.12
3647.00,98.13
3646.00,98.14
3645.00,98.16
3644.00,98.17
3643.00,98.20
3642.00,98.21
3641.00,98.22
3640.00,98.22
3639.00,98.21
3638.00,98.20
3637.00,98.21
3636.00,98.22
3635.00,98.24
3634.00,98.25
3633.00,98.26
3632.00,98.26
3631.00,98.25
3630.00,98.23
3629.00,98.22
3628.00,98.21
3627.00,98.21
3626.00,98.22
3625.00,98.23
3624.00,98.24
3623.00,98.23
3622.00,98.20
3621.00,98.16
3620.00,98.13
3619.00,98.13
3618.00,98.13
3617.00,98.13
3616.00,98.13
3615.00,98.16
3614.00,98.20
3613.00,98.22
3612.00,98.23
3611.00,98.21
3610.00,98.18
3609.00,98.16
3608.00,98.16
3607.00,98.19
3606.00,98.22
3605.00,98.23
3604.00,98.22
3603.00,98.19
3602.00,98.16
3601.00,98.16
3600.00,98.16
3599.00,98.17
3598.00,98.18
3597.00,98.17
3596.00,98.17
3595.00,98.18
3594.00,98.21
3593.00,98.22
3592.00,98.23
3591.00,98.21
3590.00,98.18
3589.00,98.15
3588.00,98.15
3587.00,98.17
3586.00,98.21
3585.00,98.24
3584.00,98.27
3583.00,98.29
3582.00,98.30
3581.00,98.32
3580.00,98.33
3579.00,98.34
3578.00,98.34
3577.00,98.32
3576.00,98.30
3575.00,98.29
3574.00,98.30
3573.00,98.32
3572.00,98.34
3571.00,98.33
3570.00,98.31
3569.00,98.26
3568.00,98.22
3567.00,98.21
3566.00,98.22
3565.00,98.25
3564.00,98.27
3563.00,98.30
3562.00,98.32
3561.00,98.34
3560.00,98.34
3559.00,98.34
3558.00,98.34
3557.00,98.35
3556.00,98.35
3555.00,98.33
3554.00,98.31
3553.00,98.28
3552.00,98.27
3551.00,98.29
3550.00,98.32
3549.00,98.34
3548.00,98.34
3547.00,98.32
3546.00,98.30
3545.00,98.27
3544.00,98.25
3543.00,98.24
3542.00,98.23
3541.00,98.24
3540.00,98.25
3539.00,98.26
3538.00,98.27
3537.00,98.29
3536.00,98.32
3535.00,98.33
3534.00,98.35
3533.00,98.36
3532.00,98.38
3531.00,98.41
3530.00,98.44
3529.00,98.43
3528.00,98.41
3527.00,98.38
3526.00,98.35
3525.00,98.34
3524.00,98.35
3523.00,98.38
3522.00,98.39
3521.00,98.40
3520.00,98.40
3519.00,98.41
3518.00,98.41
3517.00,98.42
3516.00,98.42
3515.00,98.42
3514.00,98.42
3513.00,98.42
3512.00,98.42
3511.00,98.40
3510.00,98.38
3509.00,98.36
3508.00,98.36
3507.00,98.36
3506.00,98.37
3505.00,98.38
3504.00,98.38
3503.00,98.39
3502.00,98.38
3501.00,98.36
3500.00,98.34
3499.00,98.34
3498.00,98.36
3497.00,98.40
3496.00,98.43
3495.00,98.44
3494.00,98.46
3493.00,98.47
3492.00,98.48
3491.00,98.49
3490.00,98.50
3489.00,98.50
3488.00,98.49
3487.00,98.48
3486.00,98.46
3485.00,98.45
3484.00,98.45
3483.00,98.45
3482.00,98.45
3481.00,98.45
3480.00,98.46
3479.00,98.46
3478.00,98.45
3477.00,98.45
3476.00,98.44
3475.00,98.44
3474.00,98.45
3473.00,98.45
3472.00,98.46
3471.00,98.47
3470.00,98.46
3469.00,98.46
3468.00,98.47
3467.00,98.48
3466.00,98.49
3465.00,98.49
3464.00,98.48
3463.00,98.47
3462.00,98.47
3461.00,98.46
3460.00,98.45
3459.00,98.43
3458.00,98.42
3457.00,98.42
3456.00,98.43
3455.00,98.44
3454.00,98.45
3453.00,98.45
3452.00,98.46
3451.00,98.46
3450.00,98.47
3449.00,98.46
3448.00,98.44
3447.00,98.43
3446.00,98.42
3445.00,98.43
3444.00,98.45
3443.00,98.48
3442.00,98.49
3441.00,98.49
3440.00,98.48
3439.00,98.47
3438.00,98.47
3437.00,98.50
3436.00,98.52
3435.00,98.53
3434.00,98.50
3433.00,98.47
3432.00,98.45
3431.00,98.45
3430.00,98.47
3429.00,98.49
3428.00,98.50
3427.00,98.50
3426.00,98.50
3425.00,98.49
3424.00,98.46
3423.00,98.43
3422.00,98.41
3421.00,98.42
3420.00,98.45
3419.00,98.48
3418.00,98.49
3417.00,98.48
3416.00,98.47
3415.00,98.48
3414.00,98.51
3413.00,98.54
3412.00,98.56
3411.00,98.58
3410.00,98.59
3409.00,98.58
3408.00,98.57
3407.00,98.55
3406.00,98.53
3405.00,98.51
3404.00,98.51
3403.00,98.51
3402.00,98.52
3401.00,98.53
3400.00,98.54
3399.00,98.55
3398.00,98.55
3397.00,98.54
3396.00,98.53
3395.00,98.52
3394.00,98.51
3393.00,98.51
3392.00,98.50
3391.00,98.50
3390.00,98.50
3389.00,98.50
3388.00,98.50
3387.00,98.50
3386.00,98.51
3385.00,98.51
3384.00,98.51
3383.00,98.50
3382.00,98.48
3381.00,98.47
3380.00,98.48
3379.00,98.49
3378.00,98.51
3377.00,98.53
3376.00,98.53
3375.00,98.54
3374.00,98.56
3373.00,98.58
3372.00,98.59
3371.00,98.58
3370.00,98.57
3369.00,98.55
3368.00,98.54
3367.00,98.54
3366.00,98.55
3365.00,98.58
3364.00,98.59
3363.00,98.59
3362.00,98.56
3361.00,98.54
3360.00,98.52
3359.00,98.52
3358.00,98.52
3357.00,98.52
3356.00,98.52
3355.00,98.52
3354.00,98.52
3353.00,98.52
3352.00,98.50
3351.00,98.49
3350.00,98.49
3349.00,98.50
3348.00,98.51
3347.00,98.52
3346.00,98.53
3345.00,98.53
3344.00,98.52
3343.00,98.50
3342.00,98.49
3341.00,98.48
3340.00,98.50
3339.00,98.53
3338.00,98.56
3337.00,98.58
3336.00,98.58
3335.00,98.57
3334.00,98.57
3333.00,98.56
3332.00,98.54
3331.00,98.50
3330.00,98.47
3329.00,98.47
3328.00,98.49
3327.00,98.52
3326.00,98.53
3325.00,98.52
3324.00,98.49
3323.00,98.45
3322.00,98.43
3321.00,98.44
3320.00,98.45
3319.00,98.46
3318.00,98.47
3317.00,98.48
3316.00,98.50
3315.00,98.52
3314.00,98.53
3313.00,98.54
3312.00,98.53
3311.00,98.51
3310.00,98.50
3309.00,98.49
3308.00,98.49
3307.00,98.49
3306.00,98.49
3305.00,98.50
3304.00,98.51
3303.00,98.51
3302.00,98.50
3301.00,98.50
3300.00,98.50
3299.00,98.49
3298.00,98.48
3297.00,98.46
3296.00,98.44
3295.00,98.42
3294.00,98.41
3293.00,98.41
3292.00,98.41
3291.00,98.42
3290.00,98.43
3289.00,98.45
3288.00,98.45
3287.00,98.45
3286.00,98.45
3285.00,98.44
3284.00,98.43
3283.00,98.43
3282.00,98.43
3281.00,98.43
3280.00,98.43
3279.00,98.43
3278.00,98.44
3277.00,98.44
3276.00,98.44
3275.00,98.45
3274.00,98.47
3273.00,98.48
3272.00,98.48
3271.00,98.47
3270.00,98.46
3269.00,98.46
3268.00,98.46
3267.00,98.46
3266.00,98.46
3265.00,98.44
3264.00,98.42
3263.00,98.41
3262.00,98.41
3261.00,98.40
3260.00,98.39
3259.00,98.38
3258.00,98.37
3257.00,98.37
3256.00,98.38
3255.00,98.40
3254.00,98.43
3253.00,98.44
3252.00,98.45
3251.00,98.45
3250.00,98.45
3249.00,98.45
3248.00,98.46
3247.00,98.46
3246.00,98.46
3245.00,98.46
3244.00,98.45
3243.00,98.44
3242.00,98.43
3241.00,98.42
3240.00,98.41
3239.00,98.40
3238.00,98.38
3237.00,98.38
3236.00,98.37
3235.00,98.38
3234.00,98.38
3233.00,98.39
3232.00,98.39
3231.00,98.38
3230.00,98.36
3229.00,98.34
3228.00,98.34
3227.00,98.35
3226.00,98.37
3225.00,98.38
3224.00,98.39
3223.00,98.38
3222.00,98.37
3221.00,98.37
3220.00,98.37
3219.00,98.38
3218.00,98.39
3217.00,98.38
3216.00,98.38
3215.00,98.39
3214.00,98.40
3213.00,98.40
3212.00,98.39
3211.00,98.38
3210.00,98.37
3209.00,98.37
3208.00,98.37
3207.00,98.37
3206.00,98.37
3205.00,98.37
3204.00,98.38
3203.00,98.38
3202.00,98.39
3201.00,98.40
3200.00,98.41
3199.00,98.42
3198.00,98.42
3197.00,98.42
3196.00,98.43
3195.00,98.44
3194.00,98.46
3193.00,98.47
3192.00,98.47
3191.00,98.47
3190.00,98.47
3189.00,98.46
3188.00,98.45
3187.00,98.42
3186.00,98.40
3185.00,98.37
3184.00,98.37
3183.00,98.37
3182.00,98.39
3181.00,98.41
3180.00,98.44
3179.00,98.47
3178.00,98.47
3177.00,98.46
3176.00,98.46
3175.00,98.46
3174.00,98.45
3173.00,98.43
3172.00,98.41
3171.00,98.38
3170.00,98.38
3169.00,98.38
3168.00,98.40
3167.00,98.40
3166.00,98.40
3165.00,98.39
3164.00,98.39
3163.00,98.39
3162.00,98.39
3161.00,98.39
3160.00,98.39
3159.00,98.40
3158.00,98.42
3157.00,98.44
3156.00,98.44
3155.00,98.44
3154.00,98.43
3153.00,98.44
3152.00,98.45
3151.00,98.46
3150.00,98.46
3149.00,98.45
3148.00,98.44
3147.00,98.44
3146.00,98.44
3145.00,98.46
3144.00,98.47
3143.00,98.48
3142.00,98.47
3141.00,98.47
3140.00,98.46
3139.00,98.46
3138.00,98.46
3137.00,98.46
3136.00,98.46
3135.00,98.46
3134.00,98.47
3133.00,98.48
3132.00,98.48
3131.00,98.49
3130.00,98.49
3129.00,98.48
3128.00,98.46
3127.00,98.44
3126.00,98.43
3125.00,98.42
3124.00,98.42
3123.00,98.43
3122.00,98.43
3121.00,98.43
3120.00,98.42
3119.00,98.42
3118.00,98.42
3117.00,98.44
3116.00,98.44
3115.00,98.44
3114.00,98.44
3113.00,98.43
3112.00,98.44
3111.00,98.46
3110.00,98.48
3109.00,98.48
3108.00,98.48
3107.00,98.48
3106.00,98.48
3105.00,98.48
3104.00,98.47
3103.00,98.45
3102.00,98.43
3101.00,98.42
3100.00,98.43
3099.00,98.45
3098.00,98.48
3097.00,98.50
3096.00,98.51
3095.00,98.52
3094.00,98.51
3093.00,98.50
3092.00,98.49
3091.00,98.48
3090.00,98.46
3089.00,98.44
3088.00,98.43
3087.00,98.42
3086.00,98.42
3085.00,98.42
3084.00,98.42
3083.00,98.42
3082.00,98.43
3081.00,98.43
3080.00,98.44
3079.00,98.45
3078.00,98.46
3077.00,98.47
3076.00,98.47
3075.00,98.46
3074.00,98.45
3073.00,98.44
3072.00,98.43
3071.00,98.43
3070.00,98.44
3069.00,98.46
3068.00,98.46
3067.00,98.46
3066.00,98.45
3065.00,98.45
3064.00,98.44
3063.00,98.45
3062.00,98.45
3061.00,98.45
3060.00,98.45
3059.00,98.45
3058.00,98.45
3057.00,98.45
3056.00,98.44
3055.00,98.45
3054.00,98.45
3053.00,98.46
3052.00,98.46
3051.00,98.46
3050.00,98.45
3049.00,98.45
3048.00,98.47
3047.00,98.48
3046.00,98.49
3045.00,98.49
3044.00,98.48
3043.00,98.47
3042.00,98.45
3041.00,98.45
3040.00,98.45
3039.00,98.45
3038.00,98.45
3037.00,98.44
3036.00,98.44
3035.00,98.45
3034.00,98.45
3033.00,98.45
3032.00,98.44
3031.00,98.43
3030.00,98.43
3029.00,98.43
3028.00,98.43
3027.00,98.44
3026.00,98.45
3025.00,98.46
3024.00,98.46
3023.00,98.45
3022.00,98.44
3021.00,98.44
3020.00,98.44
3019.00,98.44
3018.00,98.44
3017.00,98.44
3016.00,98.42
3015.00,98.40
3014.00,98.39
3013.00,98.39
3012.00,98.39
3011.00,98.39
3010.00,98.39
3009.00,98.38
3008.00,98.37
3007.00,98.36
3006.00,98.35
3005.00,98.35
3004.00,98.36
3003.00,98.38
3002.00,98.39
3001.00,98.38
3000.00,98.35
2999.00,98.32
2998.00,98.30
2997.00,98.29
2996.00,98.30
2995.00,98.30
2994.00,98.31
2993.00,98.31
2992.00,98.30
2991.00,98.30
2990.00,98.30
2989.00,98.30
2988.00,98.31
2987.00,98.31
2986.00,98.32
2985.00,98.32
2984.00,98.32
2983.00,98.30
2982.00,98.28
2981.00,98.26
2980.00,98.25
2979.00,98.25
2978.00,98.25
2977.00,98.25
2976.00,98.25
2975.00,98.25
2974.00,98.25
2973.00,98.24
2972.00,98.23
2971.00,98.21
2970.00,98.19
2969.00,98.17
2968.00,98.16
2967.00,98.15
2966.00,98.14
2965.00,98.15
2964.00,98.16
2963.00,98.17
2962.00,98.17
2961.00,98.15
2960.00,98.12
2959.00,98.09
2958.00,98.06
2957.00,98.04
2956.00,98.02
2955.00,97.99
2954.00,97.97
2953.00,97.95
2952.00,97.94
2951.00,97.92
2950.00,97.90
2949.00,97.87
2948.00,97.85
2947.00,97.85
2946.00,97.86
2945.00,97.85
2944.00,97.82
2943.00,97.79
2942.00,97.76
2941.00,97.74
2940.00,97.72
2939.00,97.71
2938.00,97.70
2937.00,97.71
2936.00,97.73
2935.00,97.76
2934.00,97.79
2933.00,97.80
2932.00,97.79
2931.00,97.78
2930.00,97.77
2929.00,97.77
2928.00,97.79
2927.00,97.81
2926.00,97.82
2925.00,97.81
2924.00,97.80
2923.00,97.81
2922.00,97.84
2921.00,97.89
2920.00,97.94
2919.00,97.96
2918.00,97.97
2917.00,97.97
2916.00,97.96
2915.00,97.96
2914.00,97.96
2913.00,97.98
2912.00,98.00
2911.00,98.03
2910.00,98.06
2909.00,98.08
2908.00,98.08
2907.00,98.08
2906.00,98.08
2905.00,98.10
2904.00,98.13
2903.00,98.17
2902.00,98.19
2901.00,98.21
2900.00,98.21
2899.00,98.21
2898.00,98.21
2897.00,98.22
2896.00,98.23
2895.00,98.24
2894.00,98.25
2893.00,98.26
2892.00,98.26
2891.00,98.25
2890.00,98.25
2889.00,98.25
2888.00,98.25
2887.00,98.25
2886.00,98.24
2885.00,98.24
2884.00,98.24
2883.00,98.26
2882.00,98.27
2881.00,98.29
2880.00,98.30
2879.00,98.29
2878.00,98.27
2877.00,98.25
2876.00,98.25
2875.00,98.25
2874.00,98.26
2873.00,98.27
2872.00,98.28
2871.00,98.28
2870.00,98.27
2869.00,98.27
2868.00,98.27
2867.00,98.27
2866.00,98.29
2865.00,98.30
2864.00,98.31
2863.00,98.31
2862.00,98.31
2861.00,98.31
2860.00,98.33
2859.00,98.35
2858.00,98.37
2857.00,98.40
2856.00,98.43
2855.00,98.45
2854.00,98.46
2853.00,98.46
2852.00,98.45
2851.00,98.44
2850.00,98.44
2849.00,98.45
2848.00,98.47
2847.00,98.48
2846.00,98.49
2845.00,98.48
2844.00,98.46
2843.00,98.46
2842.00,98.46
2841.00,98.48
2840.00,98.49
2839.00,98.50
2838.00,98.51
2837.00,98.52
2836.00,98.52
2835.00,98.52
2834.00,98.52
2833.00,98.52
2832.00,98.52
2831.00,98.51
2830.00,98.51
2829.00,98.52
2828.00,98.54
2827.00,98.55
2826.00,98.56
2825.00,98.57
2824.00,98.58
2823.00,98.59
2822.00,98.59
2821.00,98.59
2820.00,98.59
2819.00,98.59
2818.00,98.60
2817.00,98.59
2816.00,98.58
2815.00,98.55
2814.00,98.52
2813.00,98.51
2812.00,98.51
2811.00,98.53
2810.00,98.53
2809.00,98.53
2808.00,98.53
2807.00,98.52
2806.00,98.53
2805.00,98.54
2804.00,98.56
2803.00,98.57
2802.00,98.58
2801.00,98.58
2800.00,98.58
2799.00,98.57
2798.00,98.57
2797.00,98.56
2796.00,98.56
2795.00,98.55
2794.00,98.55
2793.00,98.55
2792.00,98.55
2791.00,98.55
2790.00,98.55
2789.00,98.57
2788.00,98.58
2787.00,98.59
2786.00,98.59
2785.00,98.59
2784.00,98.59
2783.00,98.60
2782.00,98.60
2781.00,98.60
2780.00,98.60
2779.00,98.60
2778.00,98.60
2777.00,98.61
2776.00,98.62
2775.00,98.61
2774.00,98.59
2773.00,98.59
2772.00,98.60
2771.00,98.62
2770.00,98.64
2769.00,98.66
2768.00,98.65
2767.00,98.64
2766.00,98.62
2765.00,98.62
2764.00,98.62
2763.00,98.61
2762.00,98.60
2761.00,98.60
2760.00,98.60
2759.00,98.61
2758.00,98.62
2757.00,98.63
2756.00,98.65
2755.00,98.66
2754.00,98.66
2753.00,98.65
2752.00,98.63
2751.00,98.61
2750.00,98.60
2749.00,98.59
2748.00,98.59
2747.00,98.59
2746.00,98.59
2745.00,98.59
2744.00,98.59
2743.00,98.60
2742.00,98.61
2741.00,98.62
2740.00,98.63
2739.00,98.63
2738.00,98.64
2737.00,98.64
2736.00,98.64
2735.00,98.63
2734.00,98.62
2733.00,98.61
2732.00,98.60
2731.00,98.59
2730.00,98.59
2729.00,98.58
2728.00,98.57
2727.00,98.57
2726.00,98.57
2725.00,98.58
2724.00,98.59
2723.00,98.60
2722.00,98.61
2721.00,98.60
2720.00,98.60
2719.00,98.60
2718.00,98.61
2717.00,98.63
2716.00,98.64
2715.00,98.63
2714.00,98.62
2713.00,98.61
2712.00,98.61
2711.00,98.60
2710.00,98.60
2709.00,98.60
2708.00,98.61
2707.00,98.62
2706.00,98.62
2705.00,98.62
2704.00,98.63
2703.00,98.63
2702.00,98.64
2701.00,98.65
2700.00,98.66
2699.00,98.65
2698.00,98.64
2697.00,98.62
2696.00,98.62
2695.00,98.62
2694.00,98.62
2693.00,98.62
2692.00,98.62
2691.00,98.62
2690.00,98.63
2689.00,98.64
2688.00,98.64
2687.00,98.62
2686.00,98.60
2685.00,98.59
2684.00,98.58
2683.00,98.57
2682.00,98.58
2681.00,98.60
2680.00,98.61
2679.00,98.62
2678.00,98.62
2677.00,98.61
2676.00,98.62
2675.00,98.62
2674.00,98.64
2673.00,98.66
2672.00,98.67
2671.00,98.67
2670.00,98.67
2669.00,98.65
2668.00,98.63
2667.00,98.61
2666.00,98.59
2665.00,98.59
2664.00,98.58
2663.00,98.58
2662.00,98.57
2661.00,98.56
2660.00,98.55
2659.00,98.55
2658.00,98.54
2657.00,98.54
2656.00,98.53
2655.00,98.52
2654.00,98.50
2653.00,98.48
2652.00,98.46
2651.00,98.44
2650.00,98.43
2649.00,98.42
2648.00,98.42
2647.00,98.41
2646.00,98.41
2645.00,98.39
2644.00,98.37
2643.00,98.35
2642.00,98.33
2641.00,98.31
2640.00,98.28
2639.00,98.26
2638.00,98.24
2637.00,98.23
2636.00,98.21
2635.00,98.20
2634.00,98.19
2633.00,98.19
2632.00,98.18
2631.00,98.17
2630.00,98.16
2629.00,98.15
2628.00,98.15
2627.00,98.15
2626.00,98.14
2625.00,98.11
2624.00,98.08
2623.00,98.07
2622.00,98.07
2621.00,98.09
2620.00,98.11
2619.00,98.11
2618.00,98.10
2617.00,98.08
2616.00,98.07
2615.00,98.04
2614.00,98.02
2613.00,98.00
2612.00,98.00
2611.00,98.01
2610.00,98.02
2609.00,98.04
2608.00,98.03
2607.00,98.01
2606.00,97.98
2605.00,97.94
2604.00,97.91
2603.00,97.89
2602.00,97.89
2601.00,97.88
2600.00,97.88
2599.00,97.88
2598.00,97.89
2597.00,97.91
2596.00,97.91
2595.00,97.89
2594.00,97.87
2593.00,97.86
2592.00,97.84
2591.00,97.83
2590.00,97.81
2589.00,97.79
2588.00,97.79
2587.00,97.79
2586.00,97.79
2585.00,97.80
2584.00,97.79
2583.00,97.78
2582.00,97.77
2581.00,97.77
2580.00,97.78
2579.00,97.80
2578.00,97.80
2577.00,97.80
2576.00,97.78
2575.00,97.77
2574.00,97.77
2573.00,97.77
2572.00,97.76
2571.00,97.75
2570.00,97.73
2569.00,97.71
2568.00,97.70
2567.00,97.69
2566.00,97.69
2565.00,97.71
2564.00,97.73
2563.00,97.74
2562.00,97.72
2561.00,97.70
2560.00,97.68
2559.00,97.65
2558.00,97.63
2557.00,97.63
2556.00,97.64
2555.00,97.65
2554.00,97.66
2553.00,97.65
2552.00,97.63
2551.00,97.62
2550.00,97.61
2549.00,97.60
2548.00,97.59
2547.00,97.58
2546.00,97.58
2545.00,97.60
2544.00,97.63
2543.00,97.65
2542.00,97.64
2541.00,97.61
2540.00,97.58
2539.00,97.56
2538.00,97.56
2537.00,97.58
2536.00,97.59
2535.00,97.60
2534.00,97.60
2533.00,97.59
2532.00,97.57
2531.00,97.55
2530.00,97.53
2529.00,97.52
2528.00,97.52
2527.00,97.53
2526.00,97.54
2525.00,97.56
2524.00,97.57
2523.00,97.58
2522.00,97.59
2521.00,97.59
2520.00,97.60
2519.00,97.60
2518.00,97.61
2517.00,97.61
2516.00,97.60
2515.00,97.59
2514.00,97.57
2513.00,97.56
2512.00,97.56
2511.00,97.57
2510.00,97.58
2509.00,97.58
2508.00,97.59
2507.00,97.61
2506.00,97.61
2505.00,97.62
2504.00,97.62
2503.00,97.62
2502.00,97.62
2501.00,97.60
2500.00,97.59
2499.00,97.58
2498.00,97.59
2497.00,97.61
2496.00,97.62
2495.00,97.64
2494.00,97.65
2493.00,97.66
2492.00,97.65
2491.00,97.64
2490.00,97.62
2489.00,97.60
2488.00,97.59
2487.00,97.60
2486.00,97.60
2485.00,97.61
2484.00,97.61
2483.00,97.62
2482.00,97.63
2481.00,97.64
2480.00,97.66
2479.00,97.67
2478.00,97.68
2477.00,97.68
2476.00,97.68
2475.00,97.67
2474.00,97.67
2473.00,97.67
2472.00,97.67
2471.00,97.67
2470.00,97.67
2469.00,97.69
2468.00,97.70
2467.00,97.69
2466.00,97.67
2465.00,97.65
2464.00,97.65
2463.00,97.67
2462.00,97.70
2461.00,97.73
2460.00,97.75
2459.00,97.76
2458.00,97.74
2457.00,97.69
2456.00,97.65
2455.00,97.61
2454.00,97.60
2453.00,97.60
2452.00,97.61
2451.00,97.61
2450.00,97.61
2449.00,97.62
2448.00,97.62
2447.00,97.61
2446.00,97.61
2445.00,97.62
2444.00,97.65
2443.00,97.67
2442.00,97.69
2441.00,97.71
2440.00,97.73
2439.00,97.74
2438.00,97.72
2437.00,97.70
2436.00,97.68
2435.00,97.68
2434.00,97.69
2433.00,97.69
2432.00,97.68
2431.00,97.68
2430.00,97.68
2429.00,97.68
2428.00,97.68
2427.00,97.67
2426.00,97.67
2425.00,97.69
2424.00,97.70
2423.00,97.72
2422.00,97.74
2421.00,97.75
2420.00,97.75
2419.00,97.75
2418.00,97.75
2417.00,97.76
2416.00,97.77
2415.00,97.76
2414.00,97.75
2413.00,97.75
2412.00,97.76
2411.00,97.78
2410.00,97.80
2409.00,97.82
2408.00,97.83
2407.00,97.83
2406.00,97.83
2405.00,97.84
2404.00,97.85
2403.00,97.87
2402.00,97.90
2401.00,97.92
2400.00,97.93
2399.00,97.92
2398.00,97.91
2397.00,97.91
2396.00,97.92
2395.00,97.94
2394.00,97.97
2393.00,97.99
2392.00,98.01
2391.00,98.03
2390.00,98.04
2389.00,98.05
2388.00,98.06
2387.00,98.07
2386.00,98.09
2385.00,98.11
2384.00,98.15
2383.00,98.19
2382.00,98.23
2381.00,98.27
2380.00,98.31
2379.00,98.35
2378.00,98.38
2377.00,98.40
2376.00,98.41
2375.00,98.40
2374.00,98.38
2373.00,98.37
2372.00,98.38
2371.00,98.41
2370.00,98.44
2369.00,98.45
2368.00,98.42
2367.00,98.40
2366.00,98.42
2365.00,98.49
2364.00,98.53
2363.00,98.53
2362.00,98.51
2361.00,98.50
2360.00,98.51
2359.00,98.52
2358.00,98.54
2357.00,98.56
2356.00,98.56
2355.00,98.52
2354.00,98.46
2353.00,98.44
2352.00,98.46
2351.00,98.51
2350.00,98.55
2349.00,98.57
2348.00,98.56
2347.00,98.56
2346.00,98.58
2345.00,98.62
2344.00,98.66
2343.00,98.67
2342.00,98.66
2341.00,98.64
2340.00,98.60
2339.00,98.55
2338.00,98.50
2337.00,98.47
2336.00,98.47
2335.00,98.50
2334.00,98.53
2333.00,98.54
2332.00,98.54
2331.00,98.50
2330.00,98.45
2329.00,98.41
2328.00,98.38
2327.00,98.35
2326.00,98.30
2325.00,98.25
2324.00,98.20
2323.00,98.15
2322.00,98.11
2321.00,98.08
2320.00,98.06
2319.00,98.06
2318.00,98.07
2317.00,98.08
2316.00,98.10
2315.00,98.10
2314.00,98.07
2313.00,98.04
2312.00,98.02
2311.00,98.01
2310.00,97.98
2309.00,97.95
2308.00,97.90
2307.00,97.86
2306.00,97.83
2305.00,97.82
2304.00,97.81
2303.00,97.81
2302.00,97.80
2301.00,97.78
2300.00,97.74
2299.00,97.69
2298.00,97.65
2297.00,97.61
2296.00,97.58
2295.00,97.54
2294.00,97.50
2293.00,97.47
2292.00,97.44
2291.00,97.41
2290.00,97.38
2289.00,97.35
2288.00,97.32
2287.00,97.28
2286.00,97.23
2285.00,97.19
2284.00,97.16
2283.00,97.15
2282.00,97.13
2281.00,97.10
2280.00,97.06
2279.00,97.02
2278.00,96.98
2277.00,96.94
2276.00,96.90
2275.00,96.89
2274.00,96.89
2273.00,96.89
2272.00,96.87
2271.00,96.83
2270.00,96.77
2269.00,96.72
2268.00,96.68
2267.00,96.66
2266.00,96.66
2265.00,96.65
2264.00,96.63
2263.00,96.59
2262.00,96.54
2261.00,96.49
2260.00,96.42
2259.00,96.33
2258.00,96.23
2257.00,96.13
2256.00,96.04
2255.00,95.94
2254.00,95.83
2253.00,95.71
2252.00,95.58
2251.00,95.43
2250.00,95.25
2249.00,95.06
2248.00,94.87
2247.00,94.67
2246.00,94.46
2245.00,94.27
2244.00,94.12
2243.00,94.03
2242.00,93.99
2241.00,94.01
2240.00,94.09
2239.00,94.21
2238.00,94.38
2237.00,94.56
2236.00,94.77
2235.00,94.96
2234.00,95.14
2233.00,95.28
2232.00,95.39
2231.00,95.46
2230.00,95.53
2229.00,95.60
2228.00,95.64
2227.00,95.66
2226.00,95.64
2225.00,95.59
2224.00,95.55
2223.00,95.54
2222.00,95.57
2221.00,95.59
2220.00,95.60
2219.00,95.59
2218.00,95.58
2217.00,95.58
2216.00,95.58
2215.00,95.56
2214.00,95.51
2213.00,95.45
2212.00,95.41
2211.00,95.39
2210.00,95.38
2209.00,95.39
2208.00,95.40
2207.00,95.40
2206.00,95.38
2205.00,95.34
2204.00,95.30
2203.00,95.25
2202.00,95.22
2201.00,95.21
2200.00,95.21
2199.00,95.23
2198.00,95.23
2197.00,95.22
2196.00,95.20
2195.00,95.15
2194.00,95.09
2193.00,95.03
2192.00,94.99
2191.00,94.97
2190.00,94.97
2189.00,94.97
2188.00,94.96
2187.00,94.94
2186.00,94.91
2185.00,94.91
2184.00,94.92
2183.00,94.94
2182.00,94.95
2181.00,94.93
2180.00,94.86
2179.00,94.78
2178.00,94.70
2177.00,94.63
2176.00,94.60
2175.00,94.61
2174.00,94.65
2173.00,94.72
2172.00,94.76
2171.00,94.73
2170.00,94.64
2169.00,94.52
2168.00,94.40
2167.00,94.31
2166.00,94.23
2165.00,94.16
2164.00,94.07
2163.00,93.93
2162.00,93.77
2161.00,93.65
2160.00,93.67
2159.00,93.87
2158.00,94.19
2157.00,94.50
2156.00,94.71
2155.00,94.82
2154.00,94.86
2153.00,94.87
2152.00,94.87
2151.00,94.90
2150.00,94.98
2149.00,95.08
2148.00,95.19
2147.00,95.28
2146.00,95.37
2145.00,95.45
2144.00,95.53
2143.00,95.59
2142.00,95.64
2141.00,95.70
2140.00,95.75
2139.00,95.77
2138.00,95.79
2137.00,95.83
2136.00,95.93
2135.00,96.09
2134.00,96.26
2133.00,96.41
2132.00,96.49
2131.00,96.52
2130.00,96.52
2129.00,96.51
2128.00,96.51
2127.00,96.50
2126.00,96.52
2125.00,96.54
2124.00,96.56
2123.00,96.58
2122.00,96.60
2121.00,96.64
2120.00,96.67
2119.00,96.69
2118.00,96.69
2117.00,96.68
2116.00,96.65
2115.00,96.61
2114.00,96.56
2113.00,96.55
2112.00,96.55
2111.00,96.56
2110.00,96.56
2109.00,96.57
2108.00,96.57
2107.00,96.57
2106.00,96.57
2105.00,96.58
2104.00,96.59
2103.00,96.60
2102.00,96.60
2101.00,96.60
2100.00,96.60
2099.00,96.58
2098.00,96.56
2097.00,96.56
2096.00,96.58
2095.00,96.62
2094.00,96.66
2093.00,96.70
2092.00,96.72
2091.00,96.71
2090.00,96.64
2089.00,96.56
2088.00,96.50
2087.00,96.47
2086.00,96.48
2085.00,96.51
2084.00,96.54
2083.00,96.54
2082.00,96.50
2081.00,96.44
2080.00,96.38
2079.00,96.36
2078.00,96.37
2077.00,96.38
2076.00,96.36
2075.00,96.33
2074.00,96.29
2073.00,96.28
2072.00,96.29
2071.00,96.31
2070.00,96.33
2069.00,96.31
2068.00,96.28
2067.00,96.25
2066.00,96.25
2065.00,96.27
2064.00,96.29
2063.00,96.26
2062.00,96.22
2061.00,96.17
2060.00,96.14
2059.00,96.10
2058.00,96.03
2057.00,95.97
2056.00,95.93
2055.00,95.92
2054.00,95.90
2053.00,95.85
2052.00,95.75
2051.00,95.64
2050.00,95.54
2049.00,95.47
2048.00,95.41
2047.00,95.36
2046.00,95.31
2045.00,95.27
2044.00,95.22
2043.00,95.14
2042.00,95.07
2041.00,95.03
2040.00,95.02
2039.00,95.01
2038.00,94.95
2037.00,94.84
2036.00,94.72
2035.00,94.63
2034.00,94.62
2033.00,94.67
2032.00,94.72
2031.00,94.73
2030.00,94.71
2029.00,94.73
2028.00,94.76
2027.00,94.79
2026.00,94.79
2025.00,94.75
2024.00,94.70
2023.00,94.66
2022.00,94.64
2021.00,94.66
2020.00,94.72
2019.00,94.80
2018.00,94.88
2017.00,94.95
2016.00,94.99
2015.00,95.01
2014.00,95.02
2013.00,95.03
2012.00,95.04
2011.00,95.03
2010.00,95.02
2009.00,95.06
2008.00,95.14
2007.00,95.25
2006.00,95.33
2005.00,95.38
2004.00,95.41
2003.00,95.42
2002.00,95.43
2001.00,95.42
2000.00,95.41
1999.00,95.40
1998.00,95.39
1997.00,95.40
1996.00,95.42
1995.00,95.43
1994.00,95.42
1993.00,95.41
1992.00,95.43
1991.00,95.45
1990.00,95.47
1989.00,95.43
1988.00,95.35
1987.00,95.24
1986.00,95.14
1985.00,95.09
1984.00,95.08
1983.00,95.06
1982.00,95.01
1981.00,94.93
1980.00,94.86
1979.00,94.83
1978.00,94.85
1977.00,94.92
1976.00,94.99
1975.00,95.05
1974.00,95.12
1973.00,95.20
1972.00,95.27
1971.00,95.31
1970.00,95.34
1969.00,95.37
1968.00,95.42
1967.00,95.49
1966.00,95.57
1965.00,95.65
1964.00,95.70
1963.00,95.70
1962.00,95.69
1961.00,95.70
1960.00,95.74
1959.00,95.80
1958.00,95.86
1957.00,95.91
1956.00,95.97
1955.00,96.05
1954.00,96.16
1953.00,96.28
1952.00,96.38
1951.00,96.43
1950.00,96.42
1949.00,96.38
1948.00,96.35
1947.00,96.33
1946.00,96.34
1945.00,96.39
1944.00,96.46
1943.00,96.53
1942.00,96.58
1941.00,96.63
1940.00,96.67
1939.00,96.70
1938.00,96.70
1937.00,96.71
1936.00,96.73
1935.00,96.76
1934.00,96.80
1933.00,96.84
1932.00,96.89
1931.00,96.93
1930.00,96.95
1929.00,96.96
1928.00,96.96
1927.00,96.99
1926.00,97.04
1925.00,97.10
1924.00,97.16
1923.00,97.19
1922.00,97.20
1921.00,97.18
1920.00,97.18
1919.00,97.19
1918.00,97.21
1917.00,97.22
1916.00,97.22
1915.00,97.22
1914.00,97.23
1913.00,97.26
1912.00,97.29
1911.00,97.33
1910.00,97.36
1909.00,97.39
1908.00,97.40
1907.00,97.39
1906.00,97.37
1905.00,97.34
1904.00,97.33
1903.00,97.33
1902.00,97.34
1901.00,97.38
1900.00,97.41
1899.00,97.45
1898.00,97.47
1897.00,97.49
1896.00,97.50
1895.00,97.50
1894.00,97.50
1893.00,97.51
1892.00,97.54
1891.00,97.58
1890.00,97.61
1889.00,97.63
1888.00,97.64
1887.00,97.63
1886.00,97.62
1885.00,97.60
1884.00,97.59
1883.00,97.59
1882.00,97.61
1881.00,97.62
1880.00,97.64
1879.00,97.65
1878.00,97.66
1877.00,97.67
1876.00,97.69
1875.00,97.70
1874.00,97.70
1873.00,97.71
1872.00,97.72
1871.00,97.74
1870.00,97.74
1869.00,97.75
1868.00,97.75
1867.00,97.76
1866.00,97.76
1865.00,97.74
1864.00,97.74
1863.00,97.75
1862.00,97.77
1861.00,97.81
1860.00,97.83
1859.00,97.84
1858.00,97.85
1857.00,97.86
1856.00,97.88
1855.00,97.88
1854.00,97.88
1853.00,97.87
1852.00,97.87
1851.00,97.89
1850.00,97.91
1849.00,97.94
1848.00,97.96
1847.00,97.96
1846.00,97.97
1845.00,97.97
1844.00,97.98
1843.00,97.98
1842.00,97.98
1841.00,97.99
1840.00,98.00
1839.00,98.01
1838.00,98.03
1837.00,98.05
1836.00,98.07
1835.00,98.08
1834.00,98.08
1833.00,98.08
1832.00,98.09
1831.00,98.11
1830.00,98.12
1829.00,98.12
1828.00,98.13
1827.00,98.14
1826.00,98.14
1825.00,98.13
1824.00,98.11
1823.00,98.10
1822.00,98.11
1821.00,98.13
1820.00,98.16
1819.00,98.18
1818.00,98.20
1817.00,98.21
1816.00,98.22
1815.00,98.24
1814.00,98.26
1813.00,98.27
1812.00,98.27
1811.00,98.26
1810.00,98.26
1809.00,98.27
1808.00,98.28
1807.00,98.29
1806.00,98.30
1805.00,98.31
1804.00,98.31
1803.00,98.32
1802.00,98.31
1801.00,98.31
1800.00,98.31
1799.00,98.31
1798.00,98.31
1797.00,98.31
1796.00,98.31
1795.00,98.32
1794.00,98.32
1793.00,98.34
1792.00,98.35
1791.00,98.36
1790.00,98.36
1789.00,98.36
1788.00,98.35
1787.00,98.35
1786.00,98.35
1785.00,98.36
1784.00,98.37
1783.00,98.37
1782.00,98.36
1781.00,98.35
1780.00,98.35
1779.00,98.35
1778.00,98.36
1777.00,98.38
1776.00,98.39
1775.00,98.40
1774.00,98.40
1773.00,98.39
1772.00,98.38
1771.00,98.38
1770.00,98.37
1769.00,98.36
1768.00,98.35
1767.00,98.35
1766.00,98.36
1765.00,98.37
1764.00,98.38
1763.00,98.37
1762.00,98.36
1761.00,98.34
1760.00,98.33
1759.00,98.32
1758.00,98.30
1757.00,98.28
1756.00,98.25
1755.00,98.23
1754.00,98.20
1753.00,98.16
1752.00,98.12
1751.00,98.06
1750.00,98.01
1749.00,97.93
1748.00,97.84
1747.00,97.73
1746.00,97.60
1745.00,97.47
1744.00,97.34
1743.00,97.22
1742.00,97.09
1741.00,96.95
1740.00,96.80
1739.00,96.65
1738.00,96.53
1737.00,96.43
1736.00,96.34
1735.00,96.23
1734.00,96.12
1733.00,96.06
1732.00,96.03
1731.00,96.02
1730.00,96.02
1729.00,96.03
1728.00,96.08
1727.00,96.15
1726.00,96.23
1725.00,96.33
1724.00,96.44
1723.00,96.56
1722.00,96.68
1721.00,96.79
1720.00,96.91
1719.00,97.04
1718.00,97.19
1717.00,97.33
1716.00,97.42
1715.00,97.49
1714.00,97.55
1713.00,97.61
1712.00,97.67
1711.00,97.73
1710.00,97.79
1709.00,97.85
1708.00,97.91
1707.00,97.97
1706.00,98.02
1705.00,98.05
1704.00,98.06
1703.00,98.06
1702.00,98.07
1701.00,98.08
1700.00,98.10
1699.00,98.14
1698.00,98.17
1697.00,98.18
1696.00,98.18
1695.00,98.18
1694.00,98.19
1693.00,98.20
1692.00,98.20
1691.00,98.21
1690.00,98.21
1689.00,98.22
1688.00,98.23
1687.00,98.24
1686.00,98.24
1685.00,98.25
1684.00,98.26
1683.00,98.26
1682.00,98.26
1681.00,98.24
1680.00,98.20
1679.00,98.17
1678.00,98.16
1677.00,98.14
1676.00,98.12
1675.00,98.09
1674.00,98.07
1673.00,98.05
1672.00,98.04
1671.00,98.02
1670.00,97.99
1669.00,97.97
1668.00,97.95
1667.00,97.93
1666.00,97.93
1665.00,97.93
1664.00,97.93
1663.00,97.93
1662.00,97.95
1661.00,97.97
1660.00,97.99
1659.00,98.01
1658.00,98.04
1657.00,98.08
1656.00,98.10
1655.00,98.11
1654.00,98.11
1653.00,98.11
1652.00,98.14
1651.00,98.18
1650.00,98.20
1649.00,98.21
1648.00,98.21
1647.00,98.22
1646.00,98.22
1645.00,98.22
1644.00,98.21
1643.00,98.21
1642.00,98.20
1641.00,98.20
1640.00,98.19
1639.00,98.19
1638.00,98.17
1637.00,98.16
1636.00,98.16
1635.00,98.16
1634.00,98.17
1633.00,98.17
1632.00,98.16
1631.00,98.15
1630.00,98.14
1629.00,98.13
1628.00,98.13
1627.00,98.14
1626.00,98.14
1625.00,98.14
1624.00,98.13
1623.00,98.14
1622.00,98.15
1621.00,98.16
1620.00,98.16
1619.00,98.16
1618.00,98.16
1617.00,98.17
1616.00,98.18
1615.00,98.21
1614.00,98.23
1613.00,98.25
1612.00,98.27
1611.00,98.30
1610.00,98.32
1609.00,98.33
1608.00,98.34
1607.00,98.33
1606.00,98.33
1605.00,98.34
1604.00,98.35
1603.00,98.36
1602.00,98.37
1601.00,98.38
1600.00,98.40
1599.00,98.41
1598.00,98.41
1597.00,98.40
1596.00,98.39
1595.00,98.40
1594.00,98.42
1593.00,98.45
1592.00,98.48
1591.00,98.50
1590.00,98.52
1589.00,98.52
1588.00,98.51
1587.00,98.49
1586.00,98.47
1585.00,98.47
1584.00,98.47
1583.00,98.47
1582.00,98.49
1581.00,98.51
1580.00,98.54
1579.00,98.56
1578.00,98.56
1577.00,98.55
1576.00,98.53
1575.00,98.53
1574.00,98.54
1573.00,98.54
1572.00,98.55
1571.00,98.56
1570.00,98.58
1569.00,98.59
1568.00,98.59
1567.00,98.57
1566.00,98.56
1565.00,98.55
1564.00,98.56
1563.00,98.57
1562.00,98.57
1561.00,98.57
1560.00,98.57
1559.00,98.57
1558.00,98.57
1557.00,98.57
1556.00,98.57
1555.00,98.58
1554.00,98.59
1553.00,98.60
1552.00,98.61
1551.00,98.61
1550.00,98.62
1549.00,98.63
1548.00,98.63
1547.00,98.63
1546.00,98.62
1545.00,98.61
1544.00,98.60
1543.00,98.59
1542.00,98.60
1541.00,98.60
1540.00,98.61
1539.00,98.61
1538.00,98.61
1537.00,98.61
1536.00,98.61
1535.00,98.62
1534.00,98.63
1533.00,98.64
1532.00,98.64
1531.00,98.64
1530.00,98.64
1529.00,98.63
1528.00,98.63
1527.00,98.64
1526.00,98.64
1525.00,98.64
1524.00,98.63
1523.00,98.62
1522.00,98.62
1521.00,98.63
1520.00,98.66
1519.00,98.68
1518.00,98.68
1517.00,98.67
1516.00,98.66
1515.00,98.65
1514.00,98.64
1513.00,98.63
1512.00,98.62
1511.00,98.62
1510.00,98.63
1509.00,98.62
1508.00,98.59
1507.00,98.57
1506.00,98.58
1505.00,98.60
1504.00,98.63
1503.00,98.64
1502.00,98.65
1501.00,98.65
1500.00,98.63
1499.00,98.61
1498.00,98.60
1497.00,98.59
1496.00,98.58
1495.00,98.59
1494.00,98.59
1493.00,98.59
1492.00,98.58
1491.00,98.58
1490.00,98.58
1489.00,98.59
1488.00,98.59
1487.00,98.59
1486.00,98.59
1485.00,98.58
1484.00,98.56
1483.00,98.56
1482.00,98.57
1481.00,98.58
1480.00,98.59
1479.00,98.62
1478.00,98.65
1477.00,98.65
1476.00,98.64
1475.00,98.61
1474.00,98.58
1473.00,98.53
1472.00,98.49
1471.00,98.45
1470.00,98.43
1469.00,98.39
1468.00,98.34
1467.00,98.27
1466.00,98.15
1465.00,97.98
1464.00,97.78
1463.00,97.59
1462.00,97.39
1461.00,97.18
1460.00,96.94
1459.00,96.67
1458.00,96.34
1457.00,95.99
1456.00,95.72
1455.00,95.55
1454.00,95.45
1453.00,95.36
1452.00,95.30
1451.00,95.27
1450.00,95.28
1449.00,95.32
1448.00,95.39
1447.00,95.49
1446.00,95.60
1445.00,95.73
1444.00,95.86
1443.00,96.00
1442.00,96.13
1441.00,96.26
1440.00,96.38
1439.00,96.49
1438.00,96.61
1437.00,96.73
1436.00,96.85
1435.00,96.96
1434.00,97.06
1433.00,97.16
1432.00,97.26
1431.00,97.37
1430.00,97.48
1429.00,97.60
1428.00,97.71
1427.00,97.80
1426.00,97.88
1425.00,97.95
1424.00,98.01
1423.00,98.05
1422.00,98.09
1421.00,98.13
1420.00,98.17
1419.00,98.21
1418.00,98.25
1417.00,98.28
1416.00,98.29
1415.00,98.30
1414.00,98.31
1413.00,98.31
1412.00,98.32
1411.00,98.32
1410.00,98.33
1409.00,98.34
1408.00,98.35
1407.00,98.36
1406.00,98.36
1405.00,98.37
1404.00,98.37
1403.00,98.37
1402.00,98.37
1401.00,98.38
1400.00,98.38
1399.00,98.37
1398.00,98.34
1397.00,98.31
1396.00,98.28
1395.00,98.23
1394.00,98.19
1393.00,98.16
1392.00,98.13
1391.00,98.11
1390.00,98.08
1389.00,98.04
1388.00,98.00
1387.00,97.96
1386.00,97.93
1385.00,97.90
1384.00,97.89
1383.00,97.88
1382.00,97.87
1381.00,97.87
1380.00,97.86
1379.00,97.83
1378.00,97.81
1377.00,97.78
1376.00,97.75
1375.00,97.71
1374.00,97.68
1373.00,97.64
1372.00,97.62
1371.00,97.59
1370.00,97.56
1369.00,97.54
1368.00,97.52
1367.00,97.50
1366.00,97.47
1365.00,97.45
1364.00,97.42
1363.00,97.40
1362.00,97.39
1361.00,97.39
1360.00,97.38
1359.00,97.37
1358.00,97.35
1357.00,97.33
1356.00,97.33
1355.00,97.32
1354.00,97.33
1353.00,97.33
1352.00,97.33
1351.00,97.33
1350.00,97.34
1349.00,97.35
1348.00,97.37
1347.00,97.40
1346.00,97.43
1345.00,97.47
1344.00,97.50
1343.00,97.54
1342.00,97.57
1341.00,97.60
1340.00,97.63
1339.00,97.65
1338.00,97.66
1337.00,97.67
1336.00,97.69
1335.00,97.71
1334.00,97.73
1333.00,97.75
1332.00,97.77
1331.00,97.79
1330.00,97.81
1329.00,97.82
1328.00,97.83
1327.00,97.83
1326.00,97.83
1325.00,97.84
1324.00,97.86
1323.00,97.88
1322.00,97.88
1321.00,97.89
1320.00,97.89
1319.00,97.89
1318.00,97.88
1317.00,97.88
1316.00,97.88
1315.00,97.88
1314.00,97.89
1313.00,97.88
1312.00,97.88
1311.00,97.87
1310.00,97.88
1309.00,97.90
1308.00,97.91
1307.00,97.93
1306.00,97.93
1305.00,97.94
1304.00,97.94
1303.00,97.95
1302.00,97.96
1301.00,97.97
1300.00,97.97
1299.00,97.97
1298.00,97.97
1297.00,97.97
1296.00,97.97
1295.00,97.97
1294.00,97.96
1293.00,97.95
1292.00,97.94
1291.00,97.94
1290.00,97.94
1289.00,97.93
1288.00,97.92
1287.00,97.91
1286.00,97.90
1285.00,97.88
1284.00,97.85
1283.00,97.81
1282.00,97.78
1281.00,97.75
1280.00,97.73
1279.00,97.72
1278.00,97.70
1277.00,97.68
1276.00,97.66
1275.00,97.63
1274.00,97.62
1273.00,97.60
1272.00,97.59
1271.00,97.58
1270.00,97.57
1269.00,97.57
1268.00,97.57
1267.00,97.56
1266.00,97.54
1265.00,97.52
1264.00,97.49
1263.00,97.47
1262.00,97.45
1261.00,97.43
1260.00,97.41
1259.00,97.38
1258.00,97.36
1257.00,97.34
1256.00,97.33
1255.00,97.32
1254.00,97.30
1253.00,97.28
1252.00,97.25
1251.00,97.23
1250.00,97.21
1249.00,97.19
1248.00,97.19
1247.00,97.19
1246.00,97.21
1245.00,97.23
1244.00,97.25
1243.00,97.27
1242.00,97.28
1241.00,97.28
1240.00,97.27
1239.00,97.26
1238.00,97.24
1237.00,97.22
1236.00,97.20
1235.00,97.18
1234.00,97.16
1233.00,97.13
1232.00,97.10
1231.00,97.07
1230.00,97.06
1229.00,97.06
1228.00,97.06
1227.00,97.07
1226.00,97.08
1225.00,97.08
1224.00,97.07
1223.00,97.06
1222.00,97.05
1221.00,97.04
1220.00,97.03
1219.00,97.02
1218.00,97.02
1217.00,97.03
1216.00,97.04
1215.00,97.05
1214.00,97.06
1213.00,97.06
1212.00,97.05
1211.00,97.04
1210.00,97.04
1209.00,97.04
1208.00,97.05
1207.00,97.04
1206.00,97.01
1205.00,96.97
1204.00,96.94
1203.00,96.94
1202.00,96.95
1201.00,96.96
1200.00,96.97
1199.00,96.97
1198.00,96.98
1197.00,96.98
1196.00,97.00
1195.00,97.01
1194.00,97.02
1193.00,97.04
1192.00,97.07
1191.00,97.12
1190.00,97.17
1189.00,97.23
1188.00,97.25
1187.00,97.25
1186.00,97.24
1185.00,97.22
1184.00,97.20
1183.00,97.18
1182.00,97.17
1181.00,97.15
1180.00,97.12
1179.00,97.09
1178.00,97.04
1177.00,96.98
1176.00,96.93
1175.00,96.87
1174.00,96.83
1173.00,96.80
1172.00,96.77
1171.00,96.74
1170.00,96.71
1169.00,96.69
1168.00,96.69
1167.00,96.70
1166.00,96.74
1165.00,96.81
1164.00,96.89
1163.00,96.97
1162.00,97.03
1161.00,97.10
1160.00,97.19
1159.00,97.28
1158.00,97.39
1157.00,97.49
1156.00,97.58
1155.00,97.66
1154.00,97.71
1153.00,97.76
1152.00,97.81
1151.00,97.85
1150.00,97.91
1149.00,97.97
1148.00,98.03
1147.00,98.09
1146.00,98.12
1145.00,98.14
1144.00,98.15
1143.00,98.16
1142.00,98.17
1141.00,98.18
1140.00,98.20
1139.00,98.23
1138.00,98.27
1137.00,98.29
1136.00,98.30
1135.00,98.30
1134.00,98.29
1133.00,98.28
1132.00,98.27
1131.00,98.26
1130.00,98.26
1129.00,98.25
1128.00,98.23
1127.00,98.20
1126.00,98.18
1125.00,98.18
1124.00,98.18
1123.00,98.16
1122.00,98.12
1121.00,98.07
1120.00,98.04
1119.00,98.01
1118.00,97.99
1117.00,97.98
1116.00,97.95
1115.00,97.92
1114.00,97.88
1113.00,97.85
1112.00,97.85
1111.00,97.86
1110.00,97.87
1109.00,97.87
1108.00,97.85
1107.00,97.82
1106.00,97.79
1105.00,97.77
1104.00,97.75
1103.00,97.73
1102.00,97.72
1101.00,97.70
1100.00,97.69
1099.00,97.68
1098.00,97.68
1097.00,97.69
1096.00,97.70
1095.00,97.68
1094.00,97.64
1093.00,97.58
1092.00,97.52
1091.00,97.48
1090.00,97.47
1089.00,97.48
1088.00,97.48
1087.00,97.47
1086.00,97.43
1085.00,97.39
1084.00,97.35
1083.00,97.31
1082.00,97.28
1081.00,97.26
1080.00,97.23
1079.00,97.20
1078.00,97.16
1077.00,97.13
1076.00,97.10
1075.00,97.07
1074.00,97.04
1073.00,97.03
1072.00,97.02
1071.00,97.01
1070.00,97.00
1069.00,96.98
1068.00,96.97
1067.00,96.95
1066.00,96.95
1065.00,96.99
1064.00,97.05
1063.00,97.12
1062.00,97.17
1061.00,97.19
1060.00,97.20
1059.00,97.22
1058.00,97.25
1057.00,97.31
1056.00,97.38
1055.00,97.44
1054.00,97.48
1053.00,97.50
1052.00,97.53
1051.00,97.56
1050.00,97.59
1049.00,97.61
1048.00,97.60
1047.00,97.59
1046.00,97.57
1045.00,97.57
1044.00,97.56
1043.00,97.56
1042.00,97.57
1041.00,97.57
1040.00,97.57
1039.00,97.57
1038.00,97.59
1037.00,97.62
1036.00,97.66
1035.00,97.73
1034.00,97.80
1033.00,97.87
1032.00,97.93
1031.00,97.97
1030.00,97.99
1029.00,98.00
1028.00,98.02
1027.00,98.04
1026.00,98.07
1025.00,98.11
1024.00,98.15
1023.00,98.18
1022.00,98.18
1021.00,98.16
1020.00,98.15
1019.00,98.18
1018.00,98.22
1017.00,98.26
1016.00,98.29
1015.00,98.29
1014.00,98.26
1013.00,98.23
1012.00,98.21
1011.00,98.21
1010.00,98.22
1009.00,98.24
1008.00,98.26
1007.00,98.27
1006.00,98.29
1005.00,98.30
1004.00,98.32
1003.00,98.34
1002.00,98.36
1001.00,98.39
1000.00,98.41
999.00,98.44
998.00,98.45
997.00,98.46
996.00,98.47
995.00,98.48
994.00,98.49
993.00,98.48
992.00,98.47
991.00,98.46
990.00,98.45
989.00,98.46
988.00,98.47
987.00,98.49
986.00,98.50
985.00,98.50
984.00,98.49
983.00,98.49
982.00,98.49
981.00,98.47
980.00,98.45
979.00,98.44
978.00,98.45
977.00,98.47
976.00,98.49
975.00,98.50
974.00,98.49
973.00,98.48
972.00,98.47
971.00,98.47
970.00,98.46
969.00,98.44
968.00,98.44
967.00,98.44
966.00,98.46
965.00,98.48
964.00,98.49
963.00,98.49
962.00,98.48
961.00,98.46
960.00,98.45
959.00,98.47
958.00,98.50
957.00,98.53
956.00,98.53
955.00,98.51
954.00,98.49
953.00,98.49
952.00,98.50
951.00,98.53
950.00,98.55
949.00,98.57
948.00,98.58
947.00,98.58
946.00,98.58
945.00,98.59
944.00,98.60
943.00,98.59
942.00,98.59
941.00,98.59
940.00,98.61
939.00,98.63
938.00,98.65
937.00,98.66
936.00,98.67
935.00,98.66
934.00,98.64
933.00,98.63
932.00,98.63
931.00,98.65
930.00,98.68
929.00,98.71
928.00,98.72
927.00,98.72
926.00,98.72
925.00,98.74
924.00,98.75
923.00,98.76
922.00,98.75
921.00,98.73
920.00,98.72
919.00,98.70
918.00,98.71
917.00,98.73
916.00,98.76
915.00,98.79
914.00,98.81
913.00,98.81
912.00,98.80
911.00,98.78
910.00,98.76
909.00,98.75
908.00,98.77
907.00,98.78
906.00,98.80
905.00,98.80
904.00,98.80
903.00,98.81
902.00,98.82
901.00,98.83
900.00,98.86
899.00,98.90
898.00,98.94
897.00,98.97
896.00,98.98
895.00,98.97
894.00,98.96
893.00,98.96
892.00,98.97
891.00,98.96
890.00,98.93
889.00,98.88
888.00,98.83
887.00,98.80
886.00,98.81
885.00,98.84
884.00,98.87
883.00,98.90
882.00,98.92
881.00,98.93
880.00,98.93
879.00,98.91
878.00,98.88
877.00,98.87
876.00,98.87
875.00,98.88
874.00,98.88
873.00,98.88
872.00,98.89
871.00,98.92
870.00,98.94
869.00,98.95
868.00,98.96
867.00,98.96
866.00,98.97
865.00,98.98
864.00,98.97
863.00,98.94
862.00,98.91
861.00,98.89
860.00,98.88
859.00,98.88
858.00,98.91
857.00,98.96
856.00,99.01
855.00,99.01
854.00,98.99
853.00,98.95
852.00,98.93
851.00,98.91
850.00,98.91
849.00,98.90
848.00,98.90
847.00,98.91
846.00,98.91
845.00,98.90
844.00,98.89
843.00,98.87
842.00,98.85
841.00,98.84
840.00,98.84
839.00,98.83
838.00,98.82
837.00,98.82
836.00,98.83
835.00,98.84
834.00,98.84
833.00,98.83
832.00,98.82
831.00,98.81
830.00,98.80
829.00,98.82
828.00,98.85
827.00,98.86
826.00,98.85
825.00,98.82
824.00,98.80
823.00,98.81
822.00,98.83
821.00,98.84
820.00,98.83
819.00,98.81
818.00,98.78
817.00,98.78
816.00,98.78
815.00,98.79
814.00,98.80
813.00,98.82
812.00,98.86
811.00,98.88
810.00,98.88
809.00,98.85
808.00,98.83
807.00,98.84
806.00,98.85
805.00,98.87
804.00,98.89
803.00,98.90
802.00,98.90
801.00,98.89
800.00,98.87
799.00,98.85
798.00,98.82
797.00,98.80
796.00,98.78
795.00,98.78
794.00,98.80
793.00,98.83
792.00,98.87
791.00,98.88
790.00,98.86
789.00,98.83
788.00,98.81
787.00,98.81
786.00,98.81
785.00,98.80
784.00,98.76
783.00,98.72
782.00,98.69
781.00,98.70
780.00,98.73
779.00,98.76
778.00,98.78
777.00,98.78
776.00,98.77
775.00,98.77
774.00,98.78
773.00,98.79
772.00,98.82
771.00,98.84
770.00,98.84
769.00,98.84
768.00,98.83
767.00,98.83
766.00,98.82
765.00,98.82
764.00,98.82
763.00,98.83
762.00,98.85
761.00,98.87
760.00,98.89
759.00,98.91
758.00,98.92
757.00,98.91
756.00,98.88
755.00,98.85
754.00,98.85
753.00,98.88
752.00,98.93
751.00,98.95
750.00,98.95
749.00,98.93
748.00,98.93
747.00,98.94
746.00,98.97
745.00,98.99
744.00,99.00
743.00,98.97
742.00,98.94
741.00,98.93
740.00,98.96
739.00,99.00
738.00,99.03
737.00,99.04
736.00,99.06
735.00,99.10
734.00,99.14
733.00,99.15
732.00,99.13
731.00,99.12
730.00,99.15
729.00,99.22
728.00,99.28
727.00,99.33
726.00,99.34
725.00,99.33
724.00,99.32
723.00,99.32
722.00,99.33
721.00,99.32
720.00,99.31
719.00,99.31
718.00,99.32
717.00,99.35
716.00,99.37
715.00,99.38
714.00,99.37
713.00,99.31
712.00,99.25
711.00,99.20
710.00,99.23
709.00,99.31
708.00,99.39
707.00,99.41
706.00,99.40
705.00,99.40
704.00,99.41
703.00,99.43
702.00,99.44
701.00,99.45
700.00,99.48
699.00,99.49
698.00,99.48
697.00,99.43
696.00,99.39
695.00,99.37
694.00,99.37
693.00,99.35
692.00,99.31
691.00,99.25
690.00,99.20
689.00,99.18
688.00,99.21
687.00,99.27
686.00,99.32
685.00,99.32
684.00,99.26
683.00,99.20
682.00,99.18
681.00,99.19
680.00,99.22
679.00,99.23
678.00,99.20
677.00,99.14
676.00,99.09
675.00,99.08
674.00,99.10
673.00,99.16
672.00,99.21
671.00,99.21
670.00,99.10
669.00,98.93
668.00,98.78
667.00,98.84
666.00,99.06
665.00,99.27
664.00,99.36
663.00,99.36
662.00,99.31
661.00,99.23
660.00,99.15
659.00,99.07
658.00,99.04
657.00,99.06
656.00,99.13
655.00,99.23
654.00,99.34
653.00,99.43
652.00,99.49
651.00,99.52
650.00,99.51
649.00,99.47
648.00,99.42
647.00,99.37
646.00,99.36
645.00,99.38
644.00,99.41
643.00,99.41
642.00,99.38
641.00,99.31
640.00,99.21
639.00,99.14
638.00,99.13
637.00,99.13
636.00,99.07
635.00,98.97
634.00,98.97
633.00,99.17
632.00,99.49
631.00,99.75
630.00,99.84
629.00,99.78
628.00,99.64
627.00,99.42
626.00,99.19
625.00,99.02
624.00,98.99
623.00,99.06
622.00,99.16
621.00,99.32
620.00,99.55
619.00,99.80
618.00,99.95
617.00,99.96
616.00,99.88
615.00,99.76
614.00,99.62
613.00,99.45
612.00,99.25
611.00,99.05
610.00,98.94
609.00,98.98
608.00,99.14
607.00,99.37
606.00,99.59
605.00,99.75
604.00,99.74
603.00,99.36
602.00,98.57
601.00,97.69
600.00,97.24
599.00,97.55
598.00,98.43
597.00,99.30
596.00,99.70
595.00,99.58
594.00,99.29
593.00,99.18
592.00,99.38
591.00,99.68
590.00,99.79
589.00,99.67
588.00,99.54
587.00,99.61
586.00,99.81
585.00,99.92
584.00,99.85
583.00,99.71
582.00,99.66
581.00,99.75
580.00,99.93
579.00,100.05
578.00,99.88
577.00,99.27
576.00,98.41
575.00,97.78
574.00,97.69
573.00,97.86
572.00,97.83
571.00,97.57
570.00,97.48
569.00,97.79
568.00,98.25
567.00,98.48
566.00,98.36
565.00,98.08
564.00,97.90
563.00,97.84
562.00,97.80
561.00,97.62
560.00,97.22
559.00,96.71
558.00,96.29
557.00,96.16
556.00,96.40
555.00,97.06
554.00,98.00
553.00,98.85
552.00,99.16
551.00,98.72
550.00,97.81
