Created as New Dataset,10. Acrylic Bayer
cm-1,%T
4000.00,99.30
3999.00,99.31
3998.00,99.33
3997.00,99.35
3996.00,99.37
3995.00,99.38
3994.00,99.39
3993.00,99.40
3992.00,99.40
3991.00,99.39
3990.00,99.38
3989.00,99.37
3988.00,99.36
3987.00,99.34
3986.00,99.33
3985.00,99.33
3984.00,99.33
3983.00,99.33
3982.00,99.33
3981.00,99.33
3980.00,99.32
3979.00,99.31
3978.00,99.31
3977.00,99.32
3976.00,99.33
3975.00,99.34
3974.00,99.35
3973.00,99.35
3972.00,99.35
3971.00,99.35
3970.00,99.36
3969.00,99.37
3968.00,99.38
3967.00,99.38
3966.00,99.38
3965.00,99.37
3964.00,99.36
3963.00,99.35
3962.00,99.34
3961.00,99.35
3960.00,99.35
3959.00,99.35
3958.00,99.34
3957.00,99.32
3956.00,99.31
3955.00,99.31
3954.00,99.31
3953.00,99.33
3952.00,99.34
3951.00,99.35
3950.00,99.36
3949.00,99.36
3948.00,99.37
3947.00,99.37
3946.00,99.36
3945.00,99.34
3944.00,99.31
3943.00,99.30
3942.00,99.31
3941.00,99.33
3940.00,99.35
3939.00,99.34
3938.00,99.33
3937.00,99.32
3936.00,99.33
3935.00,99.33
3934.00,99.34
3933.00,99.34
3932.00,99.35
3931.00,99.36
3930.00,99.38
3929.00,99.38
3928.00,99.36
3927.00,99.34
3926.00,99.33
3925.00,99.32
3924.00,99.33
3923.00,99.35
3922.00,99.36
3921.00,99.37
3920.00,99.36
3919.00,99.35
3918.00,99.33
3917.00,99.30
3916.00,99.28
3915.00,99.27
3914.00,99.26
3913.00,99.25
3912.00,99.25
3911.00,99.24
3910.00,99.24
3909.00,99.24
3908.00,99.26
3907.00,99.30
3906.00,99.35
3905.00,99.40
3904.00,99.42
3903.00,99.43
3902.00,99.43
3901.00,99.43
3900.00,99.42
3899.00,99.42
3898.00,99.41
3897.00,99.39
3896.00,99.37
3895.00,99.37
3894.00,99.38
3893.00,99.38
3892.00,99.38
3891.00,99.36
3890.00,99.36
3889.00,99.35
3888.00,99.34
3887.00,99.33
3886.00,99.34
3885.00,99.36
3884.00,99.39
3883.00,99.40
3882.00,99.39
3881.00,99.37
3880.00,99.35
3879.00,99.35
3878.00,99.36
3877.00,99.35
3876.00,99.33
3875.00,99.32
3874.00,99.32
3873.00,99.35
3872.00,99.38
3871.00,99.40
3870.00,99.41
3869.00,99.42
3868.00,99.43
3867.00,99.43
3866.00,99.42
3865.00,99.42
3864.00,99.42
3863.00,99.41
3862.00,99.39
3861.00,99.37
3860.00,99.36
3859.00,99.35
3858.00,99.36
3857.00,99.39
3856.00,99.44
3855.00,99.48
3854.00,99.48
3853.00,99.47
3852.00,99.47
3851.00,99.48
3850.00,99.45
3849.00,99.42
3848.00,99.39
3847.00,99.37
3846.00,99.35
3845.00,99.33
3844.00,99.32
3843.00,99.33
3842.00,99.36
3841.00,99.40
3840.00,99.43
3839.00,99.45
3838.00,99.45
3837.00,99.45
3836.00,99.45
3835.00,99.45
3834.00,99.43
3833.00,99.40
3832.00,99.35
3831.00,99.32
3830.00,99.30
3829.00,99.30
3828.00,99.30
3827.00,99.31
3826.00,99.32
3825.00,99.34
3824.00,99.37
3823.00,99.38
3822.00,99.38
3821.00,99.38
3820.00,99.39
3819.00,99.40
3818.00,99.38
3817.00,99.36
3816.00,99.33
3815.00,99.33
3814.00,99.34
3813.00,99.33
3812.00,99.31
3811.00,99.29
3810.00,99.28
3809.00,99.26
3808.00,99.24
3807.00,99.24
3806.00,99.27
3805.00,99.31
3804.00,99.35
3803.00,99.37
3802.00,99.37
3801.00,99.35
3800.00,99.34
3799.00,99.32
3798.00,99.28
3797.00,99.25
3796.00,99.23
3795.00,99.22
3794.00,99.22
3793.00,99.22
3792.00,99.23
3791.00,99.23
3790.00,99.23
3789.00,99.23
3788.00,99.22
3787.00,99.21
3786.00,99.20
3785.00,99.20
3784.00,99.21
3783.00,99.22
3782.00,99.23
3781.00,99.24
3780.00,99.25
3779.00,99.27
3778.00,99.28
3777.00,99.27
3776.00,99.25
3775.00,99.23
3774.00,99.22
3773.00,99.23
3772.00,99.23
3771.00,99.24
3770.00,99.25
3769.00,99.27
3768.00,99.28
3767.00,99.28
3766.00,99.26
3765.00,99.24
3764.00,99.23
3763.00,99.23
3762.00,99.23
3761.00,99.23
3760.00,99.22
3759.00,99.20
3758.00,99.20
3757.00,99.20
3756.00,99.22
3755.00,99.25
3754.00,99.29
3753.00,99.32
3752.00,99.35
3751.00,99.36
3750.00,99.36
3749.00,99.36
3748.00,99.37
3747.00,99.37
3746.00,99.35
3745.00,99.32
3744.00,99.30
3743.00,99.31
3742.00,99.32
3741.00,99.30
3740.00,99.28
3739.00,99.28
3738.00,99.30
3737.00,99.32
3736.00,99.31
3735.00,99.30
3734.00,99.29
3733.00,99.28
3732.00,99.27
3731.00,99.27
3730.00,99.27
3729.00,99.26
3728.00,99.24
3727.00,99.23
3726.00,99.22
3725.00,99.23
3724.00,99.24
3723.00,99.24
3722.00,99.24
3721.00,99.22
3720.00,99.21
3719.00,99.20
3718.00,99.20
3717.00,99.20
3716.00,99.20
3715.00,99.21
3714.00,99.23
3713.00,99.23
3712.00,99.23
3711.00,99.22
3710.00,99.21
3709.00,99.20
3708.00,99.19
3707.00,99.18
3706.00,99.18
3705.00,99.18
3704.00,99.18
3703.00,99.17
3702.00,99.16
3701.00,99.16
3700.00,99.15
3699.00,99.13
3698.00,99.11
3697.00,99.10
3696.00,99.11
3695.00,99.14
3694.00,99.16
3693.00,99.17
3692.00,99.18
3691.00,99.18
3690.00,99.17
3689.00,99.16
3688.00,99.16
3687.00,99.16
3686.00,99.15
3685.00,99.13
3684.00,99.11
3683.00,99.10
3682.00,99.10
3681.00,99.09
3680.00,99.10
3679.00,99.12
3678.00,99.16
3677.00,99.20
3676.00,99.20
3675.00,99.21
3674.00,99.23
3673.00,99.25
3672.00,99.24
3671.00,99.20
3670.00,99.15
3669.00,99.11
3668.00,99.11
3667.00,99.12
3666.00,99.12
3665.00,99.11
3664.00,99.09
3663.00,99.07
3662.00,99.04
3661.00,99.02
3660.00,99.02
3659.00,99.04
3658.00,99.08
3657.00,99.13
3656.00,99.16
3655.00,99.18
3654.00,99.18
3653.00,99.16
3652.00,99.13
3651.00,99.10
3650.00,99.06
3649.00,99.03
3648.00,99.02
3647.00,99.01
3646.00,99.01
3645.00,99.01
3644.00,99.00
3643.00,98.99
3642.00,98.97
3641.00,98.95
3640.00,98.93
3639.00,98.92
3638.00,98.93
3637.00,98.94
3636.00,98.94
3635.00,98.94
3634.00,98.93
3633.00,98.94
3632.00,98.96
3631.00,98.96
3630.00,98.95
3629.00,98.95
3628.00,98.97
3627.00,99.00
3626.00,99.01
3625.00,99.00
3624.00,98.98
3623.00,98.99
3622.00,99.00
3621.00,99.02
3620.00,99.03
3619.00,99.04
3618.00,99.06
3617.00,99.07
3616.00,99.07
3615.00,99.06
3614.00,99.06
3613.00,99.06
3612.00,99.06
3611.00,99.03
3610.00,99.00
3609.00,98.96
3608.00,98.93
3607.00,98.92
3606.00,98.92
3605.00,98.91
3604.00,98.91
3603.00,98.90
3602.00,98.91
3601.00,98.93
3600.00,98.95
3599.00,98.97
3598.00,98.97
3597.00,98.97
3596.00,98.95
3595.00,98.93
3594.00,98.92
3593.00,98.92
3592.00,98.93
3591.00,98.95
3590.00,98.95
3589.00,98.94
3588.00,98.92
3587.00,98.92
3586.00,98.93
3585.00,98.94
3584.00,98.94
3583.00,98.92
3582.00,98.89
3581.00,98.88
3580.00,98.87
3579.00,98.87
3578.00,98.87
3577.00,98.88
3576.00,98.87
3575.00,98.86
3574.00,98.84
3573.00,98.85
3572.00,98.87
3571.00,98.91
3570.00,98.94
3569.00,98.96
3568.00,98.96
3567.00,98.96
3566.00,98.97
3565.00,98.98
3564.00,98.98
3563.00,98.96
3562.00,98.94
3561.00,98.93
3560.00,98.93
3559.00,98.93
3558.00,98.92
3557.00,98.90
3556.00,98.87
3555.00,98.85
3554.00,98.83
3553.00,98.83
3552.00,98.84
3551.00,98.86
3550.00,98.88
3549.00,98.90
3548.00,98.91
3547.00,98.90
3546.00,98.88
3545.00,98.87
3544.00,98.86
3543.00,98.86
3542.00,98.87
3541.00,98.87
3540.00,98.86
3539.00,98.84
3538.00,98.83
3537.00,98.83
3536.00,98.84
3535.00,98.85
3534.00,98.85
3533.00,98.84
3532.00,98.83
3531.00,98.82
3530.00,98.82
3529.00,98.83
3528.00,98.84
3527.00,98.85
3526.00,98.85
3525.00,98.85
3524.00,98.85
3523.00,98.85
3522.00,98.85
3521.00,98.84
3520.00,98.82
3519.00,98.81
3518.00,98.81
3517.00,98.83
3516.00,98.85
3515.00,98.87
3514.00,98.88
3513.00,98.87
3512.00,98.87
3511.00,98.87
3510.00,98.86
3509.00,98.86
3508.00,98.86
3507.00,98.86
3506.00,98.85
3505.00,98.84
3504.00,98.84
3503.00,98.84
3502.00,98.84
3501.00,98.85
3500.00,98.85
3499.00,98.85
3498.00,98.86
3497.00,98.87
3496.00,98.89
3495.00,98.91
3494.00,98.91
3493.00,98.91
3492.00,98.89
3491.00,98.88
3490.00,98.87
3489.00,98.85
3488.00,98.84
3487.00,98.84
3486.00,98.85
3485.00,98.88
3484.00,98.92
3483.00,98.93
3482.00,98.93
3481.00,98.90
3480.00,98.86
3479.00,98.83
3478.00,98.81
3477.00,98.80
3476.00,98.80
3475.00,98.82
3474.00,98.83
3473.00,98.85
3472.00,98.86
3471.00,98.86
3470.00,98.85
3469.00,98.84
3468.00,98.82
3467.00,98.79
3466.00,98.78
3465.00,98.77
3464.00,98.78
3463.00,98.81
3462.00,98.84
3461.00,98.88
3460.00,98.90
3459.00,98.90
3458.00,98.89
3457.00,98.87
3456.00,98.85
3455.00,98.82
3454.00,98.81
3453.00,98.81
3452.00,98.82
3451.00,98.84
3450.00,98.86
3449.00,98.86
3448.00,98.84
3447.00,98.81
3446.00,98.79
3445.00,98.79
3444.00,98.81
3443.00,98.84
3442.00,98.85
3441.00,98.86
3440.00,98.85
3439.00,98.84
3438.00,98.83
3437.00,98.82
3436.00,98.82
3435.00,98.83
3434.00,98.83
3433.00,98.83
3432.00,98.83
3431.00,98.82
3430.00,98.82
3429.00,98.81
3428.00,98.82
3427.00,98.83
3426.00,98.84
3425.00,98.84
3424.00,98.84
3423.00,98.84
3422.00,98.85
3421.00,98.86
3420.00,98.86
3419.00,98.86
3418.00,98.85
3417.00,98.83
3416.00,98.81
3415.00,98.80
3414.00,98.80
3413.00,98.81
3412.00,98.82
3411.00,98.84
3410.00,98.85
3409.00,98.84
3408.00,98.84
3407.00,98.84
3406.00,98.84
3405.00,98.86
3404.00,98.88
3403.00,98.90
3402.00,98.91
3401.00,98.90
3400.00,98.87
3399.00,98.84
3398.00,98.81
3397.00,98.80
3396.00,98.79
3395.00,98.80
3394.00,98.81
3393.00,98.81
3392.00,98.81
3391.00,98.80
3390.00,98.79
3389.00,98.78
3388.00,98.79
3387.00,98.79
3386.00,98.81
3385.00,98.83
3384.00,98.85
3383.00,98.86
3382.00,98.87
3381.00,98.86
3380.00,98.84
3379.00,98.82
3378.00,98.81
3377.00,98.82
3376.00,98.84
3375.00,98.86
3374.00,98.86
3373.00,98.85
3372.00,98.83
3371.00,98.82
3370.00,98.81
3369.00,98.81
3368.00,98.82
3367.00,98.84
3366.00,98.85
3365.00,98.85
3364.00,98.84
3363.00,98.82
3362.00,98.82
3361.00,98.82
3360.00,98.84
3359.00,98.85
3358.00,98.86
3357.00,98.86
3356.00,98.86
3355.00,98.86
3354.00,98.86
3353.00,98.86
3352.00,98.86
3351.00,98.86
3350.00,98.85
3349.00,98.84
3348.00,98.83
3347.00,98.82
3346.00,98.82
3345.00,98.83
3344.00,98.83
3343.00,98.82
3342.00,98.81
3341.00,98.80
3340.00,98.79
3339.00,98.80
3338.00,98.81
3337.00,98.82
3336.00,98.83
3335.00,98.83
3334.00,98.83
3333.00,98.83
3332.00,98.83
3331.00,98.83
3330.00,98.83
3329.00,98.83
3328.00,98.83
3327.00,98.83
3326.00,98.84
3325.00,98.85
3324.00,98.87
3323.00,98.88
3322.00,98.88
3321.00,98.87
3320.00,98.86
3319.00,98.84
3318.00,98.81
3317.00,98.79
3316.00,98.78
3315.00,98.78
3314.00,98.78
3313.00,98.79
3312.00,98.80
3311.00,98.81
3310.00,98.82
3309.00,98.82
3308.00,98.81
3307.00,98.81
3306.00,98.81
3305.00,98.82
3304.00,98.82
3303.00,98.82
3302.00,98.80
3301.00,98.79
3300.00,98.78
3299.00,98.79
3298.00,98.81
3297.00,98.82
3296.00,98.82
3295.00,98.82
3294.00,98.82
3293.00,98.81
3292.00,98.79
3291.00,98.78
3290.00,98.78
3289.00,98.78
3288.00,98.78
3287.00,98.79
3286.00,98.80
3285.00,98.82
3284.00,98.83
3283.00,98.84
3282.00,98.83
3281.00,98.80
3280.00,98.78
3279.00,98.76
3278.00,98.77
3277.00,98.79
3276.00,98.81
3275.00,98.81
3274.00,98.81
3273.00,98.80
3272.00,98.79
3271.00,98.77
3270.00,98.76
3269.00,98.75
3268.00,98.75
3267.00,98.77
3266.00,98.78
3265.00,98.79
3264.00,98.79
3263.00,98.78
3262.00,98.78
3261.00,98.78
3260.00,98.78
3259.00,98.78
3258.00,98.77
3257.00,98.77
3256.00,98.76
3255.00,98.77
3254.00,98.77
3253.00,98.77
3252.00,98.76
3251.00,98.76
3250.00,98.77
3249.00,98.78
3248.00,98.79
3247.00,98.79
3246.00,98.78
3245.00,98.77
3244.00,98.75
3243.00,98.74
3242.00,98.74
3241.00,98.74
3240.00,98.74
3239.00,98.74
3238.00,98.76
3237.00,98.77
3236.00,98.78
3235.00,98.77
3234.00,98.74
3233.00,98.72
3232.00,98.71
3231.00,98.72
3230.00,98.73
3229.00,98.74
3228.00,98.74
3227.00,98.74
3226.00,98.73
3225.00,98.73
3224.00,98.73
3223.00,98.74
3222.00,98.75
3221.00,98.76
3220.00,98.76
3219.00,98.77
3218.00,98.79
3217.00,98.80
3216.00,98.81
3215.00,98.81
3214.00,98.80
3213.00,98.77
3212.00,98.75
3211.00,98.73
3210.00,98.72
3209.00,98.72
3208.00,98.72
3207.00,98.72
3206.00,98.72
3205.00,98.72
3204.00,98.73
3203.00,98.75
3202.00,98.76
3201.00,98.77
3200.00,98.78
3199.00,98.78
3198.00,98.76
3197.00,98.74
3196.00,98.72
3195.00,98.71
3194.00,98.71
3193.00,98.71
3192.00,98.72
3191.00,98.73
3190.00,98.74
3189.00,98.76
3188.00,98.77
3187.00,98.77
3186.00,98.75
3185.00,98.74
3184.00,98.74
3183.00,98.74
3182.00,98.75
3181.00,98.75
3180.00,98.74
3179.00,98.74
3178.00,98.73
3177.00,98.73
3176.00,98.73
3175.00,98.73
3174.00,98.72
3173.00,98.72
3172.00,98.71
3171.00,98.70
3170.00,98.71
3169.00,98.71
3168.00,98.72
3167.00,98.73
3166.00,98.74
3165.00,98.74
3164.00,98.76
3163.00,98.77
3162.00,98.78
3161.00,98.78
3160.00,98.76
3159.00,98.75
3158.00,98.74
3157.00,98.74
3156.00,98.75
3155.00,98.75
3154.00,98.74
3153.00,98.74
3152.00,98.74
3151.00,98.74
3150.00,98.75
3149.00,98.76
3148.00,98.78
3147.00,98.78
3146.00,98.78
3145.00,98.78
3144.00,98.77
3143.00,98.77
3142.00,98.77
3141.00,98.77
3140.00,98.77
3139.00,98.77
3138.00,98.77
3137.00,98.76
3136.00,98.74
3135.00,98.74
3134.00,98.74
3133.00,98.75
3132.00,98.76
3131.00,98.78
3130.00,98.78
3129.00,98.77
3128.00,98.76
3127.00,98.75
3126.00,98.74
3125.00,98.74
3124.00,98.74
3123.00,98.74
3122.00,98.76
3121.00,98.76
3120.00,98.76
3119.00,98.75
3118.00,98.74
3117.00,98.74
3116.00,98.74
3115.00,98.75
3114.00,98.75
3113.00,98.76
3112.00,98.76
3111.00,98.75
3110.00,98.73
3109.00,98.70
3108.00,98.68
3107.00,98.68
3106.00,98.69
3105.00,98.71
3104.00,98.72
3103.00,98.73
3102.00,98.73
3101.00,98.73
3100.00,98.73
3099.00,98.72
3098.00,98.72
3097.00,98.70
3096.00,98.69
3095.00,98.69
3094.00,98.69
3093.00,98.71
3092.00,98.72
3091.00,98.72
3090.00,98.71
3089.00,98.70
3088.00,98.69
3087.00,98.69
3086.00,98.69
3085.00,98.71
3084.00,98.72
3083.00,98.74
3082.00,98.74
3081.00,98.73
3080.00,98.72
3079.00,98.71
3078.00,98.70
3077.00,98.68
3076.00,98.67
3075.00,98.66
3074.00,98.66
3073.00,98.67
3072.00,98.69
3071.00,98.70
3070.00,98.71
3069.00,98.70
3068.00,98.69
3067.00,98.67
3066.00,98.66
3065.00,98.67
3064.00,98.69
3063.00,98.69
3062.00,98.70
3061.00,98.70
3060.00,98.70
3059.00,98.69
3058.00,98.69
3057.00,98.68
3056.00,98.68
3055.00,98.68
3054.00,98.68
3053.00,98.68
3052.00,98.68
3051.00,98.68
3050.00,98.67
3049.00,98.68
3048.00,98.69
3047.00,98.71
3046.00,98.73
3045.00,98.74
3044.00,98.74
3043.00,98.73
3042.00,98.71
3041.00,98.69
3040.00,98.67
3039.00,98.68
3038.00,98.69
3037.00,98.70
3036.00,98.70
3035.00,98.70
3034.00,98.69
3033.00,98.68
3032.00,98.68
3031.00,98.70
3030.00,98.71
3029.00,98.71
3028.00,98.70
3027.00,98.68
3026.00,98.65
3025.00,98.63
3024.00,98.61
3023.00,98.61
3022.00,98.62
3021.00,98.62
3020.00,98.63
3019.00,98.64
3018.00,98.64
3017.00,98.64
3016.00,98.65
3015.00,98.66
3014.00,98.67
3013.00,98.68
3012.00,98.68
3011.00,98.67
3010.00,98.65
3009.00,98.63
3008.00,98.62
3007.00,98.61
3006.00,98.62
3005.00,98.63
3004.00,98.64
3003.00,98.65
3002.00,98.66
3001.00,98.65
3000.00,98.64
2999.00,98.62
2998.00,98.60
2997.00,98.58
2996.00,98.57
2995.00,98.56
2994.00,98.56
2993.00,98.56
2992.00,98.56
2991.00,98.55
2990.00,98.54
2989.00,98.53
2988.00,98.51
2987.00,98.49
2986.00,98.49
2985.00,98.51
2984.00,98.52
2983.00,98.53
2982.00,98.54
2981.00,98.54
2980.00,98.54
2979.00,98.54
2978.00,98.53
2977.00,98.52
2976.00,98.51
2975.00,98.50
2974.00,98.49
2973.00,98.48
2972.00,98.47
2971.00,98.46
2970.00,98.44
2969.00,98.43
2968.00,98.42
2967.00,98.42
2966.00,98.42
2965.00,98.42
2964.00,98.42
2963.00,98.40
2962.00,98.38
2961.00,98.36
2960.00,98.34
2959.00,98.33
2958.00,98.32
2957.00,98.31
2956.00,98.29
2955.00,98.29
2954.00,98.28
2953.00,98.27
2952.00,98.25
2951.00,98.23
2950.00,98.23
2949.00,98.22
2948.00,98.20
2947.00,98.18
2946.00,98.14
2945.00,98.11
2944.00,98.09
2943.00,98.07
2942.00,98.08
2941.00,98.09
2940.00,98.09
2939.00,98.09
2938.00,98.08
2937.00,98.08
2936.00,98.07
2935.00,98.05
2934.00,98.04
2933.00,98.03
2932.00,98.03
2931.00,98.04
2930.00,98.05
2929.00,98.05
2928.00,98.05
2927.00,98.05
2926.00,98.05
2925.00,98.04
2924.00,98.03
2923.00,98.03
2922.00,98.03
2921.00,98.04
2920.00,98.06
2919.00,98.08
2918.00,98.10
2917.00,98.10
2916.00,98.10
2915.00,98.10
2914.00,98.11
2913.00,98.13
2912.00,98.16
2911.00,98.19
2910.00,98.22
2909.00,98.25
2908.00,98.28
2907.00,98.31
2906.00,98.33
2905.00,98.33
2904.00,98.33
2903.00,98.32
2902.00,98.32
2901.00,98.33
2900.00,98.35
2899.00,98.37
2898.00,98.39
2897.00,98.42
2896.00,98.44
2895.00,98.45
2894.00,98.46
2893.00,98.46
2892.00,98.46
2891.00,98.46
2890.00,98.46
2889.00,98.44
2888.00,98.43
2887.00,98.42
2886.00,98.42
2885.00,98.44
2884.00,98.45
2883.00,98.46
2882.00,98.46
2881.00,98.46
2880.00,98.46
2879.00,98.46
2878.00,98.46
2877.00,98.46
2876.00,98.46
2875.00,98.44
2874.00,98.43
2873.00,98.42
2872.00,98.42
2871.00,98.42
2870.00,98.42
2869.00,98.41
2868.00,98.41
2867.00,98.41
2866.00,98.43
2865.00,98.44
2864.00,98.45
2863.00,98.45
2862.00,98.45
2861.00,98.46
2860.00,98.47
2859.00,98.47
2858.00,98.46
2857.00,98.46
2856.00,98.47
2855.00,98.47
2854.00,98.48
2853.00,98.48
2852.00,98.48
2851.00,98.47
2850.00,98.47
2849.00,98.49
2848.00,98.51
2847.00,98.53
2846.00,98.54
2845.00,98.55
2844.00,98.55
2843.00,98.56
2842.00,98.57
2841.00,98.57
2840.00,98.57
2839.00,98.58
2838.00,98.59
2837.00,98.61
2836.00,98.63
2835.00,98.63
2834.00,98.61
2833.00,98.59
2832.00,98.57
2831.00,98.57
2830.00,98.59
2829.00,98.60
2828.00,98.61
2827.00,98.61
2826.00,98.60
2825.00,98.58
2824.00,98.56
2823.00,98.56
2822.00,98.57
2821.00,98.58
2820.00,98.60
2819.00,98.61
2818.00,98.62
2817.00,98.61
2816.00,98.59
2815.00,98.57
2814.00,98.57
2813.00,98.57
2812.00,98.59
2811.00,98.60
2810.00,98.61
2809.00,98.61
2808.00,98.62
2807.00,98.62
2806.00,98.63
2805.00,98.65
2804.00,98.65
2803.00,98.64
2802.00,98.63
2801.00,98.62
2800.00,98.62
2799.00,98.62
2798.00,98.61
2797.00,98.60
2796.00,98.60
2795.00,98.59
2794.00,98.60
2793.00,98.60
2792.00,98.60
2791.00,98.60
2790.00,98.60
2789.00,98.61
2788.00,98.62
2787.00,98.62
2786.00,98.62
2785.00,98.62
2784.00,98.62
2783.00,98.62
2782.00,98.62
2781.00,98.62
2780.00,98.62
2779.00,98.62
2778.00,98.62
2777.00,98.61
2776.00,98.61
2775.00,98.62
2774.00,98.64
2773.00,98.66
2772.00,98.68
2771.00,98.67
2770.00,98.66
2769.00,98.64
2768.00,98.63
2767.00,98.63
2766.00,98.63
2765.00,98.63
2764.00,98.64
2763.00,98.66
2762.00,98.67
2761.00,98.67
2760.00,98.66
2759.00,98.65
2758.00,98.64
2757.00,98.63
2756.00,98.63
2755.00,98.63
2754.00,98.63
2753.00,98.63
2752.00,98.63
2751.00,98.63
2750.00,98.63
2749.00,98.62
2748.00,98.61
2747.00,98.60
2746.00,98.60
2745.00,98.61
2744.00,98.62
2743.00,98.63
2742.00,98.62
2741.00,98.62
2740.00,98.61
2739.00,98.61
2738.00,98.61
2737.00,98.61
2736.00,98.61
2735.00,98.61
2734.00,98.61
2733.00,98.60
2732.00,98.61
2731.00,98.62
2730.00,98.63
2729.00,98.64
2728.00,98.64
2727.00,98.64
2726.00,98.63
2725.00,98.61
2724.00,98.60
2723.00,98.59
2722.00,98.59
2721.00,98.58
2720.00,98.59
2719.00,98.60
2718.00,98.60
2717.00,98.61
2716.00,98.62
2715.00,98.62
2714.00,98.61
2713.00,98.61
2712.00,98.61
2711.00,98.61
2710.00,98.61
2709.00,98.60
2708.00,98.59
2707.00,98.57
2706.00,98.56
2705.00,98.56
2704.00,98.57
2703.00,98.59
2702.00,98.61
2701.00,98.63
2700.00,98.64
2699.00,98.64
2698.00,98.64
2697.00,98.62
2696.00,98.62
2695.00,98.62
2694.00,98.62
2693.00,98.63
2692.00,98.62
2691.00,98.61
2690.00,98.60
2689.00,98.59
2688.00,98.59
2687.00,98.59
2686.00,98.60
2685.00,98.61
2684.00,98.62
2683.00,98.62
2682.00,98.63
2681.00,98.63
2680.00,98.63
2679.00,98.62
2678.00,98.60
2677.00,98.59
2676.00,98.58
2675.00,98.58
2674.00,98.59
2673.00,98.59
2672.00,98.60
2671.00,98.60
2670.00,98.61
2669.00,98.61
2668.00,98.62
2667.00,98.62
2666.00,98.62
2665.00,98.60
2664.00,98.59
2663.00,98.58
2662.00,98.57
2661.00,98.57
2660.00,98.56
2659.00,98.56
2658.00,98.56
2657.00,98.56
2656.00,98.56
2655.00,98.55
2654.00,98.54
2653.00,98.53
2652.00,98.52
2651.00,98.52
2650.00,98.53
2649.00,98.55
2648.00,98.55
2647.00,98.54
2646.00,98.53
2645.00,98.52
2644.00,98.52
2643.00,98.51
2642.00,98.51
2641.00,98.51
2640.00,98.50
2639.00,98.50
2638.00,98.48
2637.00,98.46
2636.00,98.43
2635.00,98.42
2634.00,98.43
2633.00,98.44
2632.00,98.44
2631.00,98.43
2630.00,98.42
2629.00,98.42
2628.00,98.43
2627.00,98.45
2626.00,98.46
2625.00,98.46
2624.00,98.46
2623.00,98.44
2622.00,98.43
2621.00,98.42
2620.00,98.41
2619.00,98.40
2618.00,98.41
2617.00,98.41
2616.00,98.41
2615.00,98.40
2614.00,98.39
2613.00,98.37
2612.00,98.37
2611.00,98.38
2610.00,98.40
2609.00,98.41
2608.00,98.42
2607.00,98.42
2606.00,98.41
2605.00,98.41
2604.00,98.41
2603.00,98.41
2602.00,98.42
2601.00,98.42
2600.00,98.42
2599.00,98.40
2598.00,98.38
2597.00,98.36
2596.00,98.36
2595.00,98.36
2594.00,98.36
2593.00,98.35
2592.00,98.34
2591.00,98.33
2590.00,98.32
2589.00,98.33
2588.00,98.34
2587.00,98.36
2586.00,98.37
2585.00,98.37
2584.00,98.36
2583.00,98.36
2582.00,98.35
2581.00,98.35
2580.00,98.36
2579.00,98.36
2578.00,98.36
2577.00,98.36
2576.00,98.35
2575.00,98.35
2574.00,98.35
2573.00,98.35
2572.00,98.35
2571.00,98.33
2570.00,98.31
2569.00,98.28
2568.00,98.26
2567.00,98.26
2566.00,98.27
2565.00,98.30
2564.00,98.33
2563.00,98.35
2562.00,98.36
2561.00,98.36
2560.00,98.34
2559.00,98.32
2558.00,98.30
2557.00,98.28
2556.00,98.28
2555.00,98.28
2554.00,98.28
2553.00,98.29
2552.00,98.29
2551.00,98.29
2550.00,98.28
2549.00,98.28
2548.00,98.28
2547.00,98.28
2546.00,98.28
2545.00,98.27
2544.00,98.28
2543.00,98.29
2542.00,98.31
2541.00,98.32
2540.00,98.32
2539.00,98.31
2538.00,98.28
2537.00,98.26
2536.00,98.25
2535.00,98.25
2534.00,98.25
2533.00,98.26
2532.00,98.26
2531.00,98.27
2530.00,98.28
2529.00,98.29
2528.00,98.30
2527.00,98.31
2526.00,98.30
2525.00,98.28
2524.00,98.25
2523.00,98.21
2522.00,98.20
2521.00,98.22
2520.00,98.25
2519.00,98.27
2518.00,98.27
2517.00,98.27
2516.00,98.27
2515.00,98.28
2514.00,98.28
2513.00,98.28
2512.00,98.27
2511.00,98.25
2510.00,98.23
2509.00,98.22
2508.00,98.22
2507.00,98.24
2506.00,98.26
2505.00,98.28
2504.00,98.30
2503.00,98.32
2502.00,98.32
2501.00,98.32
2500.00,98.30
2499.00,98.28
2498.00,98.26
2497.00,98.25
2496.00,98.24
2495.00,98.25
2494.00,98.26
2493.00,98.26
2492.00,98.26
2491.00,98.25
2490.00,98.24
2489.00,98.25
2488.00,98.27
2487.00,98.29
2486.00,98.31
2485.00,98.32
2484.00,98.31
2483.00,98.31
2482.00,98.32
2481.00,98.32
2480.00,98.33
2479.00,98.33
2478.00,98.32
2477.00,98.30
2476.00,98.29
2475.00,98.28
2474.00,98.28
2473.00,98.29
2472.00,98.29
2471.00,98.29
2470.00,98.28
2469.00,98.26
2468.00,98.24
2467.00,98.23
2466.00,98.23
2465.00,98.24
2464.00,98.26
2463.00,98.27
2462.00,98.26
2461.00,98.25
2460.00,98.23
2459.00,98.21
2458.00,98.21
2457.00,98.21
2456.00,98.21
2455.00,98.21
2454.00,98.21
2453.00,98.20
2452.00,98.21
2451.00,98.22
2450.00,98.22
2449.00,98.23
2448.00,98.23
2447.00,98.24
2446.00,98.25
2445.00,98.26
2444.00,98.26
2443.00,98.27
2442.00,98.26
2441.00,98.24
2440.00,98.22
2439.00,98.21
2438.00,98.20
2437.00,98.21
2436.00,98.23
2435.00,98.23
2434.00,98.23
2433.00,98.23
2432.00,98.23
2431.00,98.24
2430.00,98.25
2429.00,98.26
2428.00,98.26
2427.00,98.25
2426.00,98.24
2425.00,98.25
2424.00,98.27
2423.00,98.29
2422.00,98.29
2421.00,98.29
2420.00,98.28
2419.00,98.27
2418.00,98.27
2417.00,98.28
2416.00,98.30
2415.00,98.31
2414.00,98.30
2413.00,98.29
2412.00,98.28
2411.00,98.28
2410.00,98.30
2409.00,98.32
2408.00,98.33
2407.00,98.33
2406.00,98.32
2405.00,98.31
2404.00,98.31
2403.00,98.31
2402.00,98.31
2401.00,98.31
2400.00,98.32
2399.00,98.33
2398.00,98.35
2397.00,98.36
2396.00,98.36
2395.00,98.37
2394.00,98.37
2393.00,98.38
2392.00,98.37
2391.00,98.35
2390.00,98.34
2389.00,98.32
2388.00,98.32
2387.00,98.32
2386.00,98.32
2385.00,98.32
2384.00,98.33
2383.00,98.35
2382.00,98.37
2381.00,98.39
2380.00,98.42
2379.00,98.46
2378.00,98.49
2377.00,98.51
2376.00,98.52
2375.00,98.50
2374.00,98.46
2373.00,98.42
2372.00,98.40
2371.00,98.43
2370.00,98.49
2369.00,98.55
2368.00,98.55
2367.00,98.51
2366.00,98.48
2365.00,98.49
2364.00,98.51
2363.00,98.49
2362.00,98.43
2361.00,98.37
2360.00,98.38
2359.00,98.46
2358.00,98.54
2357.00,98.56
2356.00,98.55
2355.00,98.54
2354.00,98.53
2353.00,98.51
2352.00,98.50
2351.00,98.50
2350.00,98.52
2349.00,98.54
2348.00,98.54
2347.00,98.54
2346.00,98.55
2345.00,98.57
2344.00,98.59
2343.00,98.60
2342.00,98.58
2341.00,98.55
2340.00,98.51
2339.00,98.49
2338.00,98.49
2337.00,98.52
2336.00,98.53
2335.00,98.50
2334.00,98.47
2333.00,98.46
2332.00,98.46
2331.00,98.48
2330.00,98.48
2329.00,98.48
2328.00,98.46
2327.00,98.43
2326.00,98.40
2325.00,98.36
2324.00,98.34
2323.00,98.32
2322.00,98.30
2321.00,98.30
2320.00,98.30
2319.00,98.31
2318.00,98.31
2317.00,98.30
2316.00,98.30
2315.00,98.29
2314.00,98.28
2313.00,98.27
2312.00,98.29
2311.00,98.31
2310.00,98.32
2309.00,98.31
2308.00,98.29
2307.00,98.27
2306.00,98.26
2305.00,98.25
2304.00,98.23
2303.00,98.22
2302.00,98.21
2301.00,98.22
2300.00,98.23
2299.00,98.23
2298.00,98.21
2297.00,98.18
2296.00,98.15
2295.00,98.13
2294.00,98.13
2293.00,98.13
2292.00,98.12
2291.00,98.09
2290.00,98.06
2289.00,98.04
2288.00,98.02
2287.00,98.02
2286.00,98.04
2285.00,98.08
2284.00,98.13
2283.00,98.17
2282.00,98.17
2281.00,98.14
2280.00,98.10
2279.00,98.08
2278.00,98.07
2277.00,98.05
2276.00,98.03
2275.00,98.01
2274.00,98.01
2273.00,98.01
2272.00,98.01
2271.00,97.98
2270.00,97.96
2269.00,97.95
2268.00,97.97
2267.00,97.99
2266.00,97.99
2265.00,97.95
2264.00,97.92
2263.00,97.89
2262.00,97.87
2261.00,97.83
2260.00,97.77
2259.00,97.72
2258.00,97.67
2257.00,97.63
2256.00,97.61
2255.00,97.58
2254.00,97.52
2253.00,97.42
2252.00,97.29
2251.00,97.14
2250.00,96.99
2249.00,96.84
2248.00,96.68
2247.00,96.51
2246.00,96.33
2245.00,96.17
2244.00,96.06
2243.00,96.01
2242.00,96.03
2241.00,96.11
2240.00,96.20
2239.00,96.29
2238.00,96.40
2237.00,96.54
2236.00,96.75
2235.00,96.97
2234.00,97.18
2233.00,97.33
2232.00,97.44
2231.00,97.51
2230.00,97.55
2229.00,97.55
2228.00,97.54
2227.00,97.52
2226.00,97.52
2225.00,97.53
2224.00,97.56
2223.00,97.57
2222.00,97.57
2221.00,97.56
2220.00,97.58
2219.00,97.61
2218.00,97.64
2217.00,97.65
2216.00,97.65
2215.00,97.66
2214.00,97.67
2213.00,97.68
2212.00,97.67
2211.00,97.65
2210.00,97.61
2209.00,97.59
2208.00,97.59
2207.00,97.60
2206.00,97.58
2205.00,97.55
2204.00,97.55
2203.00,97.58
2202.00,97.62
2201.00,97.62
2200.00,97.60
2199.00,97.56
2198.00,97.53
2197.00,97.53
2196.00,97.55
2195.00,97.58
2194.00,97.62
2193.00,97.67
2192.00,97.69
2191.00,97.67
2190.00,97.62
2189.00,97.54
2188.00,97.48
2187.00,97.46
2186.00,97.49
2185.00,97.54
2184.00,97.56
2183.00,97.55
2182.00,97.51
2181.00,97.47
2180.00,97.44
2179.00,97.42
2178.00,97.39
2177.00,97.36
2176.00,97.36
2175.00,97.40
2174.00,97.46
2173.00,97.51
2172.00,97.52
2171.00,97.47
2170.00,97.39
2169.00,97.31
2168.00,97.28
2167.00,97.28
2166.00,97.29
2165.00,97.25
2164.00,97.18
2163.00,97.12
2162.00,97.08
2161.00,97.12
2160.00,97.21
2159.00,97.34
2158.00,97.46
2157.00,97.54
2156.00,97.62
2155.00,97.69
2154.00,97.72
2153.00,97.68
2152.00,97.59
2151.00,97.51
2150.00,97.50
2149.00,97.58
2148.00,97.68
2147.00,97.75
2146.00,97.77
2145.00,97.76
2144.00,97.78
2143.00,97.83
2142.00,97.84
2141.00,97.79
2140.00,97.73
2139.00,97.71
2138.00,97.75
2137.00,97.81
2136.00,97.86
2135.00,97.89
2134.00,97.91
2133.00,97.90
2132.00,97.89
2131.00,97.87
2130.00,97.87
2129.00,97.88
2128.00,97.90
2127.00,97.92
2126.00,97.91
2125.00,97.89
2124.00,97.89
2123.00,97.92
2122.00,97.96
2121.00,97.98
2120.00,97.98
2119.00,97.99
2118.00,98.00
2117.00,98.00
2116.00,97.97
2115.00,97.91
2114.00,97.84
2113.00,97.80
2112.00,97.78
2111.00,97.78
2110.00,97.79
2109.00,97.79
2108.00,97.79
2107.00,97.80
2106.00,97.83
2105.00,97.87
2104.00,97.91
2103.00,97.94
2102.00,97.93
2101.00,97.91
2100.00,97.90
2099.00,97.93
2098.00,97.98
2097.00,98.02
2096.00,98.03
2095.00,98.02
2094.00,97.99
2093.00,97.96
2092.00,97.92
2091.00,97.90
2090.00,97.87
2089.00,97.84
2088.00,97.79
2087.00,97.76
2086.00,97.75
2085.00,97.76
2084.00,97.78
2083.00,97.80
2082.00,97.82
2081.00,97.84
2080.00,97.85
2079.00,97.84
2078.00,97.82
2077.00,97.79
2076.00,97.77
2075.00,97.75
2074.00,97.76
2073.00,97.77
2072.00,97.78
2071.00,97.77
2070.00,97.75
2069.00,97.75
2068.00,97.76
2067.00,97.77
2066.00,97.77
2065.00,97.77
2064.00,97.75
2063.00,97.71
2062.00,97.66
2061.00,97.63
2060.00,97.64
2059.00,97.69
2058.00,97.74
2057.00,97.75
2056.00,97.74
2055.00,97.71
2054.00,97.68
2053.00,97.65
2052.00,97.61
2051.00,97.59
2050.00,97.55
2049.00,97.52
2048.00,97.51
2047.00,97.56
2046.00,97.65
2045.00,97.72
2044.00,97.71
2043.00,97.64
2042.00,97.55
2041.00,97.47
2040.00,97.41
2039.00,97.38
2038.00,97.40
2037.00,97.44
2036.00,97.49
2035.00,97.49
2034.00,97.43
2033.00,97.32
2032.00,97.22
2031.00,97.18
2030.00,97.21
2029.00,97.30
2028.00,97.39
2027.00,97.44
2026.00,97.47
2025.00,97.50
2024.00,97.51
2023.00,97.51
2022.00,97.46
2021.00,97.38
2020.00,97.28
2019.00,97.22
2018.00,97.24
2017.00,97.35
2016.00,97.48
2015.00,97.56
2014.00,97.58
2013.00,97.54
2012.00,97.49
2011.00,97.44
2010.00,97.42
2009.00,97.43
2008.00,97.45
2007.00,97.48
2006.00,97.48
2005.00,97.46
2004.00,97.45
2003.00,97.46
2002.00,97.48
2001.00,97.51
2000.00,97.52
1999.00,97.52
1998.00,97.52
1997.00,97.52
1996.00,97.51
1995.00,97.50
1994.00,97.47
1993.00,97.46
1992.00,97.46
1991.00,97.47
1990.00,97.50
1989.00,97.51
1988.00,97.50
1987.00,97.47
1986.00,97.43
1985.00,97.41
1984.00,97.42
1983.00,97.46
1982.00,97.46
1981.00,97.41
1980.00,97.34
1979.00,97.30
1978.00,97.32
1977.00,97.38
1976.00,97.41
1975.00,97.41
1974.00,97.39
1973.00,97.39
1972.00,97.42
1971.00,97.46
1970.00,97.50
1969.00,97.53
1968.00,97.55
1967.00,97.56
1966.00,97.57
1965.00,97.58
1964.00,97.61
1963.00,97.63
1962.00,97.63
1961.00,97.60
1960.00,97.58
1959.00,97.59
1958.00,97.63
1957.00,97.66
1956.00,97.67
1955.00,97.65
1954.00,97.66
1953.00,97.69
1952.00,97.73
1951.00,97.77
1950.00,97.81
1949.00,97.86
1948.00,97.89
1947.00,97.89
1946.00,97.87
1945.00,97.84
1944.00,97.84
1943.00,97.84
1942.00,97.85
1941.00,97.84
1940.00,97.82
1939.00,97.81
1938.00,97.79
1937.00,97.78
1936.00,97.77
1935.00,97.77
1934.00,97.77
1933.00,97.78
1932.00,97.80
1931.00,97.82
1930.00,97.85
1929.00,97.88
1928.00,97.91
1927.00,97.92
1926.00,97.92
1925.00,97.91
1924.00,97.91
1923.00,97.92
1922.00,97.93
1921.00,97.93
1920.00,97.94
1919.00,97.94
1918.00,97.95
1917.00,97.95
1916.00,97.96
1915.00,97.98
1914.00,98.00
1913.00,98.01
1912.00,98.00
1911.00,97.99
1910.00,97.99
1909.00,98.01
1908.00,98.02
1907.00,98.03
1906.00,98.01
1905.00,97.99
1904.00,97.99
1903.00,98.00
1902.00,98.01
1901.00,98.01
1900.00,98.00
1899.00,98.00
1898.00,98.01
1897.00,98.02
1896.00,98.03
1895.00,98.04
1894.00,98.03
1893.00,98.02
1892.00,98.01
1891.00,98.01
1890.00,98.03
1889.00,98.05
1888.00,98.05
1887.00,98.03
1886.00,98.00
1885.00,97.99
1884.00,98.00
1883.00,98.02
1882.00,98.03
1881.00,98.04
1880.00,98.05
1879.00,98.07
1878.00,98.09
1877.00,98.10
1876.00,98.10
1875.00,98.10
1874.00,98.08
1873.00,98.07
1872.00,98.08
1871.00,98.08
1870.00,98.09
1869.00,98.10
1868.00,98.10
1867.00,98.11
1866.00,98.11
1865.00,98.12
1864.00,98.12
1863.00,98.13
1862.00,98.12
1861.00,98.12
1860.00,98.12
1859.00,98.12
1858.00,98.12
1857.00,98.12
1856.00,98.11
1855.00,98.10
1854.00,98.08
1853.00,98.07
1852.00,98.08
1851.00,98.09
1850.00,98.10
1849.00,98.11
1848.00,98.11
1847.00,98.12
1846.00,98.13
1845.00,98.14
1844.00,98.15
1843.00,98.15
1842.00,98.15
1841.00,98.14
1840.00,98.13
1839.00,98.13
1838.00,98.13
1837.00,98.14
1836.00,98.16
1835.00,98.18
1834.00,98.20
1833.00,98.21
1832.00,98.21
1831.00,98.20
1830.00,98.19
1829.00,98.18
1828.00,98.18
1827.00,98.18
1826.00,98.18
1825.00,98.18
1824.00,98.18
1823.00,98.19
1822.00,98.21
1821.00,98.22
1820.00,98.23
1819.00,98.23
1818.00,98.23
1817.00,98.22
1816.00,98.21
1815.00,98.21
1814.00,98.21
1813.00,98.21
1812.00,98.21
1811.00,98.22
1810.00,98.23
1809.00,98.23
1808.00,98.23
1807.00,98.23
1806.00,98.23
1805.00,98.24
1804.00,98.24
1803.00,98.24
1802.00,98.24
1801.00,98.24
1800.00,98.24
1799.00,98.23
1798.00,98.21
1797.00,98.21
1796.00,98.22
1795.00,98.25
1794.00,98.28
1793.00,98.29
1792.00,98.30
1791.00,98.30
1790.00,98.30
1789.00,98.30
1788.00,98.30
1787.00,98.29
1786.00,98.28
1785.00,98.26
1784.00,98.25
1783.00,98.25
1782.00,98.26
1781.00,98.27
1780.00,98.28
1779.00,98.28
1778.00,98.28
1777.00,98.28
1776.00,98.28
1775.00,98.30
1774.00,98.31
1773.00,98.32
1772.00,98.32
1771.00,98.32
1770.00,98.31
1769.00,98.30
1768.00,98.29
1767.00,98.30
1766.00,98.30
1765.00,98.29
1764.00,98.28
1763.00,98.26
1762.00,98.25
1761.00,98.25
1760.00,98.24
1759.00,98.23
1758.00,98.22
1757.00,98.21
1756.00,98.19
1755.00,98.15
1754.00,98.12
1753.00,98.08
1752.00,98.04
1751.00,98.00
1750.00,97.94
1749.00,97.89
1748.00,97.85
1747.00,97.79
1746.00,97.73
1745.00,97.66
1744.00,97.59
1743.00,97.51
1742.00,97.43
1741.00,97.34
1740.00,97.24
1739.00,97.15
1738.00,97.08
1737.00,97.02
1736.00,96.96
1735.00,96.89
1734.00,96.81
1733.00,96.76
1732.00,96.74
1731.00,96.73
1730.00,96.75
1729.00,96.77
1728.00,96.79
1727.00,96.82
1726.00,96.86
1725.00,96.91
1724.00,96.96
1723.00,97.01
1722.00,97.07
1721.00,97.13
1720.00,97.20
1719.00,97.29
1718.00,97.37
1717.00,97.44
1716.00,97.51
1715.00,97.57
1714.00,97.63
1713.00,97.68
1712.00,97.71
1711.00,97.74
1710.00,97.77
1709.00,97.81
1708.00,97.84
1707.00,97.87
1706.00,97.90
1705.00,97.92
1704.00,97.94
1703.00,97.95
1702.00,97.97
1701.00,98.00
1700.00,98.03
1699.00,98.04
1698.00,98.03
1697.00,98.01
1696.00,97.99
1695.00,97.99
1694.00,97.99
1693.00,97.99
1692.00,98.00
1691.00,98.02
1690.00,98.05
1689.00,98.07
1688.00,98.08
1687.00,98.08
1686.00,98.07
1685.00,98.06
1684.00,98.05
1683.00,98.04
1682.00,98.04
1681.00,98.04
1680.00,98.05
1679.00,98.05
1678.00,98.05
1677.00,98.05
1676.00,98.06
1675.00,98.06
1674.00,98.06
1673.00,98.07
1672.00,98.07
1671.00,98.07
1670.00,98.06
1669.00,98.05
1668.00,98.05
1667.00,98.06
1666.00,98.07
1665.00,98.08
1664.00,98.09
1663.00,98.08
1662.00,98.07
1661.00,98.06
1660.00,98.06
1659.00,98.06
1658.00,98.07
1657.00,98.07
1656.00,98.07
1655.00,98.08
1654.00,98.08
1653.00,98.05
1652.00,98.04
1651.00,98.02
1650.00,98.01
1649.00,98.02
1648.00,98.04
1647.00,98.05
1646.00,98.05
1645.00,98.04
1644.00,98.02
1643.00,98.00
1642.00,97.98
1641.00,97.98
1640.00,97.98
1639.00,97.98
1638.00,97.99
1637.00,97.98
1636.00,97.96
1635.00,97.95
1634.00,97.95
1633.00,97.94
1632.00,97.94
1631.00,97.93
1630.00,97.93
1629.00,97.93
1628.00,97.93
1627.00,97.94
1626.00,97.94
1625.00,97.93
1624.00,97.92
1623.00,97.91
1622.00,97.91
1621.00,97.93
1620.00,97.94
1619.00,97.94
1618.00,97.94
1617.00,97.92
1616.00,97.92
1615.00,97.93
1614.00,97.95
1613.00,97.96
1612.00,97.98
1611.00,98.00
1610.00,98.01
1609.00,98.03
1608.00,98.04
1607.00,98.05
1606.00,98.06
1605.00,98.07
1604.00,98.08
1603.00,98.08
1602.00,98.08
1601.00,98.07
1600.00,98.06
1599.00,98.07
1598.00,98.10
1597.00,98.12
1596.00,98.13
1595.00,98.13
1594.00,98.13
1593.00,98.13
1592.00,98.14
1591.00,98.15
1590.00,98.16
1589.00,98.17
1588.00,98.18
1587.00,98.19
1586.00,98.20
1585.00,98.21
1584.00,98.21
1583.00,98.20
1582.00,98.20
1581.00,98.19
1580.00,98.18
1579.00,98.17
1578.00,98.17
1577.00,98.18
1576.00,98.19
1575.00,98.20
1574.00,98.20
1573.00,98.19
1572.00,98.19
1571.00,98.18
1570.00,98.18
1569.00,98.19
1568.00,98.20
1567.00,98.21
1566.00,98.22
1565.00,98.23
1564.00,98.23
1563.00,98.22
1562.00,98.21
1561.00,98.21
1560.00,98.20
1559.00,98.18
1558.00,98.20
1557.00,98.21
1556.00,98.21
1555.00,98.21
1554.00,98.21
1553.00,98.21
1552.00,98.21
1551.00,98.22
1550.00,98.23
1549.00,98.23
1548.00,98.23
1547.00,98.23
1546.00,98.22
1545.00,98.22
1544.00,98.22
1543.00,98.21
1542.00,98.21
1541.00,98.21
1540.00,98.21
1539.00,98.21
1538.00,98.22
1537.00,98.20
1536.00,98.19
1535.00,98.18
1534.00,98.18
1533.00,98.19
1532.00,98.21
1531.00,98.23
1530.00,98.25
1529.00,98.26
1528.00,98.27
1527.00,98.27
1526.00,98.27
1525.00,98.27
1524.00,98.26
1523.00,98.25
1522.00,98.25
1521.00,98.24
1520.00,98.23
1519.00,98.23
1518.00,98.23
1517.00,98.24
1516.00,98.25
1515.00,98.25
1514.00,98.25
1513.00,98.25
1512.00,98.26
1511.00,98.28
1510.00,98.29
1509.00,98.29
1508.00,98.28
1507.00,98.28
1506.00,98.28
1505.00,98.29
1504.00,98.28
1503.00,98.28
1502.00,98.28
1501.00,98.28
1500.00,98.28
1499.00,98.28
1498.00,98.29
1497.00,98.31
1496.00,98.32
1495.00,98.32
1494.00,98.31
1493.00,98.31
1492.00,98.29
1491.00,98.29
1490.00,98.28
1489.00,98.29
1488.00,98.29
1487.00,98.29
1486.00,98.29
1485.00,98.28
1484.00,98.28
1483.00,98.28
1482.00,98.28
1481.00,98.26
1480.00,98.25
1479.00,98.23
1478.00,98.21
1477.00,98.19
1476.00,98.18
1475.00,98.18
1474.00,98.18
1473.00,98.17
1472.00,98.14
1471.00,98.09
1470.00,98.05
1469.00,98.00
1468.00,97.95
1467.00,97.88
1466.00,97.80
1465.00,97.69
1464.00,97.55
1463.00,97.41
1462.00,97.26
1461.00,97.10
1460.00,96.93
1459.00,96.74
1458.00,96.51
1457.00,96.27
1456.00,96.08
1455.00,95.97
1454.00,95.90
1453.00,95.85
1452.00,95.82
1451.00,95.80
1450.00,95.80
1449.00,95.82
1448.00,95.87
1447.00,95.95
1446.00,96.03
1445.00,96.11
1444.00,96.20
1443.00,96.29
1442.00,96.40
1441.00,96.51
1440.00,96.60
1439.00,96.70
1438.00,96.79
1437.00,96.89
1436.00,96.98
1435.00,97.05
1434.00,97.11
1433.00,97.17
1432.00,97.26
1431.00,97.34
1430.00,97.42
1429.00,97.50
1428.00,97.56
1427.00,97.63
1426.00,97.69
1425.00,97.75
1424.00,97.78
1423.00,97.80
1422.00,97.82
1421.00,97.85
1420.00,97.88
1419.00,97.91
1418.00,97.93
1417.00,97.95
1416.00,97.95
1415.00,97.96
1414.00,97.97
1413.00,97.98
1412.00,97.98
1411.00,97.98
1410.00,98.00
1409.00,98.01
1408.00,98.04
1407.00,98.05
1406.00,98.06
1405.00,98.07
1404.00,98.08
1403.00,98.07
1402.00,98.06
1401.00,98.05
1400.00,98.04
1399.00,98.03
1398.00,98.03
1397.00,98.04
1396.00,98.04
1395.00,98.03
1394.00,98.00
1393.00,97.97
1392.00,97.94
1391.00,97.92
1390.00,97.91
1389.00,97.90
1388.00,97.89
1387.00,97.87
1386.00,97.85
1385.00,97.82
1384.00,97.80
1383.00,97.77
1382.00,97.76
1381.00,97.75
1380.00,97.73
1379.00,97.71
1378.00,97.68
1377.00,97.64
1376.00,97.61
1375.00,97.60
1374.00,97.59
1373.00,97.59
1372.00,97.59
1371.00,97.57
1370.00,97.55
1369.00,97.53
1368.00,97.51
1367.00,97.48
1366.00,97.45
1365.00,97.43
1364.00,97.41
1363.00,97.39
1362.00,97.38
1361.00,97.37
1360.00,97.35
1359.00,97.33
1358.00,97.32
1357.00,97.33
1356.00,97.34
1355.00,97.35
1354.00,97.36
1353.00,97.36
1352.00,97.37
1351.00,97.37
1350.00,97.38
1349.00,97.38
1348.00,97.38
1347.00,97.40
1346.00,97.42
1345.00,97.44
1344.00,97.45
1343.00,97.47
1342.00,97.49
1341.00,97.50
1340.00,97.51
1339.00,97.53
1338.00,97.55
1337.00,97.57
1336.00,97.58
1335.00,97.60
1334.00,97.62
1333.00,97.64
1332.00,97.67
1331.00,97.68
1330.00,97.69
1329.00,97.70
1328.00,97.71
1327.00,97.71
1326.00,97.72
1325.00,97.73
1324.00,97.73
1323.00,97.73
1322.00,97.73
1321.00,97.73
1320.00,97.72
1319.00,97.72
1318.00,97.71
1317.00,97.70
1316.00,97.70
1315.00,97.70
1314.00,97.71
1313.00,97.71
1312.00,97.70
1311.00,97.70
1310.00,97.70
1309.00,97.70
1308.00,97.70
1307.00,97.69
1306.00,97.69
1305.00,97.69
1304.00,97.70
1303.00,97.70
1302.00,97.70
1301.00,97.70
1300.00,97.70
1299.00,97.70
1298.00,97.70
1297.00,97.71
1296.00,97.71
1295.00,97.71
1294.00,97.71
1293.00,97.71
1292.00,97.71
1291.00,97.70
1290.00,97.69
1289.00,97.69
1288.00,97.71
1287.00,97.72
1286.00,97.71
1285.00,97.70
1284.00,97.68
1283.00,97.65
1282.00,97.63
1281.00,97.62
1280.00,97.60
1279.00,97.59
1278.00,97.59
1277.00,97.59
1276.00,97.59
1275.00,97.58
1274.00,97.56
1273.00,97.54
1272.00,97.52
1271.00,97.51
1270.00,97.51
1269.00,97.50
1268.00,97.49
1267.00,97.47
1266.00,97.45
1265.00,97.44
1264.00,97.44
1263.00,97.45
1262.00,97.45
1261.00,97.43
1260.00,97.39
1259.00,97.35
1258.00,97.31
1257.00,97.28
1256.00,97.25
1255.00,97.23
1254.00,97.21
1253.00,97.21
1252.00,97.21
1251.00,97.20
1250.00,97.19
1249.00,97.17
1248.00,97.16
1247.00,97.14
1246.00,97.13
1245.00,97.13
1244.00,97.14
1243.00,97.15
1242.00,97.17
1241.00,97.18
1240.00,97.18
1239.00,97.17
1238.00,97.15
1237.00,97.12
1236.00,97.10
1235.00,97.08
1234.00,97.06
1233.00,97.04
1232.00,97.02
1231.00,97.00
1230.00,96.99
1229.00,96.99
1228.00,96.98
1227.00,96.96
1226.00,96.94
1225.00,96.91
1224.00,96.89
1223.00,96.88
1222.00,96.88
1221.00,96.88
1220.00,96.88
1219.00,96.88
1218.00,96.87
1217.00,96.86
1216.00,96.84
1215.00,96.81
1214.00,96.77
1213.00,96.74
1212.00,96.73
1211.00,96.73
1210.00,96.72
1209.00,96.71
1208.00,96.69
1207.00,96.68
1206.00,96.68
1205.00,96.69
1204.00,96.69
1203.00,96.68
1202.00,96.66
1201.00,96.63
1200.00,96.61
1199.00,96.60
1198.00,96.59
1197.00,96.60
1196.00,96.62
1195.00,96.64
1194.00,96.65
1193.00,96.66
1192.00,96.68
1191.00,96.69
1190.00,96.70
1189.00,96.71
1188.00,96.72
1187.00,96.73
1186.00,96.73
1185.00,96.72
1184.00,96.71
1183.00,96.71
1182.00,96.69
1181.00,96.67
1180.00,96.65
1179.00,96.64
1178.00,96.62
1177.00,96.61
1176.00,96.60
1175.00,96.60
1174.00,96.59
1173.00,96.58
1172.00,96.55
1171.00,96.54
1170.00,96.55
1169.00,96.56
1168.00,96.58
1167.00,96.60
1166.00,96.63
1165.00,96.67
1164.00,96.72
1163.00,96.78
1162.00,96.84
1161.00,96.90
1160.00,96.97
1159.00,97.03
1158.00,97.09
1157.00,97.15
1156.00,97.21
1155.00,97.27
1154.00,97.34
1153.00,97.40
1152.00,97.44
1151.00,97.46
1150.00,97.49
1149.00,97.52
1148.00,97.57
1147.00,97.62
1146.00,97.66
1145.00,97.69
1144.00,97.71
1143.00,97.72
1142.00,97.74
1141.00,97.76
1140.00,97.79
1139.00,97.82
1138.00,97.84
1137.00,97.84
1136.00,97.83
1135.00,97.82
1134.00,97.82
1133.00,97.84
1132.00,97.86
1131.00,97.88
1130.00,97.90
1129.00,97.90
1128.00,97.87
1127.00,97.84
1126.00,97.82
1125.00,97.81
1124.00,97.81
1123.00,97.81
1122.00,97.81
1121.00,97.80
1120.00,97.76
1119.00,97.72
1118.00,97.68
1117.00,97.65
1116.00,97.62
1115.00,97.61
1114.00,97.59
1113.00,97.59
1112.00,97.58
1111.00,97.58
1110.00,97.58
1109.00,97.58
1108.00,97.60
1107.00,97.61
1106.00,97.61
1105.00,97.60
1104.00,97.57
1103.00,97.54
1102.00,97.52
1101.00,97.52
1100.00,97.54
1099.00,97.56
1098.00,97.56
1097.00,97.56
1096.00,97.55
1095.00,97.53
1094.00,97.49
1093.00,97.45
1092.00,97.42
1091.00,97.40
1090.00,97.41
1089.00,97.41
1088.00,97.39
1087.00,97.37
1086.00,97.34
1085.00,97.31
1084.00,97.27
1083.00,97.24
1082.00,97.22
1081.00,97.22
1080.00,97.23
1079.00,97.23
1078.00,97.20
1077.00,97.15
1076.00,97.10
1075.00,97.09
1074.00,97.10
1073.00,97.12
1072.00,97.12
1071.00,97.09
1070.00,97.05
1069.00,97.02
1068.00,96.99
1067.00,96.99
1066.00,97.01
1065.00,97.03
1064.00,97.04
1063.00,97.05
1062.00,97.07
1061.00,97.09
1060.00,97.12
1059.00,97.13
1058.00,97.13
1057.00,97.16
1056.00,97.20
1055.00,97.24
1054.00,97.27
1053.00,97.26
1052.00,97.24
1051.00,97.20
1050.00,97.16
1049.00,97.12
1048.00,97.08
1047.00,97.03
1046.00,96.97
1045.00,96.91
1044.00,96.85
1043.00,96.81
1042.00,96.78
1041.00,96.77
1040.00,96.78
1039.00,96.80
1038.00,96.83
1037.00,96.87
1036.00,96.92
1035.00,96.97
1034.00,97.04
1033.00,97.13
1032.00,97.22
1031.00,97.31
1030.00,97.37
1029.00,97.41
1028.00,97.46
1027.00,97.52
1026.00,97.58
1025.00,97.62
1024.00,97.64
1023.00,97.65
1022.00,97.66
1021.00,97.70
1020.00,97.75
1019.00,97.79
1018.00,97.80
1017.00,97.79
1016.00,97.79
1015.00,97.79
1014.00,97.81
1013.00,97.83
1012.00,97.85
1011.00,97.87
1010.00,97.89
1009.00,97.91
1008.00,97.91
1007.00,97.92
1006.00,97.93
1005.00,97.93
1004.00,97.92
1003.00,97.90
1002.00,97.90
1001.00,97.91
1000.00,97.93
999.00,97.95
998.00,97.98
997.00,97.99
996.00,97.98
995.00,97.98
994.00,97.98
993.00,98.01
992.00,98.03
991.00,98.04
990.00,98.04
989.00,98.04
988.00,98.04
987.00,98.04
986.00,98.04
985.00,98.03
984.00,98.03
983.00,98.05
982.00,98.08
981.00,98.10
980.00,98.10
979.00,98.08
978.00,98.05
977.00,98.04
976.00,98.05
975.00,98.05
974.00,98.05
973.00,98.06
972.00,98.07
971.00,98.09
970.00,98.11
969.00,98.12
968.00,98.13
967.00,98.14
966.00,98.14
965.00,98.13
964.00,98.11
963.00,98.09
962.00,98.07
961.00,98.05
960.00,98.03
959.00,98.03
958.00,98.03
957.00,98.05
956.00,98.07
955.00,98.09
954.00,98.11
953.00,98.13
952.00,98.15
951.00,98.17
950.00,98.17
949.00,98.18
948.00,98.17
947.00,98.16
946.00,98.17
945.00,98.18
944.00,98.20
943.00,98.22
942.00,98.23
941.00,98.24
940.00,98.24
939.00,98.24
938.00,98.23
937.00,98.21
936.00,98.18
935.00,98.16
934.00,98.16
933.00,98.20
932.00,98.24
931.00,98.27
930.00,98.26
929.00,98.23
928.00,98.20
927.00,98.18
926.00,98.19
925.00,98.21
924.00,98.24
923.00,98.25
922.00,98.25
921.00,98.23
920.00,98.19
919.00,98.17
918.00,98.17
917.00,98.20
916.00,98.23
915.00,98.27
914.00,98.30
913.00,98.30
912.00,98.29
911.00,98.26
910.00,98.25
909.00,98.25
908.00,98.26
907.00,98.26
906.00,98.26
905.00,98.26
904.00,98.25
903.00,98.24
902.00,98.23
901.00,98.23
900.00,98.24
899.00,98.25
898.00,98.26
897.00,98.26
896.00,98.24
895.00,98.22
894.00,98.21
893.00,98.23
892.00,98.25
891.00,98.28
890.00,98.31
889.00,98.34
888.00,98.34
887.00,98.32
886.00,98.29
885.00,98.28
884.00,98.29
883.00,98.32
882.00,98.33
881.00,98.35
880.00,98.36
879.00,98.39
878.00,98.41
877.00,98.40
876.00,98.39
875.00,98.40
874.00,98.43
873.00,98.46
872.00,98.47
871.00,98.45
870.00,98.42
869.00,98.38
868.00,98.36
867.00,98.35
866.00,98.34
865.00,98.34
864.00,98.33
863.00,98.33
862.00,98.34
861.00,98.36
860.00,98.36
859.00,98.34
858.00,98.33
857.00,98.34
856.00,98.36
855.00,98.37
854.00,98.36
853.00,98.33
852.00,98.31
851.00,98.29
850.00,98.29
849.00,98.30
848.00,98.32
847.00,98.33
846.00,98.33
845.00,98.33
844.00,98.31
843.00,98.29
842.00,98.28
841.00,98.28
840.00,98.30
839.00,98.33
838.00,98.37
837.00,98.40
836.00,98.42
835.00,98.42
834.00,98.40
833.00,98.38
832.00,98.37
831.00,98.36
830.00,98.35
829.00,98.34
828.00,98.35
827.00,98.37
826.00,98.37
825.00,98.36
824.00,98.34
823.00,98.34
822.00,98.36
821.00,98.38
820.00,98.40
819.00,98.43
818.00,98.46
817.00,98.47
816.00,98.44
815.00,98.39
814.00,98.33
813.00,98.30
812.00,98.32
811.00,98.35
810.00,98.37
809.00,98.37
808.00,98.37
807.00,98.36
806.00,98.37
805.00,98.37
804.00,98.35
803.00,98.32
802.00,98.31
801.00,98.32
800.00,98.37
799.00,98.41
798.00,98.42
797.00,98.38
796.00,98.33
795.00,98.31
794.00,98.33
793.00,98.36
792.00,98.37
791.00,98.35
790.00,98.33
789.00,98.31
788.00,98.31
787.00,98.32
786.00,98.34
785.00,98.35
784.00,98.36
783.00,98.35
782.00,98.35
781.00,98.35
780.00,98.35
779.00,98.36
778.00,98.38
777.00,98.40
776.00,98.41
775.00,98.42
774.00,98.42
773.00,98.42
772.00,98.40
771.00,98.39
770.00,98.39
769.00,98.40
768.00,98.39
767.00,98.37
766.00,98.36
765.00,98.36
764.00,98.38
763.00,98.40
762.00,98.42
761.00,98.43
760.00,98.43
759.00,98.43
758.00,98.44
757.00,98.47
756.00,98.50
755.00,98.49
754.00,98.45
753.00,98.41
752.00,98.41
751.00,98.45
750.00,98.50
749.00,98.53
748.00,98.54
747.00,98.53
746.00,98.51
745.00,98.49
744.00,98.47
743.00,98.49
742.00,98.52
741.00,98.57
740.00,98.62
739.00,98.68
738.00,98.75
737.00,98.80
736.00,98.83
735.00,98.81
734.00,98.76
733.00,98.71
732.00,98.69
731.00,98.71
730.00,98.74
729.00,98.78
728.00,98.80
727.00,98.79
726.00,98.75
725.00,98.71
724.00,98.70
723.00,98.73
722.00,98.78
721.00,98.84
720.00,98.88
719.00,98.88
718.00,98.88
717.00,98.89
716.00,98.92
715.00,98.95
714.00,98.95
713.00,98.92
712.00,98.89
711.00,98.87
710.00,98.86
709.00,98.89
708.00,98.93
707.00,98.97
706.00,98.97
705.00,98.94
704.00,98.92
703.00,98.92
702.00,98.91
701.00,98.90
700.00,98.89
699.00,98.87
698.00,98.84
697.00,98.77
696.00,98.71
695.00,98.68
694.00,98.70
693.00,98.76
692.00,98.81
691.00,98.83
690.00,98.82
689.00,98.78
688.00,98.78
687.00,98.81
686.00,98.86
685.00,98.89
684.00,98.90
683.00,98.89
682.00,98.88
681.00,98.88
680.00,98.91
679.00,98.93
678.00,98.91
677.00,98.87
676.00,98.84
675.00,98.86
674.00,98.89
673.00,98.89
672.00,98.88
671.00,98.86
670.00,98.81
669.00,98.73
668.00,98.63
667.00,98.56
666.00,98.64
665.00,98.84
664.00,99.00
663.00,99.05
662.00,99.04
661.00,99.03
660.00,99.07
659.00,99.11
658.00,99.12
657.00,99.08
656.00,99.01
655.00,98.95
654.00,98.89
653.00,98.83
652.00,98.79
651.00,98.78
650.00,98.80
649.00,98.85
648.00,98.89
647.00,98.94
646.00,98.96
645.00,98.94
644.00,98.85
643.00,98.74
642.00,98.65
641.00,98.66
640.00,98.73
639.00,98.78
638.00,98.75
637.00,98.66
636.00,98.60
635.00,98.62
634.00,98.70
633.00,98.80
632.00,98.86
631.00,98.90
630.00,98.91
629.00,98.94
628.00,99.00
627.00,99.05
626.00,99.04
625.00,98.94
624.00,98.77
623.00,98.60
622.00,98.45
621.00,98.33
620.00,98.23
619.00,98.22
618.00,98.34
617.00,98.60
616.00,98.90
615.00,99.06
614.00,99.02
613.00,98.84
612.00,98.61
611.00,98.40
610.00,98.28
609.00,98.29
608.00,98.41
607.00,98.58
606.00,98.74
605.00,98.80
604.00,98.45
603.00,97.35
602.00,95.70
601.00,94.33
600.00,94.10
599.00,95.19
598.00,96.86
597.00,98.16
596.00,98.77
595.00,98.96
594.00,99.04
593.00,99.15
592.00,99.26
591.00,99.29
590.00,99.16
589.00,98.89
588.00,98.64
587.00,98.64
586.00,98.93
585.00,99.36
584.00,99.64
583.00,99.47
582.00,98.86
581.00,98.27
580.00,98.19
579.00,98.57
578.00,98.72
577.00,98.21
576.00,97.44
575.00,97.17
574.00,97.58
573.00,98.19
572.00,98.57
571.00,98.60
570.00,98.32
569.00,97.86
568.00,97.51
567.00,97.53
566.00,97.90
565.00,98.38
564.00,98.75
563.00,98.82
562.00,98.45
561.00,97.82
560.00,97.47
559.00,97.73
558.00,98.39
557.00,98.90
556.00,99.04
555.00,98.93
554.00,98.55
553.00,97.79
552.00,96.86
551.00,96.25
550.00,96.26
