Created as New Dataset,37 Hoechst
cm-1,%T
4000.00,97.28
3999.00,97.27
3998.00,97.26
3997.00,97.25
3996.00,97.25
3995.00,97.24
3994.00,97.23
3993.00,97.21
3992.00,97.19
3991.00,97.18
3990.00,97.18
3989.00,97.19
3988.00,97.21
3987.00,97.23
3986.00,97.25
3985.00,97.25
3984.00,97.25
3983.00,97.24
3982.00,97.23
3981.00,97.21
3980.00,97.20
3979.00,97.20
3978.00,97.20
3977.00,97.20
3976.00,97.20
3975.00,97.19
3974.00,97.19
3973.00,97.18
3972.00,97.19
3971.00,97.20
3970.00,97.21
3969.00,97.21
3968.00,97.21
3967.00,97.21
3966.00,97.21
3965.00,97.22
3964.00,97.24
3963.00,97.25
3962.00,97.26
3961.00,97.25
3960.00,97.24
3959.00,97.23
3958.00,97.24
3957.00,97.25
3956.00,97.25
3955.00,97.23
3954.00,97.21
3953.00,97.19
3952.00,97.19
3951.00,97.20
3950.00,97.22
3949.00,97.23
3948.00,97.24
3947.00,97.23
3946.00,97.22
3945.00,97.21
3944.00,97.20
3943.00,97.20
3942.00,97.19
3941.00,97.19
3940.00,97.19
3939.00,97.20
3938.00,97.21
3937.00,97.22
3936.00,97.21
3935.00,97.20
3934.00,97.18
3933.00,97.16
3932.00,97.15
3931.00,97.14
3930.00,97.13
3929.00,97.11
3928.00,97.09
3927.00,97.08
3926.00,97.09
3925.00,97.11
3924.00,97.12
3923.00,97.11
3922.00,97.10
3921.00,97.08
3920.00,97.06
3919.00,97.05
3918.00,97.06
3917.00,97.08
3916.00,97.10
3915.00,97.11
3914.00,97.10
3913.00,97.10
3912.00,97.11
3911.00,97.13
3910.00,97.14
3909.00,97.15
3908.00,97.15
3907.00,97.15
3906.00,97.15
3905.00,97.17
3904.00,97.19
3903.00,97.19
3902.00,97.19
3901.00,97.17
3900.00,97.16
3899.00,97.15
3898.00,97.14
3897.00,97.14
3896.00,97.14
3895.00,97.14
3894.00,97.13
3893.00,97.13
3892.00,97.14
3891.00,97.14
3890.00,97.11
3889.00,97.07
3888.00,97.04
3887.00,97.04
3886.00,97.07
3885.00,97.08
3884.00,97.06
3883.00,97.04
3882.00,97.04
3881.00,97.06
3880.00,97.07
3879.00,97.07
3878.00,97.06
3877.00,97.05
3876.00,97.05
3875.00,97.05
3874.00,97.04
3873.00,97.01
3872.00,96.99
3871.00,96.99
3870.00,97.03
3869.00,97.06
3868.00,97.07
3867.00,97.07
3866.00,97.08
3865.00,97.09
3864.00,97.08
3863.00,97.08
3862.00,97.07
3861.00,97.07
3860.00,97.05
3859.00,97.03
3858.00,97.01
3857.00,96.99
3856.00,96.98
3855.00,96.97
3854.00,96.99
3853.00,96.99
3852.00,96.98
3851.00,96.97
3850.00,96.98
3849.00,96.99
3848.00,96.99
3847.00,96.97
3846.00,96.94
3845.00,96.93
3844.00,96.93
3843.00,96.93
3842.00,96.93
3841.00,96.92
3840.00,96.92
3839.00,96.93
3838.00,96.94
3837.00,96.95
3836.00,96.96
3835.00,96.96
3834.00,96.98
3833.00,97.00
3832.00,97.02
3831.00,97.02
3830.00,97.00
3829.00,96.98
3828.00,96.97
3827.00,96.97
3826.00,96.97
3825.00,96.94
3824.00,96.91
3823.00,96.89
3822.00,96.92
3821.00,96.95
3820.00,96.94
3819.00,96.91
3818.00,96.90
3817.00,96.92
3816.00,96.95
3815.00,96.94
3814.00,96.92
3813.00,96.91
3812.00,96.91
3811.00,96.92
3810.00,96.92
3809.00,96.91
3808.00,96.92
3807.00,96.93
3806.00,96.92
3805.00,96.89
3804.00,96.86
3803.00,96.85
3802.00,96.87
3801.00,96.87
3800.00,96.85
3799.00,96.83
3798.00,96.85
3797.00,96.90
3796.00,96.94
3795.00,96.95
3794.00,96.94
3793.00,96.93
3792.00,96.91
3791.00,96.90
3790.00,96.89
3789.00,96.88
3788.00,96.86
3787.00,96.84
3786.00,96.82
3785.00,96.81
3784.00,96.81
3783.00,96.81
3782.00,96.80
3781.00,96.80
3780.00,96.80
3779.00,96.81
3778.00,96.81
3777.00,96.81
3776.00,96.81
3775.00,96.80
3774.00,96.77
3773.00,96.74
3772.00,96.73
3771.00,96.73
3770.00,96.74
3769.00,96.73
3768.00,96.72
3767.00,96.70
3766.00,96.71
3765.00,96.73
3764.00,96.74
3763.00,96.73
3762.00,96.71
3761.00,96.67
3760.00,96.64
3759.00,96.62
3758.00,96.63
3757.00,96.65
3756.00,96.66
3755.00,96.65
3754.00,96.64
3753.00,96.64
3752.00,96.65
3751.00,96.67
3750.00,96.68
3749.00,96.67
3748.00,96.66
3747.00,96.66
3746.00,96.69
3745.00,96.73
3744.00,96.72
3743.00,96.67
3742.00,96.63
3741.00,96.62
3740.00,96.63
3739.00,96.63
3738.00,96.61
3737.00,96.59
3736.00,96.59
3735.00,96.60
3734.00,96.61
3733.00,96.63
3732.00,96.65
3731.00,96.66
3730.00,96.66
3729.00,96.66
3728.00,96.66
3727.00,96.65
3726.00,96.63
3725.00,96.59
3724.00,96.56
3723.00,96.54
3722.00,96.56
3721.00,96.58
3720.00,96.59
3719.00,96.59
3718.00,96.57
3717.00,96.56
3716.00,96.56
3715.00,96.58
3714.00,96.59
3713.00,96.60
3712.00,96.60
3711.00,96.60
3710.00,96.58
3709.00,96.55
3708.00,96.54
3707.00,96.54
3706.00,96.54
3705.00,96.54
3704.00,96.54
3703.00,96.53
3702.00,96.53
3701.00,96.52
3700.00,96.50
3699.00,96.49
3698.00,96.48
3697.00,96.48
3696.00,96.50
3695.00,96.51
3694.00,96.52
3693.00,96.52
3692.00,96.51
3691.00,96.50
3690.00,96.49
3689.00,96.49
3688.00,96.48
3687.00,96.47
3686.00,96.48
3685.00,96.51
3684.00,96.53
3683.00,96.54
3682.00,96.52
3681.00,96.50
3680.00,96.48
3679.00,96.46
3678.00,96.43
3677.00,96.42
3676.00,96.45
3675.00,96.46
3674.00,96.43
3673.00,96.40
3672.00,96.41
3671.00,96.46
3670.00,96.53
3669.00,96.55
3668.00,96.54
3667.00,96.51
3666.00,96.48
3665.00,96.45
3664.00,96.41
3663.00,96.37
3662.00,96.35
3661.00,96.34
3660.00,96.34
3659.00,96.34
3658.00,96.35
3657.00,96.35
3656.00,96.34
3655.00,96.30
3654.00,96.26
3653.00,96.22
3652.00,96.18
3651.00,96.17
3650.00,96.17
3649.00,96.17
3648.00,96.16
3647.00,96.15
3646.00,96.15
3645.00,96.16
3644.00,96.17
3643.00,96.20
3642.00,96.22
3641.00,96.22
3640.00,96.20
3639.00,96.17
3638.00,96.16
3637.00,96.16
3636.00,96.18
3635.00,96.22
3634.00,96.26
3633.00,96.27
3632.00,96.27
3631.00,96.25
3630.00,96.25
3629.00,96.24
3628.00,96.21
3627.00,96.15
3626.00,96.12
3625.00,96.12
3624.00,96.13
3623.00,96.14
3622.00,96.13
3621.00,96.12
3620.00,96.11
3619.00,96.11
3618.00,96.10
3617.00,96.09
3616.00,96.09
3615.00,96.11
3614.00,96.15
3613.00,96.19
3612.00,96.20
3611.00,96.18
3610.00,96.17
3609.00,96.15
3608.00,96.15
3607.00,96.15
3606.00,96.14
3605.00,96.14
3604.00,96.13
3603.00,96.11
3602.00,96.08
3601.00,96.07
3600.00,96.08
3599.00,96.10
3598.00,96.12
3597.00,96.15
3596.00,96.17
3595.00,96.19
3594.00,96.20
3593.00,96.20
3592.00,96.18
3591.00,96.15
3590.00,96.11
3589.00,96.09
3588.00,96.10
3587.00,96.14
3586.00,96.18
3585.00,96.22
3584.00,96.23
3583.00,96.24
3582.00,96.24
3581.00,96.23
3580.00,96.23
3579.00,96.23
3578.00,96.22
3577.00,96.22
3576.00,96.22
3575.00,96.22
3574.00,96.22
3573.00,96.22
3572.00,96.21
3571.00,96.19
3570.00,96.15
3569.00,96.11
3568.00,96.10
3567.00,96.12
3566.00,96.14
3565.00,96.16
3564.00,96.18
3563.00,96.20
3562.00,96.22
3561.00,96.23
3560.00,96.23
3559.00,96.21
3558.00,96.20
3557.00,96.19
3556.00,96.18
3555.00,96.18
3554.00,96.16
3553.00,96.15
3552.00,96.14
3551.00,96.15
3550.00,96.16
3549.00,96.18
3548.00,96.18
3547.00,96.18
3546.00,96.17
3545.00,96.16
3544.00,96.16
3543.00,96.17
3542.00,96.17
3541.00,96.17
3540.00,96.17
3539.00,96.17
3538.00,96.17
3537.00,96.17
3536.00,96.18
3535.00,96.19
3534.00,96.20
3533.00,96.20
3532.00,96.20
3531.00,96.21
3530.00,96.22
3529.00,96.22
3528.00,96.22
3527.00,96.20
3526.00,96.18
3525.00,96.16
3524.00,96.17
3523.00,96.19
3522.00,96.23
3521.00,96.25
3520.00,96.26
3519.00,96.26
3518.00,96.26
3517.00,96.25
3516.00,96.24
3515.00,96.23
3514.00,96.23
3513.00,96.24
3512.00,96.24
3511.00,96.23
3510.00,96.21
3509.00,96.19
3508.00,96.19
3507.00,96.19
3506.00,96.21
3505.00,96.23
3504.00,96.24
3503.00,96.24
3502.00,96.23
3501.00,96.21
3500.00,96.21
3499.00,96.22
3498.00,96.25
3497.00,96.27
3496.00,96.28
3495.00,96.28
3494.00,96.28
3493.00,96.29
3492.00,96.32
3491.00,96.35
3490.00,96.37
3489.00,96.37
3488.00,96.37
3487.00,96.35
3486.00,96.33
3485.00,96.32
3484.00,96.32
3483.00,96.34
3482.00,96.36
3481.00,96.37
3480.00,96.35
3479.00,96.32
3478.00,96.30
3477.00,96.30
3476.00,96.30
3475.00,96.29
3474.00,96.27
3473.00,96.25
3472.00,96.24
3471.00,96.23
3470.00,96.23
3469.00,96.24
3468.00,96.25
3467.00,96.27
3466.00,96.28
3465.00,96.29
3464.00,96.28
3463.00,96.28
3462.00,96.28
3461.00,96.28
3460.00,96.27
3459.00,96.26
3458.00,96.26
3457.00,96.26
3456.00,96.28
3455.00,96.30
3454.00,96.32
3453.00,96.33
3452.00,96.32
3451.00,96.31
3450.00,96.30
3449.00,96.29
3448.00,96.30
3447.00,96.30
3446.00,96.30
3445.00,96.30
3444.00,96.30
3443.00,96.31
3442.00,96.34
3441.00,96.36
3440.00,96.35
3439.00,96.33
3438.00,96.30
3437.00,96.29
3436.00,96.28
3435.00,96.27
3434.00,96.27
3433.00,96.27
3432.00,96.27
3431.00,96.28
3430.00,96.30
3429.00,96.31
3428.00,96.31
3427.00,96.32
3426.00,96.31
3425.00,96.30
3424.00,96.29
3423.00,96.28
3422.00,96.27
3421.00,96.28
3420.00,96.30
3419.00,96.33
3418.00,96.34
3417.00,96.35
3416.00,96.35
3415.00,96.36
3414.00,96.37
3413.00,96.38
3412.00,96.40
3411.00,96.41
3410.00,96.40
3409.00,96.39
3408.00,96.37
3407.00,96.35
3406.00,96.32
3405.00,96.31
3404.00,96.30
3403.00,96.30
3402.00,96.31
3401.00,96.32
3400.00,96.32
3399.00,96.33
3398.00,96.33
3397.00,96.33
3396.00,96.31
3395.00,96.30
3394.00,96.30
3393.00,96.30
3392.00,96.31
3391.00,96.30
3390.00,96.30
3389.00,96.28
3388.00,96.27
3387.00,96.26
3386.00,96.26
3385.00,96.26
3384.00,96.27
3383.00,96.29
3382.00,96.30
3381.00,96.32
3380.00,96.33
3379.00,96.34
3378.00,96.34
3377.00,96.34
3376.00,96.32
3375.00,96.31
3374.00,96.31
3373.00,96.31
3372.00,96.32
3371.00,96.33
3370.00,96.34
3369.00,96.34
3368.00,96.33
3367.00,96.31
3366.00,96.30
3365.00,96.30
3364.00,96.30
3363.00,96.30
3362.00,96.29
3361.00,96.28
3360.00,96.27
3359.00,96.26
3358.00,96.26
3357.00,96.27
3356.00,96.27
3355.00,96.28
3354.00,96.28
3353.00,96.28
3352.00,96.27
3351.00,96.26
3350.00,96.26
3349.00,96.27
3348.00,96.29
3347.00,96.30
3346.00,96.32
3345.00,96.33
3344.00,96.33
3343.00,96.31
3342.00,96.27
3341.00,96.25
3340.00,96.26
3339.00,96.28
3338.00,96.29
3337.00,96.29
3336.00,96.29
3335.00,96.29
3334.00,96.29
3333.00,96.29
3332.00,96.28
3331.00,96.26
3330.00,96.25
3329.00,96.24
3328.00,96.25
3327.00,96.25
3326.00,96.25
3325.00,96.24
3324.00,96.23
3323.00,96.23
3322.00,96.23
3321.00,96.23
3320.00,96.23
3319.00,96.23
3318.00,96.22
3317.00,96.22
3316.00,96.23
3315.00,96.23
3314.00,96.23
3313.00,96.23
3312.00,96.22
3311.00,96.21
3310.00,96.22
3309.00,96.23
3308.00,96.24
3307.00,96.23
3306.00,96.22
3305.00,96.21
3304.00,96.22
3303.00,96.24
3302.00,96.26
3301.00,96.27
3300.00,96.26
3299.00,96.25
3298.00,96.22
3297.00,96.19
3296.00,96.16
3295.00,96.15
3294.00,96.15
3293.00,96.16
3292.00,96.16
3291.00,96.17
3290.00,96.17
3289.00,96.17
3288.00,96.16
3287.00,96.15
3286.00,96.14
3285.00,96.14
3284.00,96.13
3283.00,96.13
3282.00,96.13
3281.00,96.13
3280.00,96.13
3279.00,96.13
3278.00,96.12
3277.00,96.10
3276.00,96.08
3275.00,96.07
3274.00,96.07
3273.00,96.08
3272.00,96.09
3271.00,96.10
3270.00,96.11
3269.00,96.12
3268.00,96.12
3267.00,96.12
3266.00,96.12
3265.00,96.12
3264.00,96.12
3263.00,96.12
3262.00,96.11
3261.00,96.09
3260.00,96.07
3259.00,96.06
3258.00,96.05
3257.00,96.06
3256.00,96.08
3255.00,96.09
3254.00,96.10
3253.00,96.10
3252.00,96.08
3251.00,96.07
3250.00,96.08
3249.00,96.09
3248.00,96.11
3247.00,96.13
3246.00,96.13
3245.00,96.13
3244.00,96.12
3243.00,96.10
3242.00,96.08
3241.00,96.06
3240.00,96.04
3239.00,96.03
3238.00,96.02
3237.00,96.01
3236.00,96.01
3235.00,96.02
3234.00,96.03
3233.00,96.03
3232.00,96.04
3231.00,96.04
3230.00,96.05
3229.00,96.04
3228.00,96.04
3227.00,96.05
3226.00,96.06
3225.00,96.06
3224.00,96.06
3223.00,96.05
3222.00,96.05
3221.00,96.06
3220.00,96.09
3219.00,96.10
3218.00,96.10
3217.00,96.07
3216.00,96.04
3215.00,96.02
3214.00,96.01
3213.00,96.01
3212.00,96.00
3211.00,95.99
3210.00,96.00
3209.00,96.01
3208.00,96.03
3207.00,96.04
3206.00,96.03
3205.00,96.02
3204.00,96.02
3203.00,96.03
3202.00,96.03
3201.00,96.04
3200.00,96.03
3199.00,96.02
3198.00,96.02
3197.00,96.03
3196.00,96.05
3195.00,96.07
3194.00,96.09
3193.00,96.09
3192.00,96.08
3191.00,96.07
3190.00,96.06
3189.00,96.06
3188.00,96.04
3187.00,96.02
3186.00,96.01
3185.00,96.01
3184.00,96.02
3183.00,96.04
3182.00,96.06
3181.00,96.07
3180.00,96.08
3179.00,96.08
3178.00,96.07
3177.00,96.06
3176.00,96.05
3175.00,96.05
3174.00,96.04
3173.00,96.04
3172.00,96.03
3171.00,96.02
3170.00,96.03
3169.00,96.04
3168.00,96.05
3167.00,96.06
3166.00,96.07
3165.00,96.07
3164.00,96.07
3163.00,96.08
3162.00,96.08
3161.00,96.06
3160.00,96.04
3159.00,96.02
3158.00,96.03
3157.00,96.04
3156.00,96.05
3155.00,96.06
3154.00,96.07
3153.00,96.07
3152.00,96.08
3151.00,96.08
3150.00,96.08
3149.00,96.08
3148.00,96.07
3147.00,96.07
3146.00,96.08
3145.00,96.09
3144.00,96.09
3143.00,96.10
3142.00,96.10
3141.00,96.12
3140.00,96.13
3139.00,96.13
3138.00,96.12
3137.00,96.11
3136.00,96.09
3135.00,96.09
3134.00,96.09
3133.00,96.10
3132.00,96.11
3131.00,96.12
3130.00,96.10
3129.00,96.08
3128.00,96.06
3127.00,96.07
3126.00,96.08
3125.00,96.10
3124.00,96.11
3123.00,96.12
3122.00,96.11
3121.00,96.09
3120.00,96.07
3119.00,96.06
3118.00,96.05
3117.00,96.04
3116.00,96.04
3115.00,96.05
3114.00,96.06
3113.00,96.07
3112.00,96.09
3111.00,96.10
3110.00,96.10
3109.00,96.09
3108.00,96.06
3107.00,96.04
3106.00,96.02
3105.00,96.01
3104.00,96.02
3103.00,96.03
3102.00,96.04
3101.00,96.06
3100.00,96.08
3099.00,96.11
3098.00,96.12
3097.00,96.12
3096.00,96.10
3095.00,96.09
3094.00,96.09
3093.00,96.08
3092.00,96.08
3091.00,96.08
3090.00,96.06
3089.00,96.04
3088.00,96.03
3087.00,96.03
3086.00,96.03
3085.00,96.03
3084.00,96.02
3083.00,96.01
3082.00,96.00
3081.00,95.99
3080.00,95.99
3079.00,96.00
3078.00,96.02
3077.00,96.03
3076.00,96.04
3075.00,96.02
3074.00,95.99
3073.00,95.96
3072.00,95.95
3071.00,95.95
3070.00,95.96
3069.00,95.97
3068.00,95.97
3067.00,95.97
3066.00,95.97
3065.00,95.97
3064.00,95.97
3063.00,95.97
3062.00,95.98
3061.00,95.98
3060.00,95.98
3059.00,95.98
3058.00,95.99
3057.00,95.99
3056.00,95.98
3055.00,95.97
3054.00,95.96
3053.00,95.95
3052.00,95.94
3051.00,95.95
3050.00,95.96
3049.00,95.98
3048.00,95.99
3047.00,96.00
3046.00,95.99
3045.00,95.98
3044.00,95.96
3043.00,95.95
3042.00,95.95
3041.00,95.96
3040.00,95.97
3039.00,95.97
3038.00,95.96
3037.00,95.95
3036.00,95.94
3035.00,95.94
3034.00,95.94
3033.00,95.93
3032.00,95.92
3031.00,95.91
3030.00,95.92
3029.00,95.92
3028.00,95.92
3027.00,95.92
3026.00,95.92
3025.00,95.93
3024.00,95.93
3023.00,95.93
3022.00,95.92
3021.00,95.91
3020.00,95.89
3019.00,95.89
3018.00,95.89
3017.00,95.88
3016.00,95.86
3015.00,95.84
3014.00,95.82
3013.00,95.81
3012.00,95.80
3011.00,95.80
3010.00,95.79
3009.00,95.78
3008.00,95.78
3007.00,95.77
3006.00,95.76
3005.00,95.76
3004.00,95.75
3003.00,95.74
3002.00,95.72
3001.00,95.69
3000.00,95.65
2999.00,95.62
2998.00,95.61
2997.00,95.60
2996.00,95.60
2995.00,95.59
2994.00,95.58
2993.00,95.56
2992.00,95.55
2991.00,95.55
2990.00,95.55
2989.00,95.54
2988.00,95.52
2987.00,95.50
2986.00,95.49
2985.00,95.49
2984.00,95.49
2983.00,95.49
2982.00,95.48
2981.00,95.47
2980.00,95.46
2979.00,95.46
2978.00,95.45
2977.00,95.44
2976.00,95.42
2975.00,95.40
2974.00,95.38
2973.00,95.35
2972.00,95.34
2971.00,95.34
2970.00,95.34
2969.00,95.34
2968.00,95.33
2967.00,95.32
2966.00,95.30
2965.00,95.28
2964.00,95.26
2963.00,95.25
2962.00,95.22
2961.00,95.19
2960.00,95.15
2959.00,95.09
2958.00,95.04
2957.00,94.99
2956.00,94.93
2955.00,94.88
2954.00,94.82
2953.00,94.77
2952.00,94.72
2951.00,94.67
2950.00,94.60
2949.00,94.51
2948.00,94.42
2947.00,94.34
2946.00,94.28
2945.00,94.23
2944.00,94.17
2943.00,94.11
2942.00,94.05
2941.00,93.98
2940.00,93.92
2939.00,93.87
2938.00,93.84
2937.00,93.83
2936.00,93.85
2935.00,93.87
2934.00,93.88
2933.00,93.88
2932.00,93.88
2931.00,93.88
2930.00,93.89
2929.00,93.91
2928.00,93.92
2927.00,93.92
2926.00,93.92
2925.00,93.90
2924.00,93.89
2923.00,93.89
2922.00,93.91
2921.00,93.95
2920.00,94.00
2919.00,94.02
2918.00,94.04
2917.00,94.06
2916.00,94.10
2915.00,94.16
2914.00,94.24
2913.00,94.32
2912.00,94.40
2911.00,94.46
2910.00,94.50
2909.00,94.55
2908.00,94.59
2907.00,94.64
2906.00,94.69
2905.00,94.75
2904.00,94.81
2903.00,94.86
2902.00,94.89
2901.00,94.92
2900.00,94.94
2899.00,94.97
2898.00,95.01
2897.00,95.05
2896.00,95.08
2895.00,95.10
2894.00,95.10
2893.00,95.10
2892.00,95.11
2891.00,95.11
2890.00,95.13
2889.00,95.15
2888.00,95.17
2887.00,95.19
2886.00,95.21
2885.00,95.21
2884.00,95.22
2883.00,95.23
2882.00,95.23
2881.00,95.22
2880.00,95.20
2879.00,95.17
2878.00,95.14
2877.00,95.12
2876.00,95.11
2875.00,95.11
2874.00,95.11
2873.00,95.11
2872.00,95.10
2871.00,95.10
2870.00,95.09
2869.00,95.09
2868.00,95.10
2867.00,95.12
2866.00,95.16
2865.00,95.19
2864.00,95.20
2863.00,95.20
2862.00,95.19
2861.00,95.19
2860.00,95.20
2859.00,95.22
2858.00,95.25
2857.00,95.28
2856.00,95.30
2855.00,95.32
2854.00,95.33
2853.00,95.34
2852.00,95.35
2851.00,95.37
2850.00,95.39
2849.00,95.43
2848.00,95.47
2847.00,95.52
2846.00,95.55
2845.00,95.57
2844.00,95.58
2843.00,95.60
2842.00,95.63
2841.00,95.66
2840.00,95.68
2839.00,95.70
2838.00,95.71
2837.00,95.73
2836.00,95.74
2835.00,95.76
2834.00,95.77
2833.00,95.77
2832.00,95.77
2831.00,95.77
2830.00,95.78
2829.00,95.78
2828.00,95.77
2827.00,95.77
2826.00,95.77
2825.00,95.78
2824.00,95.79
2823.00,95.80
2822.00,95.80
2821.00,95.80
2820.00,95.80
2819.00,95.80
2818.00,95.81
2817.00,95.82
2816.00,95.82
2815.00,95.81
2814.00,95.79
2813.00,95.79
2812.00,95.79
2811.00,95.81
2810.00,95.81
2809.00,95.81
2808.00,95.80
2807.00,95.79
2806.00,95.78
2805.00,95.79
2804.00,95.79
2803.00,95.80
2802.00,95.81
2801.00,95.83
2800.00,95.85
2799.00,95.87
2798.00,95.87
2797.00,95.87
2796.00,95.87
2795.00,95.86
2794.00,95.85
2793.00,95.85
2792.00,95.85
2791.00,95.85
2790.00,95.85
2789.00,95.86
2788.00,95.87
2787.00,95.88
2786.00,95.89
2785.00,95.89
2784.00,95.90
2783.00,95.91
2782.00,95.92
2781.00,95.91
2780.00,95.90
2779.00,95.89
2778.00,95.90
2777.00,95.90
2776.00,95.91
2775.00,95.90
2774.00,95.90
2773.00,95.90
2772.00,95.90
2771.00,95.92
2770.00,95.93
2769.00,95.94
2768.00,95.94
2767.00,95.95
2766.00,95.95
2765.00,95.95
2764.00,95.95
2763.00,95.94
2762.00,95.94
2761.00,95.95
2760.00,95.95
2759.00,95.95
2758.00,95.93
2757.00,95.92
2756.00,95.91
2755.00,95.92
2754.00,95.93
2753.00,95.93
2752.00,95.93
2751.00,95.92
2750.00,95.91
2749.00,95.91
2748.00,95.92
2747.00,95.92
2746.00,95.93
2745.00,95.93
2744.00,95.92
2743.00,95.92
2742.00,95.92
2741.00,95.92
2740.00,95.92
2739.00,95.91
2738.00,95.91
2737.00,95.91
2736.00,95.91
2735.00,95.91
2734.00,95.91
2733.00,95.91
2732.00,95.91
2731.00,95.90
2730.00,95.89
2729.00,95.89
2728.00,95.88
2727.00,95.87
2726.00,95.87
2725.00,95.87
2724.00,95.88
2723.00,95.90
2722.00,95.91
2721.00,95.91
2720.00,95.91
2719.00,95.91
2718.00,95.91
2717.00,95.91
2716.00,95.91
2715.00,95.91
2714.00,95.90
2713.00,95.90
2712.00,95.90
2711.00,95.90
2710.00,95.89
2709.00,95.88
2708.00,95.88
2707.00,95.90
2706.00,95.92
2705.00,95.93
2704.00,95.92
2703.00,95.90
2702.00,95.89
2701.00,95.89
2700.00,95.90
2699.00,95.91
2698.00,95.91
2697.00,95.90
2696.00,95.89
2695.00,95.89
2694.00,95.89
2693.00,95.88
2692.00,95.87
2691.00,95.87
2690.00,95.87
2689.00,95.87
2688.00,95.88
2687.00,95.87
2686.00,95.87
2685.00,95.87
2684.00,95.86
2683.00,95.86
2682.00,95.86
2681.00,95.86
2680.00,95.86
2679.00,95.85
2678.00,95.85
2677.00,95.86
2676.00,95.87
2675.00,95.87
2674.00,95.88
2673.00,95.87
2672.00,95.88
2671.00,95.88
2670.00,95.88
2669.00,95.87
2668.00,95.86
2667.00,95.85
2666.00,95.85
2665.00,95.83
2664.00,95.82
2663.00,95.80
2662.00,95.80
2661.00,95.79
2660.00,95.78
2659.00,95.76
2658.00,95.74
2657.00,95.72
2656.00,95.70
2655.00,95.69
2654.00,95.68
2653.00,95.66
2652.00,95.65
2651.00,95.63
2650.00,95.62
2649.00,95.62
2648.00,95.61
2647.00,95.60
2646.00,95.59
2645.00,95.56
2644.00,95.54
2643.00,95.52
2642.00,95.50
2641.00,95.49
2640.00,95.49
2639.00,95.49
2638.00,95.49
2637.00,95.48
2636.00,95.46
2635.00,95.44
2634.00,95.42
2633.00,95.41
2632.00,95.40
2631.00,95.38
2630.00,95.36
2629.00,95.35
2628.00,95.35
2627.00,95.36
2626.00,95.35
2625.00,95.33
2624.00,95.30
2623.00,95.29
2622.00,95.30
2621.00,95.30
2620.00,95.29
2619.00,95.27
2618.00,95.26
2617.00,95.25
2616.00,95.25
2615.00,95.24
2614.00,95.23
2613.00,95.21
2612.00,95.19
2611.00,95.19
2610.00,95.20
2609.00,95.20
2608.00,95.20
2607.00,95.19
2606.00,95.16
2605.00,95.12
2604.00,95.08
2603.00,95.06
2602.00,95.05
2601.00,95.07
2600.00,95.08
2599.00,95.08
2598.00,95.08
2597.00,95.07
2596.00,95.07
2595.00,95.06
2594.00,95.04
2593.00,95.03
2592.00,95.02
2591.00,95.01
2590.00,95.00
2589.00,94.99
2588.00,94.97
2587.00,94.96
2586.00,94.94
2585.00,94.93
2584.00,94.92
2583.00,94.92
2582.00,94.92
2581.00,94.93
2580.00,94.93
2579.00,94.92
2578.00,94.92
2577.00,94.92
2576.00,94.92
2575.00,94.91
2574.00,94.91
2573.00,94.90
2572.00,94.89
2571.00,94.87
2570.00,94.86
2569.00,94.85
2568.00,94.85
2567.00,94.85
2566.00,94.85
2565.00,94.85
2564.00,94.85
2563.00,94.84
2562.00,94.84
2561.00,94.83
2560.00,94.82
2559.00,94.80
2558.00,94.78
2557.00,94.77
2556.00,94.77
2555.00,94.79
2554.00,94.80
2553.00,94.80
2552.00,94.80
2551.00,94.79
2550.00,94.78
2549.00,94.75
2548.00,94.73
2547.00,94.72
2546.00,94.71
2545.00,94.72
2544.00,94.74
2543.00,94.75
2542.00,94.74
2541.00,94.73
2540.00,94.72
2539.00,94.71
2538.00,94.71
2537.00,94.70
2536.00,94.69
2535.00,94.70
2534.00,94.71
2533.00,94.74
2532.00,94.75
2531.00,94.74
2530.00,94.70
2529.00,94.66
2528.00,94.65
2527.00,94.66
2526.00,94.68
2525.00,94.70
2524.00,94.71
2523.00,94.71
2522.00,94.70
2521.00,94.69
2520.00,94.69
2519.00,94.70
2518.00,94.73
2517.00,94.76
2516.00,94.77
2515.00,94.76
2514.00,94.74
2513.00,94.70
2512.00,94.67
2511.00,94.65
2510.00,94.65
2509.00,94.67
2508.00,94.69
2507.00,94.72
2506.00,94.74
2505.00,94.73
2504.00,94.72
2503.00,94.70
2502.00,94.69
2501.00,94.69
2500.00,94.68
2499.00,94.68
2498.00,94.68
2497.00,94.70
2496.00,94.72
2495.00,94.75
2494.00,94.77
2493.00,94.77
2492.00,94.75
2491.00,94.73
2490.00,94.72
2489.00,94.71
2488.00,94.71
2487.00,94.72
2486.00,94.72
2485.00,94.72
2484.00,94.71
2483.00,94.70
2482.00,94.70
2481.00,94.71
2480.00,94.73
2479.00,94.75
2478.00,94.76
2477.00,94.77
2476.00,94.77
2475.00,94.76
2474.00,94.75
2473.00,94.75
2472.00,94.75
2471.00,94.77
2470.00,94.79
2469.00,94.80
2468.00,94.80
2467.00,94.79
2466.00,94.79
2465.00,94.79
2464.00,94.80
2463.00,94.80
2462.00,94.80
2461.00,94.81
2460.00,94.81
2459.00,94.81
2458.00,94.79
2457.00,94.77
2456.00,94.74
2455.00,94.74
2454.00,94.74
2453.00,94.76
2452.00,94.77
2451.00,94.77
2450.00,94.75
2449.00,94.71
2448.00,94.68
2447.00,94.67
2446.00,94.68
2445.00,94.70
2444.00,94.71
2443.00,94.73
2442.00,94.76
2441.00,94.79
2440.00,94.81
2439.00,94.81
2438.00,94.80
2437.00,94.79
2436.00,94.79
2435.00,94.80
2434.00,94.81
2433.00,94.82
2432.00,94.82
2431.00,94.82
2430.00,94.82
2429.00,94.83
2428.00,94.83
2427.00,94.83
2426.00,94.82
2425.00,94.81
2424.00,94.80
2423.00,94.82
2422.00,94.85
2421.00,94.88
2420.00,94.89
2419.00,94.87
2418.00,94.85
2417.00,94.84
2416.00,94.84
2415.00,94.84
2414.00,94.84
2413.00,94.84
2412.00,94.84
2411.00,94.85
2410.00,94.87
2409.00,94.89
2408.00,94.90
2407.00,94.90
2406.00,94.89
2405.00,94.90
2404.00,94.91
2403.00,94.93
2402.00,94.96
2401.00,94.99
2400.00,95.00
2399.00,95.01
2398.00,95.00
2397.00,95.00
2396.00,95.02
2395.00,95.05
2394.00,95.08
2393.00,95.09
2392.00,95.10
2391.00,95.09
2390.00,95.10
2389.00,95.11
2388.00,95.13
2387.00,95.15
2386.00,95.17
2385.00,95.19
2384.00,95.22
2383.00,95.25
2382.00,95.28
2381.00,95.30
2380.00,95.31
2379.00,95.31
2378.00,95.32
2377.00,95.32
2376.00,95.32
2375.00,95.32
2374.00,95.33
2373.00,95.34
2372.00,95.36
2371.00,95.38
2370.00,95.38
2369.00,95.36
2368.00,95.34
2367.00,95.34
2366.00,95.37
2365.00,95.40
2364.00,95.42
2363.00,95.44
2362.00,95.45
2361.00,95.45
2360.00,95.44
2359.00,95.44
2358.00,95.44
2357.00,95.44
2356.00,95.44
2355.00,95.45
2354.00,95.46
2353.00,95.46
2352.00,95.46
2351.00,95.46
2350.00,95.46
2349.00,95.47
2348.00,95.49
2347.00,95.53
2346.00,95.57
2345.00,95.59
2344.00,95.57
2343.00,95.52
2342.00,95.47
2341.00,95.44
2340.00,95.42
2339.00,95.40
2338.00,95.36
2337.00,95.34
2336.00,95.34
2335.00,95.38
2334.00,95.42
2333.00,95.45
2332.00,95.44
2331.00,95.40
2330.00,95.36
2329.00,95.32
2328.00,95.28
2327.00,95.24
2326.00,95.20
2325.00,95.15
2324.00,95.12
2323.00,95.09
2322.00,95.07
2321.00,95.06
2320.00,95.03
2319.00,94.99
2318.00,94.96
2317.00,94.95
2316.00,94.94
2315.00,94.94
2314.00,94.93
2313.00,94.93
2312.00,94.92
2311.00,94.91
2310.00,94.88
2309.00,94.83
2308.00,94.79
2307.00,94.77
2306.00,94.75
2305.00,94.75
2304.00,94.76
2303.00,94.76
2302.00,94.75
2301.00,94.73
2300.00,94.70
2299.00,94.67
2298.00,94.63
2297.00,94.59
2296.00,94.55
2295.00,94.51
2294.00,94.47
2293.00,94.43
2292.00,94.40
2291.00,94.37
2290.00,94.34
2289.00,94.30
2288.00,94.27
2287.00,94.23
2286.00,94.20
2285.00,94.18
2284.00,94.17
2283.00,94.16
2282.00,94.14
2281.00,94.10
2280.00,94.06
2279.00,94.04
2278.00,94.02
2277.00,94.00
2276.00,93.97
2275.00,93.95
2274.00,93.93
2273.00,93.91
2272.00,93.88
2271.00,93.83
2270.00,93.77
2269.00,93.72
2268.00,93.69
2267.00,93.67
2266.00,93.66
2265.00,93.65
2264.00,93.61
2263.00,93.55
2262.00,93.46
2261.00,93.37
2260.00,93.27
2259.00,93.17
2258.00,93.04
2257.00,92.87
2256.00,92.65
2255.00,92.36
2254.00,92.03
2253.00,91.66
2252.00,91.23
2251.00,90.73
2250.00,90.17
2249.00,89.56
2248.00,88.94
2247.00,88.33
2246.00,87.76
2245.00,87.27
2244.00,86.89
2243.00,86.64
2242.00,86.56
2241.00,86.68
2240.00,86.99
2239.00,87.43
2238.00,87.97
2237.00,88.57
2236.00,89.23
2235.00,89.88
2234.00,90.46
2233.00,90.94
2232.00,91.31
2231.00,91.60
2230.00,91.82
2229.00,91.99
2228.00,92.11
2227.00,92.19
2226.00,92.22
2225.00,92.22
2224.00,92.20
2223.00,92.21
2222.00,92.24
2221.00,92.31
2220.00,92.36
2219.00,92.36
2218.00,92.32
2217.00,92.28
2216.00,92.26
2215.00,92.25
2214.00,92.24
2213.00,92.22
2212.00,92.21
2211.00,92.20
2210.00,92.20
2209.00,92.21
2208.00,92.23
2207.00,92.24
2206.00,92.24
2205.00,92.22
2204.00,92.18
2203.00,92.13
2202.00,92.07
2201.00,92.03
2200.00,92.02
2199.00,92.03
2198.00,92.06
2197.00,92.08
2196.00,92.07
2195.00,92.03
2194.00,91.96
2193.00,91.91
2192.00,91.87
2191.00,91.83
2190.00,91.78
2189.00,91.74
2188.00,91.74
2187.00,91.77
2186.00,91.80
2185.00,91.81
2184.00,91.80
2183.00,91.79
2182.00,91.76
2181.00,91.72
2180.00,91.66
2179.00,91.63
2178.00,91.63
2177.00,91.66
2176.00,91.69
2175.00,91.71
2174.00,91.70
2173.00,91.68
2172.00,91.65
2171.00,91.59
2170.00,91.50
2169.00,91.41
2168.00,91.33
2167.00,91.28
2166.00,91.25
2165.00,91.21
2164.00,91.14
2163.00,90.99
2162.00,90.81
2161.00,90.69
2160.00,90.74
2159.00,90.97
2158.00,91.28
2157.00,91.54
2156.00,91.71
2155.00,91.83
2154.00,91.92
2153.00,91.96
2152.00,91.98
2151.00,91.99
2150.00,92.06
2149.00,92.17
2148.00,92.27
2147.00,92.35
2146.00,92.40
2145.00,92.46
2144.00,92.54
2143.00,92.61
2142.00,92.65
2141.00,92.66
2140.00,92.65
2139.00,92.65
2138.00,92.68
2137.00,92.76
2136.00,92.89
2135.00,93.08
2134.00,93.28
2133.00,93.43
2132.00,93.51
2131.00,93.51
2130.00,93.46
2129.00,93.40
2128.00,93.35
2127.00,93.33
2126.00,93.35
2125.00,93.39
2124.00,93.43
2123.00,93.46
2122.00,93.48
2121.00,93.51
2120.00,93.55
2119.00,93.56
2118.00,93.56
2117.00,93.52
2116.00,93.47
2115.00,93.41
2114.00,93.36
2113.00,93.34
2112.00,93.37
2111.00,93.41
2110.00,93.45
2109.00,93.46
2108.00,93.45
2107.00,93.43
2106.00,93.40
2105.00,93.38
2104.00,93.36
2103.00,93.36
2102.00,93.35
2101.00,93.36
2100.00,93.38
2099.00,93.39
2098.00,93.39
2097.00,93.40
2096.00,93.42
2095.00,93.47
2094.00,93.52
2093.00,93.55
2092.00,93.54
2091.00,93.49
2090.00,93.43
2089.00,93.38
2088.00,93.33
2087.00,93.30
2086.00,93.28
2085.00,93.28
2084.00,93.29
2083.00,93.30
2082.00,93.29
2081.00,93.26
2080.00,93.23
2079.00,93.18
2078.00,93.14
2077.00,93.10
2076.00,93.09
2075.00,93.10
2074.00,93.13
2073.00,93.14
2072.00,93.15
2071.00,93.15
2070.00,93.15
2069.00,93.15
2068.00,93.14
2067.00,93.12
2066.00,93.09
2065.00,93.07
2064.00,93.06
2063.00,93.04
2062.00,93.00
2061.00,92.97
2060.00,92.94
2059.00,92.90
2058.00,92.84
2057.00,92.78
2056.00,92.75
2055.00,92.72
2054.00,92.67
2053.00,92.58
2052.00,92.45
2051.00,92.34
2050.00,92.26
2049.00,92.20
2048.00,92.17
2047.00,92.14
2046.00,92.11
2045.00,92.06
2044.00,92.00
2043.00,91.94
2042.00,91.91
2041.00,91.89
2040.00,91.87
2039.00,91.83
2038.00,91.78
2037.00,91.73
2036.00,91.69
2035.00,91.68
2034.00,91.70
2033.00,91.74
2032.00,91.76
2031.00,91.73
2030.00,91.68
2029.00,91.65
2028.00,91.65
2027.00,91.65
2026.00,91.64
2025.00,91.62
2024.00,91.60
2023.00,91.58
2022.00,91.57
2021.00,91.60
2020.00,91.66
2019.00,91.74
2018.00,91.81
2017.00,91.87
2016.00,91.91
2015.00,91.93
2014.00,91.93
2013.00,91.93
2012.00,91.91
2011.00,91.87
2010.00,91.83
2009.00,91.82
2008.00,91.88
2007.00,91.99
2006.00,92.09
2005.00,92.15
2004.00,92.20
2003.00,92.23
2002.00,92.25
2001.00,92.27
2000.00,92.27
1999.00,92.26
1998.00,92.25
1997.00,92.24
1996.00,92.22
1995.00,92.19
1994.00,92.17
1993.00,92.18
1992.00,92.22
1991.00,92.26
1990.00,92.28
1989.00,92.24
1988.00,92.17
1987.00,92.05
1986.00,91.95
1985.00,91.88
1984.00,91.86
1983.00,91.85
1982.00,91.81
1981.00,91.77
1980.00,91.74
1979.00,91.72
1978.00,91.70
1977.00,91.69
1976.00,91.72
1975.00,91.80
1974.00,91.89
1973.00,91.97
1972.00,92.03
1971.00,92.08
1970.00,92.14
1969.00,92.20
1968.00,92.27
1967.00,92.31
1966.00,92.33
1965.00,92.34
1964.00,92.35
1963.00,92.36
1962.00,92.37
1961.00,92.41
1960.00,92.46
1959.00,92.53
1958.00,92.61
1957.00,92.70
1956.00,92.78
1955.00,92.86
1954.00,92.92
1953.00,92.98
1952.00,93.03
1951.00,93.06
1950.00,93.06
1949.00,93.07
1948.00,93.09
1947.00,93.14
1946.00,93.19
1945.00,93.24
1944.00,93.30
1943.00,93.35
1942.00,93.39
1941.00,93.44
1940.00,93.49
1939.00,93.52
1938.00,93.51
1937.00,93.49
1936.00,93.49
1935.00,93.50
1934.00,93.52
1933.00,93.53
1932.00,93.55
1931.00,93.59
1930.00,93.63
1929.00,93.66
1928.00,93.67
1927.00,93.68
1926.00,93.68
1925.00,93.69
1924.00,93.71
1923.00,93.75
1922.00,93.79
1921.00,93.83
1920.00,93.88
1919.00,93.92
1918.00,93.95
1917.00,93.96
1916.00,93.96
1915.00,93.96
1914.00,93.96
1913.00,93.95
1912.00,93.94
1911.00,93.96
1910.00,93.99
1909.00,94.03
1908.00,94.05
1907.00,94.04
1906.00,94.01
1905.00,93.99
1904.00,93.99
1903.00,94.02
1902.00,94.05
1901.00,94.09
1900.00,94.11
1899.00,94.12
1898.00,94.14
1897.00,94.16
1896.00,94.19
1895.00,94.20
1894.00,94.20
1893.00,94.19
1892.00,94.19
1891.00,94.21
1890.00,94.24
1889.00,94.26
1888.00,94.27
1887.00,94.28
1886.00,94.30
1885.00,94.31
1884.00,94.31
1883.00,94.31
1882.00,94.31
1881.00,94.31
1880.00,94.31
1879.00,94.30
1878.00,94.29
1877.00,94.28
1876.00,94.29
1875.00,94.31
1874.00,94.34
1873.00,94.37
1872.00,94.38
1871.00,94.38
1870.00,94.37
1869.00,94.36
1868.00,94.37
1867.00,94.38
1866.00,94.38
1865.00,94.37
1864.00,94.36
1863.00,94.36
1862.00,94.39
1861.00,94.42
1860.00,94.44
1859.00,94.46
1858.00,94.48
1857.00,94.50
1856.00,94.52
1855.00,94.53
1854.00,94.52
1853.00,94.50
1852.00,94.50
1851.00,94.51
1850.00,94.54
1849.00,94.57
1848.00,94.60
1847.00,94.62
1846.00,94.64
1845.00,94.66
1844.00,94.66
1843.00,94.65
1842.00,94.63
1841.00,94.62
1840.00,94.60
1839.00,94.60
1838.00,94.62
1837.00,94.66
1836.00,94.71
1835.00,94.73
1834.00,94.73
1833.00,94.72
1832.00,94.71
1831.00,94.72
1830.00,94.72
1829.00,94.71
1828.00,94.71
1827.00,94.71
1826.00,94.73
1825.00,94.73
1824.00,94.74
1823.00,94.74
1822.00,94.75
1821.00,94.77
1820.00,94.79
1819.00,94.82
1818.00,94.85
1817.00,94.88
1816.00,94.90
1815.00,94.91
1814.00,94.91
1813.00,94.92
1812.00,94.93
1811.00,94.93
1810.00,94.93
1809.00,94.92
1808.00,94.92
1807.00,94.92
1806.00,94.93
1805.00,94.94
1804.00,94.94
1803.00,94.94
1802.00,94.94
1801.00,94.94
1800.00,94.94
1799.00,94.94
1798.00,94.95
1797.00,94.94
1796.00,94.94
1795.00,94.95
1794.00,94.97
1793.00,94.99
1792.00,95.00
1791.00,95.00
1790.00,95.00
1789.00,95.00
1788.00,95.00
1787.00,95.01
1786.00,95.01
1785.00,95.02
1784.00,95.02
1783.00,95.02
1782.00,95.00
1781.00,94.98
1780.00,94.97
1779.00,94.97
1778.00,94.98
1777.00,94.99
1776.00,95.00
1775.00,94.99
1774.00,94.99
1773.00,94.99
1772.00,94.99
1771.00,95.00
1770.00,94.99
1769.00,94.98
1768.00,94.97
1767.00,94.95
1766.00,94.95
1765.00,94.96
1764.00,94.97
1763.00,94.99
1762.00,95.00
1761.00,95.00
1760.00,94.98
1759.00,94.96
1758.00,94.95
1757.00,94.95
1756.00,94.95
1755.00,94.94
1754.00,94.94
1753.00,94.93
1752.00,94.91
1751.00,94.89
1750.00,94.86
1749.00,94.81
1748.00,94.77
1747.00,94.71
1746.00,94.66
1745.00,94.60
1744.00,94.54
1743.00,94.47
1742.00,94.40
1741.00,94.34
1740.00,94.27
1739.00,94.21
1738.00,94.16
1737.00,94.13
1736.00,94.10
1735.00,94.08
1734.00,94.06
1733.00,94.04
1732.00,94.03
1731.00,94.02
1730.00,94.04
1729.00,94.05
1728.00,94.08
1727.00,94.10
1726.00,94.14
1725.00,94.17
1724.00,94.22
1723.00,94.27
1722.00,94.32
1721.00,94.36
1720.00,94.42
1719.00,94.49
1718.00,94.58
1717.00,94.65
1716.00,94.67
1715.00,94.68
1714.00,94.67
1713.00,94.67
1712.00,94.68
1711.00,94.69
1710.00,94.71
1709.00,94.72
1708.00,94.74
1707.00,94.77
1706.00,94.80
1705.00,94.81
1704.00,94.82
1703.00,94.83
1702.00,94.83
1701.00,94.84
1700.00,94.85
1699.00,94.88
1698.00,94.91
1697.00,94.93
1696.00,94.94
1695.00,94.92
1694.00,94.90
1693.00,94.88
1692.00,94.88
1691.00,94.89
1690.00,94.90
1689.00,94.91
1688.00,94.91
1687.00,94.92
1686.00,94.92
1685.00,94.93
1684.00,94.94
1683.00,94.93
1682.00,94.91
1681.00,94.89
1680.00,94.87
1679.00,94.85
1678.00,94.84
1677.00,94.84
1676.00,94.84
1675.00,94.84
1674.00,94.84
1673.00,94.84
1672.00,94.84
1671.00,94.85
1670.00,94.86
1669.00,94.88
1668.00,94.88
1667.00,94.87
1666.00,94.87
1665.00,94.87
1664.00,94.87
1663.00,94.86
1662.00,94.85
1661.00,94.83
1660.00,94.83
1659.00,94.84
1658.00,94.85
1657.00,94.85
1656.00,94.85
1655.00,94.85
1654.00,94.85
1653.00,94.83
1652.00,94.82
1651.00,94.83
1650.00,94.83
1649.00,94.84
1648.00,94.84
1647.00,94.82
1646.00,94.79
1645.00,94.77
1644.00,94.75
1643.00,94.74
1642.00,94.73
1641.00,94.71
1640.00,94.69
1639.00,94.67
1638.00,94.66
1637.00,94.67
1636.00,94.67
1635.00,94.66
1634.00,94.65
1633.00,94.63
1632.00,94.61
1631.00,94.59
1630.00,94.57
1629.00,94.57
1628.00,94.58
1627.00,94.59
1626.00,94.59
1625.00,94.58
1624.00,94.57
1623.00,94.57
1622.00,94.58
1621.00,94.59
1620.00,94.60
1619.00,94.61
1618.00,94.64
1617.00,94.67
1616.00,94.69
1615.00,94.69
1614.00,94.70
1613.00,94.71
1612.00,94.72
1611.00,94.74
1610.00,94.76
1609.00,94.78
1608.00,94.80
1607.00,94.81
1606.00,94.83
1605.00,94.85
1604.00,94.87
1603.00,94.89
1602.00,94.91
1601.00,94.93
1600.00,94.94
1599.00,94.95
1598.00,94.95
1597.00,94.95
1596.00,94.96
1595.00,94.97
1594.00,94.99
1593.00,95.01
1592.00,95.03
1591.00,95.04
1590.00,95.04
1589.00,95.04
1588.00,95.04
1587.00,95.03
1586.00,95.03
1585.00,95.04
1584.00,95.04
1583.00,95.05
1582.00,95.06
1581.00,95.08
1580.00,95.11
1579.00,95.14
1578.00,95.16
1577.00,95.15
1576.00,95.13
1575.00,95.11
1574.00,95.11
1573.00,95.11
1572.00,95.12
1571.00,95.13
1570.00,95.15
1569.00,95.16
1568.00,95.15
1567.00,95.14
1566.00,95.12
1565.00,95.12
1564.00,95.13
1563.00,95.14
1562.00,95.14
1561.00,95.14
1560.00,95.14
1559.00,95.14
1558.00,95.12
1557.00,95.13
1556.00,95.15
1555.00,95.18
1554.00,95.20
1553.00,95.19
1552.00,95.19
1551.00,95.18
1550.00,95.17
1549.00,95.17
1548.00,95.16
1547.00,95.16
1546.00,95.16
1545.00,95.16
1544.00,95.16
1543.00,95.16
1542.00,95.16
1541.00,95.16
1540.00,95.16
1539.00,95.16
1538.00,95.16
1537.00,95.16
1536.00,95.15
1535.00,95.15
1534.00,95.16
1533.00,95.15
1532.00,95.16
1531.00,95.16
1530.00,95.17
1529.00,95.17
1528.00,95.17
1527.00,95.17
1526.00,95.18
1525.00,95.18
1524.00,95.18
1523.00,95.18
1522.00,95.18
1521.00,95.20
1520.00,95.20
1519.00,95.20
1518.00,95.21
1517.00,95.21
1516.00,95.21
1515.00,95.21
1514.00,95.22
1513.00,95.22
1512.00,95.21
1511.00,95.21
1510.00,95.21
1509.00,95.21
1508.00,95.21
1507.00,95.22
1506.00,95.24
1505.00,95.24
1504.00,95.25
1503.00,95.25
1502.00,95.26
1501.00,95.25
1500.00,95.24
1499.00,95.23
1498.00,95.22
1497.00,95.22
1496.00,95.20
1495.00,95.20
1494.00,95.20
1493.00,95.19
1492.00,95.19
1491.00,95.19
1490.00,95.20
1489.00,95.20
1488.00,95.19
1487.00,95.19
1486.00,95.18
1485.00,95.17
1484.00,95.17
1483.00,95.19
1482.00,95.20
1481.00,95.20
1480.00,95.20
1479.00,95.20
1478.00,95.21
1477.00,95.19
1476.00,95.16
1475.00,95.13
1474.00,95.09
1473.00,95.05
1472.00,94.99
1471.00,94.93
1470.00,94.87
1469.00,94.78
1468.00,94.66
1467.00,94.47
1466.00,94.20
1465.00,93.78
1464.00,93.28
1463.00,92.75
1462.00,92.21
1461.00,91.62
1460.00,90.98
1459.00,90.26
1458.00,89.41
1457.00,88.49
1456.00,87.76
1455.00,87.34
1454.00,87.12
1453.00,87.00
1452.00,86.96
1451.00,87.01
1450.00,87.14
1449.00,87.34
1448.00,87.60
1447.00,87.91
1446.00,88.22
1445.00,88.54
1444.00,88.89
1443.00,89.26
1442.00,89.64
1441.00,90.00
1440.00,90.34
1439.00,90.67
1438.00,91.01
1437.00,91.39
1436.00,91.79
1435.00,92.13
1434.00,92.39
1433.00,92.63
1432.00,92.86
1431.00,93.08
1430.00,93.28
1429.00,93.46
1428.00,93.61
1427.00,93.72
1426.00,93.81
1425.00,93.90
1424.00,93.99
1423.00,94.06
1422.00,94.11
1421.00,94.17
1420.00,94.23
1419.00,94.28
1418.00,94.32
1417.00,94.36
1416.00,94.39
1415.00,94.41
1414.00,94.43
1413.00,94.45
1412.00,94.47
1411.00,94.49
1410.00,94.50
1409.00,94.52
1408.00,94.53
1407.00,94.54
1406.00,94.56
1405.00,94.57
1404.00,94.59
1403.00,94.60
1402.00,94.60
1401.00,94.60
1400.00,94.60
1399.00,94.60
1398.00,94.59
1397.00,94.58
1396.00,94.56
1395.00,94.53
1394.00,94.48
1393.00,94.44
1392.00,94.40
1391.00,94.36
1390.00,94.33
1389.00,94.29
1388.00,94.23
1387.00,94.16
1386.00,94.08
1385.00,94.01
1384.00,93.94
1383.00,93.87
1382.00,93.81
1381.00,93.75
1380.00,93.69
1379.00,93.60
1378.00,93.51
1377.00,93.42
1376.00,93.34
1375.00,93.26
1374.00,93.17
1373.00,93.07
1372.00,92.97
1371.00,92.87
1370.00,92.76
1369.00,92.66
1368.00,92.57
1367.00,92.49
1366.00,92.42
1365.00,92.37
1364.00,92.32
1363.00,92.27
1362.00,92.22
1361.00,92.18
1360.00,92.14
1359.00,92.10
1358.00,92.08
1357.00,92.06
1356.00,92.06
1355.00,92.06
1354.00,92.06
1353.00,92.06
1352.00,92.08
1351.00,92.11
1350.00,92.16
1349.00,92.22
1348.00,92.28
1347.00,92.34
1346.00,92.41
1345.00,92.50
1344.00,92.59
1343.00,92.67
1342.00,92.75
1341.00,92.82
1340.00,92.90
1339.00,92.97
1338.00,93.03
1337.00,93.09
1336.00,93.14
1335.00,93.18
1334.00,93.22
1333.00,93.25
1332.00,93.29
1331.00,93.33
1330.00,93.37
1329.00,93.40
1328.00,93.42
1327.00,93.44
1326.00,93.45
1325.00,93.46
1324.00,93.47
1323.00,93.47
1322.00,93.47
1321.00,93.46
1320.00,93.45
1319.00,93.46
1318.00,93.46
1317.00,93.46
1316.00,93.46
1315.00,93.47
1314.00,93.47
1313.00,93.46
1312.00,93.45
1311.00,93.45
1310.00,93.45
1309.00,93.47
1308.00,93.49
1307.00,93.51
1306.00,93.52
1305.00,93.52
1304.00,93.53
1303.00,93.55
1302.00,93.58
1301.00,93.60
1300.00,93.63
1299.00,93.65
1298.00,93.66
1297.00,93.67
1296.00,93.68
1295.00,93.69
1294.00,93.70
1293.00,93.72
1292.00,93.74
1291.00,93.75
1290.00,93.75
1289.00,93.75
1288.00,93.76
1287.00,93.77
1286.00,93.77
1285.00,93.76
1284.00,93.74
1283.00,93.72
1282.00,93.70
1281.00,93.69
1280.00,93.68
1279.00,93.65
1278.00,93.63
1277.00,93.60
1276.00,93.58
1275.00,93.55
1274.00,93.53
1273.00,93.50
1272.00,93.47
1271.00,93.44
1270.00,93.41
1269.00,93.38
1268.00,93.35
1267.00,93.33
1266.00,93.31
1265.00,93.28
1264.00,93.24
1263.00,93.19
1262.00,93.15
1261.00,93.10
1260.00,93.03
1259.00,92.95
1258.00,92.86
1257.00,92.78
1256.00,92.71
1255.00,92.64
1254.00,92.57
1253.00,92.50
1252.00,92.43
1251.00,92.38
1250.00,92.35
1249.00,92.34
1248.00,92.34
1247.00,92.36
1246.00,92.39
1245.00,92.44
1244.00,92.50
1243.00,92.58
1242.00,92.66
1241.00,92.74
1240.00,92.80
1239.00,92.86
1238.00,92.91
1237.00,92.94
1236.00,92.96
1235.00,92.96
1234.00,92.95
1233.00,92.94
1232.00,92.93
1231.00,92.92
1230.00,92.90
1229.00,92.90
1228.00,92.90
1227.00,92.91
1226.00,92.91
1225.00,92.92
1224.00,92.93
1223.00,92.93
1222.00,92.94
1221.00,92.96
1220.00,92.98
1219.00,93.01
1218.00,93.05
1217.00,93.09
1216.00,93.12
1215.00,93.15
1214.00,93.16
1213.00,93.18
1212.00,93.19
1211.00,93.19
1210.00,93.19
1209.00,93.20
1208.00,93.21
1207.00,93.22
1206.00,93.25
1205.00,93.27
1204.00,93.29
1203.00,93.30
1202.00,93.32
1201.00,93.34
1200.00,93.35
1199.00,93.35
1198.00,93.35
1197.00,93.36
1196.00,93.39
1195.00,93.42
1194.00,93.45
1193.00,93.47
1192.00,93.48
1191.00,93.49
1190.00,93.52
1189.00,93.55
1188.00,93.59
1187.00,93.61
1186.00,93.61
1185.00,93.61
1184.00,93.61
1183.00,93.61
1182.00,93.61
1181.00,93.61
1180.00,93.61
1179.00,93.63
1178.00,93.64
1177.00,93.64
1176.00,93.63
1175.00,93.63
1174.00,93.64
1173.00,93.65
1172.00,93.66
1171.00,93.68
1170.00,93.72
1169.00,93.77
1168.00,93.82
1167.00,93.88
1166.00,93.92
1165.00,93.97
1164.00,94.02
1163.00,94.06
1162.00,94.10
1161.00,94.12
1160.00,94.14
1159.00,94.16
1158.00,94.20
1157.00,94.24
1156.00,94.29
1155.00,94.35
1154.00,94.39
1153.00,94.41
1152.00,94.42
1151.00,94.42
1150.00,94.43
1149.00,94.45
1148.00,94.47
1147.00,94.48
1146.00,94.49
1145.00,94.49
1144.00,94.49
1143.00,94.48
1142.00,94.46
1141.00,94.45
1140.00,94.44
1139.00,94.44
1138.00,94.45
1137.00,94.44
1136.00,94.44
1135.00,94.44
1134.00,94.45
1133.00,94.45
1132.00,94.45
1131.00,94.44
1130.00,94.44
1129.00,94.43
1128.00,94.39
1127.00,94.33
1126.00,94.26
1125.00,94.20
1124.00,94.17
1123.00,94.16
1122.00,94.13
1121.00,94.08
1120.00,94.01
1119.00,93.94
1118.00,93.86
1117.00,93.78
1116.00,93.71
1115.00,93.62
1114.00,93.54
1113.00,93.46
1112.00,93.42
1111.00,93.39
1110.00,93.37
1109.00,93.34
1108.00,93.30
1107.00,93.26
1106.00,93.23
1105.00,93.19
1104.00,93.16
1103.00,93.11
1102.00,93.06
1101.00,93.00
1100.00,92.96
1099.00,92.93
1098.00,92.92
1097.00,92.93
1096.00,92.93
1095.00,92.89
1094.00,92.82
1093.00,92.73
1092.00,92.63
1091.00,92.55
1090.00,92.49
1089.00,92.43
1088.00,92.36
1087.00,92.28
1086.00,92.20
1085.00,92.10
1084.00,91.97
1083.00,91.83
1082.00,91.68
1081.00,91.56
1080.00,91.46
1079.00,91.36
1078.00,91.27
1077.00,91.16
1076.00,91.04
1075.00,90.93
1074.00,90.86
1073.00,90.83
1072.00,90.82
1071.00,90.82
1070.00,90.80
1069.00,90.80
1068.00,90.83
1067.00,90.89
1066.00,90.94
1065.00,91.00
1064.00,91.08
1063.00,91.19
1062.00,91.34
1061.00,91.49
1060.00,91.65
1059.00,91.81
1058.00,91.98
1057.00,92.12
1056.00,92.23
1055.00,92.31
1054.00,92.37
1053.00,92.42
1052.00,92.48
1051.00,92.56
1050.00,92.65
1049.00,92.73
1048.00,92.78
1047.00,92.83
1046.00,92.86
1045.00,92.88
1044.00,92.89
1043.00,92.90
1042.00,92.92
1041.00,92.95
1040.00,93.00
1039.00,93.06
1038.00,93.12
1037.00,93.19
1036.00,93.27
1035.00,93.36
1034.00,93.44
1033.00,93.51
1032.00,93.55
1031.00,93.57
1030.00,93.60
1029.00,93.64
1028.00,93.69
1027.00,93.74
1026.00,93.78
1025.00,93.84
1024.00,93.90
1023.00,93.94
1022.00,93.95
1021.00,93.94
1020.00,93.93
1019.00,93.94
1018.00,93.98
1017.00,94.02
1016.00,94.06
1015.00,94.10
1014.00,94.14
1013.00,94.16
1012.00,94.17
1011.00,94.18
1010.00,94.20
1009.00,94.21
1008.00,94.24
1007.00,94.26
1006.00,94.28
1005.00,94.30
1004.00,94.32
1003.00,94.35
1002.00,94.39
1001.00,94.41
1000.00,94.42
999.00,94.42
998.00,94.43
997.00,94.46
996.00,94.49
995.00,94.51
994.00,94.52
993.00,94.51
992.00,94.49
991.00,94.48
990.00,94.49
989.00,94.50
988.00,94.51
987.00,94.52
986.00,94.53
985.00,94.55
984.00,94.56
983.00,94.56
982.00,94.54
981.00,94.52
980.00,94.50
979.00,94.49
978.00,94.51
977.00,94.55
976.00,94.59
975.00,94.60
974.00,94.61
973.00,94.61
972.00,94.61
971.00,94.61
970.00,94.59
969.00,94.58
968.00,94.56
967.00,94.56
966.00,94.56
965.00,94.57
964.00,94.58
963.00,94.59
962.00,94.59
961.00,94.58
960.00,94.58
959.00,94.59
958.00,94.60
957.00,94.62
956.00,94.62
955.00,94.62
954.00,94.61
953.00,94.62
952.00,94.63
951.00,94.65
950.00,94.66
949.00,94.66
948.00,94.65
947.00,94.65
946.00,94.66
945.00,94.67
944.00,94.68
943.00,94.71
942.00,94.74
941.00,94.77
940.00,94.78
939.00,94.77
938.00,94.76
937.00,94.75
936.00,94.76
935.00,94.77
934.00,94.78
933.00,94.79
932.00,94.80
931.00,94.81
930.00,94.83
929.00,94.85
928.00,94.86
927.00,94.88
926.00,94.90
925.00,94.93
924.00,94.94
923.00,94.94
922.00,94.92
921.00,94.89
920.00,94.89
919.00,94.90
918.00,94.92
917.00,94.95
916.00,94.98
915.00,94.99
914.00,94.99
913.00,94.97
912.00,94.94
911.00,94.92
910.00,94.90
909.00,94.89
908.00,94.91
907.00,94.95
906.00,95.00
905.00,95.04
904.00,95.05
903.00,95.04
902.00,95.03
901.00,95.03
900.00,95.08
899.00,95.14
898.00,95.20
897.00,95.23
896.00,95.22
895.00,95.20
894.00,95.18
893.00,95.18
892.00,95.18
891.00,95.17
890.00,95.15
889.00,95.12
888.00,95.08
887.00,95.07
886.00,95.08
885.00,95.11
884.00,95.13
883.00,95.15
882.00,95.16
881.00,95.17
880.00,95.18
879.00,95.18
878.00,95.16
877.00,95.16
876.00,95.17
875.00,95.18
874.00,95.17
873.00,95.15
872.00,95.13
871.00,95.13
870.00,95.16
869.00,95.19
868.00,95.24
867.00,95.28
866.00,95.32
865.00,95.34
864.00,95.34
863.00,95.32
862.00,95.30
861.00,95.29
860.00,95.27
859.00,95.26
858.00,95.26
857.00,95.30
856.00,95.35
855.00,95.38
854.00,95.39
853.00,95.40
852.00,95.40
851.00,95.40
850.00,95.39
849.00,95.40
848.00,95.41
847.00,95.42
846.00,95.42
845.00,95.39
844.00,95.36
843.00,95.34
842.00,95.35
841.00,95.36
840.00,95.35
839.00,95.33
838.00,95.32
837.00,95.33
836.00,95.35
835.00,95.35
834.00,95.33
833.00,95.32
832.00,95.34
831.00,95.37
830.00,95.38
829.00,95.35
828.00,95.29
827.00,95.23
826.00,95.18
825.00,95.16
824.00,95.16
823.00,95.18
822.00,95.21
821.00,95.22
820.00,95.23
819.00,95.22
818.00,95.22
817.00,95.21
816.00,95.21
815.00,95.19
814.00,95.17
813.00,95.17
812.00,95.19
811.00,95.22
810.00,95.21
809.00,95.18
808.00,95.14
807.00,95.13
806.00,95.15
805.00,95.18
804.00,95.20
803.00,95.22
802.00,95.22
801.00,95.21
800.00,95.19
799.00,95.17
798.00,95.15
797.00,95.14
796.00,95.11
795.00,95.08
794.00,95.06
793.00,95.07
792.00,95.09
791.00,95.11
790.00,95.11
789.00,95.10
788.00,95.09
787.00,95.09
786.00,95.10
785.00,95.11
784.00,95.11
783.00,95.09
782.00,95.06
781.00,95.05
780.00,95.04
779.00,95.03
778.00,95.02
777.00,95.00
776.00,94.99
775.00,95.01
774.00,95.03
773.00,95.06
772.00,95.09
771.00,95.13
770.00,95.17
769.00,95.20
768.00,95.19
767.00,95.18
766.00,95.16
765.00,95.16
764.00,95.18
763.00,95.22
762.00,95.26
761.00,95.29
760.00,95.32
759.00,95.34
758.00,95.37
757.00,95.39
756.00,95.39
755.00,95.39
754.00,95.40
753.00,95.42
752.00,95.44
751.00,95.46
750.00,95.47
749.00,95.50
748.00,95.54
747.00,95.60
746.00,95.67
745.00,95.73
744.00,95.77
743.00,95.77
742.00,95.76
741.00,95.75
740.00,95.78
739.00,95.83
738.00,95.89
737.00,95.95
736.00,96.00
735.00,96.05
734.00,96.09
733.00,96.11
732.00,96.12
731.00,96.13
730.00,96.13
729.00,96.13
728.00,96.15
727.00,96.18
726.00,96.23
725.00,96.29
724.00,96.34
723.00,96.37
722.00,96.37
721.00,96.35
720.00,96.31
719.00,96.30
718.00,96.33
717.00,96.40
716.00,96.47
715.00,96.51
714.00,96.51
713.00,96.50
712.00,96.50
711.00,96.53
710.00,96.57
709.00,96.62
708.00,96.66
707.00,96.69
706.00,96.67
705.00,96.63
704.00,96.58
703.00,96.56
702.00,96.54
701.00,96.52
700.00,96.51
699.00,96.52
698.00,96.56
697.00,96.60
696.00,96.63
695.00,96.65
694.00,96.65
693.00,96.65
692.00,96.63
691.00,96.58
690.00,96.49
689.00,96.39
688.00,96.32
687.00,96.32
686.00,96.36
685.00,96.40
684.00,96.40
683.00,96.38
682.00,96.34
681.00,96.28
680.00,96.25
679.00,96.25
678.00,96.28
677.00,96.30
676.00,96.33
675.00,96.36
674.00,96.39
673.00,96.42
672.00,96.44
671.00,96.48
670.00,96.52
669.00,96.53
668.00,96.47
667.00,96.46
666.00,96.55
665.00,96.66
664.00,96.72
663.00,96.75
662.00,96.75
661.00,96.70
660.00,96.62
659.00,96.55
658.00,96.53
657.00,96.55
656.00,96.59
655.00,96.61
654.00,96.63
653.00,96.66
652.00,96.71
651.00,96.73
650.00,96.73
649.00,96.73
648.00,96.76
647.00,96.83
646.00,96.87
645.00,96.80
644.00,96.59
643.00,96.37
642.00,96.26
641.00,96.28
640.00,96.37
639.00,96.47
638.00,96.55
637.00,96.59
636.00,96.57
635.00,96.53
634.00,96.56
633.00,96.69
632.00,96.83
631.00,96.91
630.00,96.89
629.00,96.81
628.00,96.71
627.00,96.65
626.00,96.63
625.00,96.66
624.00,96.70
623.00,96.71
622.00,96.72
621.00,96.74
620.00,96.79
619.00,96.88
618.00,97.02
617.00,97.19
616.00,97.32
615.00,97.29
614.00,97.10
613.00,96.84
612.00,96.63
611.00,96.54
610.00,96.52
609.00,96.50
608.00,96.46
607.00,96.45
606.00,96.49
605.00,96.61
604.00,96.92
603.00,97.53
602.00,98.27
601.00,98.71
600.00,98.54
599.00,97.94
598.00,97.41
597.00,97.23
596.00,97.21
595.00,97.04
594.00,96.71
593.00,96.40
592.00,96.22
591.00,96.16
590.00,96.15
589.00,96.16
588.00,96.27
587.00,96.58
586.00,97.12
585.00,97.64
584.00,97.77
583.00,97.32
582.00,96.55
581.00,95.85
580.00,95.27
579.00,94.72
578.00,94.22
577.00,93.92
576.00,93.91
575.00,94.26
574.00,94.95
573.00,95.75
572.00,96.19
571.00,95.99
570.00,95.42
569.00,95.04
568.00,95.11
567.00,95.40
566.00,95.59
565.00,95.63
564.00,95.71
563.00,95.92
562.00,96.10
561.00,95.89
560.00,95.10
559.00,94.02
558.00,93.32
557.00,93.39
556.00,94.02
555.00,94.70
554.00,95.16
553.00,95.45
552.00,95.71
551.00,95.87
550.00,95.82
