Created as New Dataset,50 Du Pont
cm-1,%T
4000.00,85.30
3999.00,85.30
3998.00,85.31
3997.00,85.31
3996.00,85.32
3995.00,85.34
3994.00,85.36
3993.00,85.37
3992.00,85.37
3991.00,85.36
3990.00,85.36
3989.00,85.37
3988.00,85.37
3987.00,85.36
3986.00,85.35
3985.00,85.35
3984.00,85.35
3983.00,85.36
3982.00,85.36
3981.00,85.35
3980.00,85.34
3979.00,85.34
3978.00,85.35
3977.00,85.37
3976.00,85.37
3975.00,85.37
3974.00,85.35
3973.00,85.34
3972.00,85.33
3971.00,85.33
3970.00,85.33
3969.00,85.33
3968.00,85.33
3967.00,85.32
3966.00,85.32
3965.00,85.33
3964.00,85.33
3963.00,85.34
3962.00,85.34
3961.00,85.33
3960.00,85.33
3959.00,85.33
3958.00,85.33
3957.00,85.34
3956.00,85.35
3955.00,85.35
3954.00,85.35
3953.00,85.34
3952.00,85.35
3951.00,85.35
3950.00,85.36
3949.00,85.37
3948.00,85.38
3947.00,85.39
3946.00,85.39
3945.00,85.36
3944.00,85.34
3943.00,85.32
3942.00,85.33
3941.00,85.34
3940.00,85.34
3939.00,85.32
3938.00,85.30
3937.00,85.30
3936.00,85.31
3935.00,85.33
3934.00,85.34
3933.00,85.35
3932.00,85.34
3931.00,85.32
3930.00,85.30
3929.00,85.27
3928.00,85.26
3927.00,85.26
3926.00,85.25
3925.00,85.26
3924.00,85.28
3923.00,85.29
3922.00,85.29
3921.00,85.27
3920.00,85.26
3919.00,85.25
3918.00,85.25
3917.00,85.24
3916.00,85.24
3915.00,85.24
3914.00,85.23
3913.00,85.23
3912.00,85.24
3911.00,85.27
3910.00,85.29
3909.00,85.31
3908.00,85.32
3907.00,85.33
3906.00,85.33
3905.00,85.34
3904.00,85.37
3903.00,85.41
3902.00,85.43
3901.00,85.41
3900.00,85.38
3899.00,85.36
3898.00,85.36
3897.00,85.35
3896.00,85.34
3895.00,85.33
3894.00,85.33
3893.00,85.31
3892.00,85.28
3891.00,85.27
3890.00,85.30
3889.00,85.32
3888.00,85.30
3887.00,85.28
3886.00,85.29
3885.00,85.34
3884.00,85.40
3883.00,85.40
3882.00,85.36
3881.00,85.33
3880.00,85.34
3879.00,85.38
3878.00,85.40
3877.00,85.38
3876.00,85.33
3875.00,85.31
3874.00,85.34
3873.00,85.38
3872.00,85.37
3871.00,85.32
3870.00,85.30
3869.00,85.35
3868.00,85.39
3867.00,85.36
3866.00,85.29
3865.00,85.24
3864.00,85.24
3863.00,85.25
3862.00,85.25
3861.00,85.26
3860.00,85.28
3859.00,85.32
3858.00,85.38
3857.00,85.44
3856.00,85.48
3855.00,85.45
3854.00,85.38
3853.00,85.36
3852.00,85.40
3851.00,85.38
3850.00,85.30
3849.00,85.23
3848.00,85.22
3847.00,85.25
3846.00,85.27
3845.00,85.29
3844.00,85.31
3843.00,85.34
3842.00,85.38
3841.00,85.40
3840.00,85.37
3839.00,85.32
3838.00,85.28
3837.00,85.28
3836.00,85.30
3835.00,85.31
3834.00,85.29
3833.00,85.25
3832.00,85.21
3831.00,85.20
3830.00,85.19
3829.00,85.18
3828.00,85.16
3827.00,85.16
3826.00,85.19
3825.00,85.23
3824.00,85.25
3823.00,85.23
3822.00,85.20
3821.00,85.21
3820.00,85.27
3819.00,85.29
3818.00,85.22
3817.00,85.13
3816.00,85.09
3815.00,85.11
3814.00,85.14
3813.00,85.12
3812.00,85.08
3811.00,85.09
3810.00,85.11
3809.00,85.12
3808.00,85.10
3807.00,85.11
3806.00,85.18
3805.00,85.24
3804.00,85.23
3803.00,85.17
3802.00,85.12
3801.00,85.14
3800.00,85.21
3799.00,85.22
3798.00,85.17
3797.00,85.13
3796.00,85.12
3795.00,85.12
3794.00,85.10
3793.00,85.06
3792.00,85.02
3791.00,85.02
3790.00,85.05
3789.00,85.07
3788.00,85.09
3787.00,85.09
3786.00,85.09
3785.00,85.10
3784.00,85.11
3783.00,85.13
3782.00,85.12
3781.00,85.09
3780.00,85.07
3779.00,85.08
3778.00,85.10
3777.00,85.10
3776.00,85.08
3775.00,85.06
3774.00,85.07
3773.00,85.09
3772.00,85.09
3771.00,85.08
3770.00,85.07
3769.00,85.08
3768.00,85.07
3767.00,85.00
3766.00,84.93
3765.00,84.92
3764.00,84.96
3763.00,85.01
3762.00,85.03
3761.00,85.03
3760.00,85.03
3759.00,85.03
3758.00,85.02
3757.00,85.02
3756.00,85.04
3755.00,85.06
3754.00,85.09
3753.00,85.13
3752.00,85.15
3751.00,85.13
3750.00,85.10
3749.00,85.12
3748.00,85.16
3747.00,85.15
3746.00,85.09
3745.00,85.02
3744.00,85.01
3743.00,85.06
3742.00,85.07
3741.00,85.01
3740.00,84.98
3739.00,85.01
3738.00,85.06
3737.00,85.07
3736.00,85.07
3735.00,85.07
3734.00,85.06
3733.00,85.02
3732.00,85.00
3731.00,84.99
3730.00,84.98
3729.00,84.95
3728.00,84.91
3727.00,84.90
3726.00,84.92
3725.00,84.95
3724.00,84.96
3723.00,84.95
3722.00,84.94
3721.00,84.93
3720.00,84.91
3719.00,84.88
3718.00,84.88
3717.00,84.90
3716.00,84.95
3715.00,84.99
3714.00,85.00
3713.00,85.00
3712.00,84.99
3711.00,84.98
3710.00,84.97
3709.00,84.95
3708.00,84.92
3707.00,84.89
3706.00,84.87
3705.00,84.86
3704.00,84.85
3703.00,84.83
3702.00,84.82
3701.00,84.83
3700.00,84.85
3699.00,84.86
3698.00,84.85
3697.00,84.83
3696.00,84.84
3695.00,84.85
3694.00,84.87
3693.00,84.90
3692.00,84.92
3691.00,84.92
3690.00,84.88
3689.00,84.82
3688.00,84.79
3687.00,84.79
3686.00,84.78
3685.00,84.75
3684.00,84.73
3683.00,84.74
3682.00,84.77
3681.00,84.80
3680.00,84.85
3679.00,84.91
3678.00,84.91
3677.00,84.83
3676.00,84.73
3675.00,84.71
3674.00,84.77
3673.00,84.79
3672.00,84.73
3671.00,84.66
3670.00,84.63
3669.00,84.64
3668.00,84.64
3667.00,84.60
3666.00,84.54
3665.00,84.50
3664.00,84.48
3663.00,84.47
3662.00,84.48
3661.00,84.49
3660.00,84.50
3659.00,84.51
3658.00,84.49
3657.00,84.46
3656.00,84.45
3655.00,84.47
3654.00,84.47
3653.00,84.45
3652.00,84.44
3651.00,84.45
3650.00,84.47
3649.00,84.46
3648.00,84.43
3647.00,84.39
3646.00,84.34
3645.00,84.29
3644.00,84.23
3643.00,84.20
3642.00,84.18
3641.00,84.18
3640.00,84.16
3639.00,84.13
3638.00,84.11
3637.00,84.10
3636.00,84.10
3635.00,84.11
3634.00,84.14
3633.00,84.19
3632.00,84.24
3631.00,84.24
3630.00,84.20
3629.00,84.16
3628.00,84.16
3627.00,84.16
3626.00,84.11
3625.00,84.05
3624.00,84.04
3623.00,84.08
3622.00,84.12
3621.00,84.14
3620.00,84.12
3619.00,84.12
3618.00,84.13
3617.00,84.16
3616.00,84.17
3615.00,84.15
3614.00,84.14
3613.00,84.14
3612.00,84.15
3611.00,84.13
3610.00,84.09
3609.00,84.07
3608.00,84.07
3607.00,84.10
3606.00,84.11
3605.00,84.09
3604.00,84.05
3603.00,84.01
3602.00,83.99
3601.00,83.99
3600.00,83.98
3599.00,83.98
3598.00,83.98
3597.00,83.99
3596.00,84.01
3595.00,84.02
3594.00,84.02
3593.00,84.02
3592.00,84.02
3591.00,84.02
3590.00,84.03
3589.00,84.05
3588.00,84.06
3587.00,84.07
3586.00,84.08
3585.00,84.06
3584.00,84.02
3583.00,83.99
3582.00,83.96
3581.00,83.95
3580.00,83.94
3579.00,83.94
3578.00,83.94
3577.00,83.95
3576.00,83.95
3575.00,83.96
3574.00,83.97
3573.00,83.98
3572.00,84.00
3571.00,84.02
3570.00,84.04
3569.00,84.04
3568.00,84.01
3567.00,83.98
3566.00,83.94
3565.00,83.91
3564.00,83.87
3563.00,83.85
3562.00,83.85
3561.00,83.85
3560.00,83.84
3559.00,83.82
3558.00,83.80
3557.00,83.80
3556.00,83.81
3555.00,83.82
3554.00,83.81
3553.00,83.79
3552.00,83.76
3551.00,83.74
3550.00,83.72
3549.00,83.70
3548.00,83.68
3547.00,83.65
3546.00,83.63
3545.00,83.63
3544.00,83.63
3543.00,83.64
3542.00,83.64
3541.00,83.63
3540.00,83.62
3539.00,83.61
3538.00,83.58
3537.00,83.57
3536.00,83.57
3535.00,83.60
3534.00,83.63
3533.00,83.64
3532.00,83.63
3531.00,83.60
3530.00,83.56
3529.00,83.54
3528.00,83.54
3527.00,83.55
3526.00,83.56
3525.00,83.56
3524.00,83.54
3523.00,83.53
3522.00,83.53
3521.00,83.53
3520.00,83.52
3519.00,83.50
3518.00,83.48
3517.00,83.47
3516.00,83.46
3515.00,83.47
3514.00,83.48
3513.00,83.49
3512.00,83.48
3511.00,83.46
3510.00,83.43
3509.00,83.42
3508.00,83.42
3507.00,83.43
3506.00,83.44
3505.00,83.45
3504.00,83.44
3503.00,83.43
3502.00,83.40
3501.00,83.39
3500.00,83.38
3499.00,83.39
3498.00,83.40
3497.00,83.40
3496.00,83.40
3495.00,83.38
3494.00,83.35
3493.00,83.33
3492.00,83.32
3491.00,83.34
3490.00,83.36
3489.00,83.37
3488.00,83.36
3487.00,83.35
3486.00,83.34
3485.00,83.34
3484.00,83.35
3483.00,83.36
3482.00,83.37
3481.00,83.38
3480.00,83.39
3479.00,83.39
3478.00,83.39
3477.00,83.38
3476.00,83.35
3475.00,83.32
3474.00,83.29
3473.00,83.27
3472.00,83.27
3471.00,83.28
3470.00,83.30
3469.00,83.31
3468.00,83.32
3467.00,83.32
3466.00,83.31
3465.00,83.29
3464.00,83.27
3463.00,83.26
3462.00,83.26
3461.00,83.27
3460.00,83.28
3459.00,83.28
3458.00,83.27
3457.00,83.26
3456.00,83.25
3455.00,83.25
3454.00,83.26
3453.00,83.28
3452.00,83.29
3451.00,83.30
3450.00,83.29
3449.00,83.28
3448.00,83.26
3447.00,83.26
3446.00,83.25
3445.00,83.24
3444.00,83.22
3443.00,83.21
3442.00,83.19
3441.00,83.17
3440.00,83.16
3439.00,83.15
3438.00,83.15
3437.00,83.16
3436.00,83.16
3435.00,83.15
3434.00,83.14
3433.00,83.13
3432.00,83.11
3431.00,83.09
3430.00,83.08
3429.00,83.06
3428.00,83.05
3427.00,83.03
3426.00,83.03
3425.00,83.04
3424.00,83.06
3423.00,83.08
3422.00,83.08
3421.00,83.07
3420.00,83.05
3419.00,83.05
3418.00,83.05
3417.00,83.04
3416.00,83.01
3415.00,82.98
3414.00,82.96
3413.00,82.94
3412.00,82.93
3411.00,82.93
3410.00,82.94
3409.00,82.95
3408.00,82.96
3407.00,82.96
3406.00,82.96
3405.00,82.95
3404.00,82.94
3403.00,82.93
3402.00,82.91
3401.00,82.89
3400.00,82.87
3399.00,82.87
3398.00,82.89
3397.00,82.92
3396.00,82.94
3395.00,82.96
3394.00,82.95
3393.00,82.92
3392.00,82.88
3391.00,82.84
3390.00,82.80
3389.00,82.78
3388.00,82.76
3387.00,82.74
3386.00,82.71
3385.00,82.69
3384.00,82.67
3383.00,82.66
3382.00,82.65
3381.00,82.62
3380.00,82.58
3379.00,82.54
3378.00,82.52
3377.00,82.50
3376.00,82.48
3375.00,82.47
3374.00,82.45
3373.00,82.42
3372.00,82.40
3371.00,82.37
3370.00,82.33
3369.00,82.28
3368.00,82.23
3367.00,82.19
3366.00,82.16
3365.00,82.12
3364.00,82.06
3363.00,81.99
3362.00,81.92
3361.00,81.85
3360.00,81.79
3359.00,81.73
3358.00,81.66
3357.00,81.58
3356.00,81.51
3355.00,81.44
3354.00,81.37
3353.00,81.29
3352.00,81.19
3351.00,81.08
3350.00,80.96
3349.00,80.84
3348.00,80.73
3347.00,80.63
3346.00,80.54
3345.00,80.45
3344.00,80.34
3343.00,80.22
3342.00,80.09
3341.00,79.96
3340.00,79.83
3339.00,79.70
3338.00,79.57
3337.00,79.43
3336.00,79.29
3335.00,79.13
3334.00,78.98
3333.00,78.84
3332.00,78.70
3331.00,78.57
3330.00,78.41
3329.00,78.24
3328.00,78.05
3327.00,77.87
3326.00,77.71
3325.00,77.57
3324.00,77.45
3323.00,77.34
3322.00,77.25
3321.00,77.16
3320.00,77.06
3319.00,76.98
3318.00,76.90
3317.00,76.84
3316.00,76.78
3315.00,76.72
3314.00,76.66
3313.00,76.59
3312.00,76.53
3311.00,76.49
3310.00,76.46
3309.00,76.45
3308.00,76.46
3307.00,76.47
3306.00,76.47
3305.00,76.48
3304.00,76.48
3303.00,76.49
3302.00,76.50
3301.00,76.51
3300.00,76.54
3299.00,76.58
3298.00,76.63
3297.00,76.68
3296.00,76.71
3295.00,76.75
3294.00,76.78
3293.00,76.82
3292.00,76.86
3291.00,76.89
3290.00,76.90
3289.00,76.92
3288.00,76.94
3287.00,76.98
3286.00,77.01
3285.00,77.05
3284.00,77.09
3283.00,77.13
3282.00,77.17
3281.00,77.22
3280.00,77.27
3279.00,77.31
3278.00,77.35
3277.00,77.40
3276.00,77.44
3275.00,77.49
3274.00,77.55
3273.00,77.60
3272.00,77.66
3271.00,77.72
3270.00,77.78
3269.00,77.83
3268.00,77.86
3267.00,77.88
3266.00,77.92
3265.00,77.95
3264.00,78.00
3263.00,78.04
3262.00,78.07
3261.00,78.10
3260.00,78.13
3259.00,78.17
3258.00,78.24
3257.00,78.31
3256.00,78.36
3255.00,78.40
3254.00,78.41
3253.00,78.43
3252.00,78.45
3251.00,78.49
3250.00,78.54
3249.00,78.59
3248.00,78.65
3247.00,78.70
3246.00,78.74
3245.00,78.78
3244.00,78.82
3243.00,78.86
3242.00,78.90
3241.00,78.95
3240.00,79.00
3239.00,79.06
3238.00,79.11
3237.00,79.16
3236.00,79.20
3235.00,79.24
3234.00,79.26
3233.00,79.29
3232.00,79.32
3231.00,79.36
3230.00,79.41
3229.00,79.45
3228.00,79.48
3227.00,79.50
3226.00,79.52
3225.00,79.54
3224.00,79.58
3223.00,79.64
3222.00,79.70
3221.00,79.75
3220.00,79.77
3219.00,79.78
3218.00,79.79
3217.00,79.80
3216.00,79.83
3215.00,79.86
3214.00,79.89
3213.00,79.91
3212.00,79.93
3211.00,79.95
3210.00,79.99
3209.00,80.03
3208.00,80.05
3207.00,80.06
3206.00,80.07
3205.00,80.08
3204.00,80.10
3203.00,80.14
3202.00,80.19
3201.00,80.23
3200.00,80.27
3199.00,80.29
3198.00,80.32
3197.00,80.34
3196.00,80.36
3195.00,80.38
3194.00,80.39
3193.00,80.41
3192.00,80.44
3191.00,80.46
3190.00,80.48
3189.00,80.49
3188.00,80.50
3187.00,80.51
3186.00,80.53
3185.00,80.55
3184.00,80.58
3183.00,80.61
3182.00,80.64
3181.00,80.65
3180.00,80.67
3179.00,80.68
3178.00,80.69
3177.00,80.71
3176.00,80.72
3175.00,80.73
3174.00,80.75
3173.00,80.77
3172.00,80.79
3171.00,80.81
3170.00,80.81
3169.00,80.81
3168.00,80.80
3167.00,80.78
3166.00,80.77
3165.00,80.75
3164.00,80.74
3163.00,80.73
3162.00,80.73
3161.00,80.74
3160.00,80.74
3159.00,80.75
3158.00,80.75
3157.00,80.74
3156.00,80.72
3155.00,80.70
3154.00,80.68
3153.00,80.67
3152.00,80.66
3151.00,80.67
3150.00,80.67
3149.00,80.66
3148.00,80.66
3147.00,80.65
3146.00,80.66
3145.00,80.68
3144.00,80.70
3143.00,80.72
3142.00,80.72
3141.00,80.73
3140.00,80.74
3139.00,80.77
3138.00,80.80
3137.00,80.82
3136.00,80.84
3135.00,80.86
3134.00,80.88
3133.00,80.90
3132.00,80.92
3131.00,80.94
3130.00,80.97
3129.00,80.99
3128.00,81.01
3127.00,81.04
3126.00,81.06
3125.00,81.06
3124.00,81.06
3123.00,81.06
3122.00,81.06
3121.00,81.06
3120.00,81.07
3119.00,81.09
3118.00,81.12
3117.00,81.14
3116.00,81.16
3115.00,81.17
3114.00,81.17
3113.00,81.18
3112.00,81.18
3111.00,81.19
3110.00,81.20
3109.00,81.21
3108.00,81.21
3107.00,81.21
3106.00,81.20
3105.00,81.19
3104.00,81.19
3103.00,81.19
3102.00,81.20
3101.00,81.20
3100.00,81.19
3099.00,81.17
3098.00,81.15
3097.00,81.13
3096.00,81.13
3095.00,81.13
3094.00,81.14
3093.00,81.14
3092.00,81.15
3091.00,81.15
3090.00,81.16
3089.00,81.16
3088.00,81.15
3087.00,81.15
3086.00,81.16
3085.00,81.18
3084.00,81.21
3083.00,81.23
3082.00,81.23
3081.00,81.22
3080.00,81.20
3079.00,81.18
3078.00,81.17
3077.00,81.17
3076.00,81.19
3075.00,81.20
3074.00,81.21
3073.00,81.20
3072.00,81.18
3071.00,81.15
3070.00,81.14
3069.00,81.14
3068.00,81.15
3067.00,81.16
3066.00,81.15
3065.00,81.12
3064.00,81.08
3063.00,81.05
3062.00,81.03
3061.00,81.01
3060.00,81.00
3059.00,80.99
3058.00,80.97
3057.00,80.95
3056.00,80.93
3055.00,80.91
3054.00,80.89
3053.00,80.87
3052.00,80.85
3051.00,80.84
3050.00,80.83
3049.00,80.82
3048.00,80.82
3047.00,80.82
3046.00,80.83
3045.00,80.83
3044.00,80.82
3043.00,80.81
3042.00,80.81
3041.00,80.82
3040.00,80.83
3039.00,80.85
3038.00,80.88
3037.00,80.90
3036.00,80.92
3035.00,80.94
3034.00,80.98
3033.00,81.00
3032.00,81.03
3031.00,81.03
3030.00,81.04
3029.00,81.04
3028.00,81.06
3027.00,81.09
3026.00,81.13
3025.00,81.16
3024.00,81.18
3023.00,81.21
3022.00,81.22
3021.00,81.23
3020.00,81.24
3019.00,81.24
3018.00,81.26
3017.00,81.28
3016.00,81.30
3015.00,81.31
3014.00,81.32
3013.00,81.32
3012.00,81.33
3011.00,81.34
3010.00,81.35
3009.00,81.36
3008.00,81.36
3007.00,81.35
3006.00,81.36
3005.00,81.38
3004.00,81.42
3003.00,81.46
3002.00,81.49
3001.00,81.51
3000.00,81.53
2999.00,81.55
2998.00,81.57
2997.00,81.60
2996.00,81.62
2995.00,81.64
2994.00,81.65
2993.00,81.65
2992.00,81.66
2991.00,81.69
2990.00,81.73
2989.00,81.77
2988.00,81.80
2987.00,81.83
2986.00,81.85
2985.00,81.85
2984.00,81.86
2983.00,81.88
2982.00,81.91
2981.00,81.92
2980.00,81.93
2979.00,81.94
2978.00,81.95
2977.00,81.96
2976.00,81.97
2975.00,81.98
2974.00,81.99
2973.00,82.01
2972.00,82.01
2971.00,82.02
2970.00,82.03
2969.00,82.03
2968.00,82.03
2967.00,82.04
2966.00,82.05
2965.00,82.06
2964.00,82.07
2963.00,82.07
2962.00,82.06
2961.00,82.04
2960.00,82.03
2959.00,82.03
2958.00,82.04
2957.00,82.05
2956.00,82.06
2955.00,82.07
2954.00,82.07
2953.00,82.07
2952.00,82.07
2951.00,82.07
2950.00,82.06
2949.00,82.06
2948.00,82.06
2947.00,82.08
2946.00,82.08
2945.00,82.08
2944.00,82.07
2943.00,82.06
2942.00,82.06
2941.00,82.07
2940.00,82.09
2939.00,82.08
2938.00,82.06
2937.00,82.03
2936.00,82.01
2935.00,82.00
2934.00,82.00
2933.00,82.00
2932.00,82.00
2931.00,82.00
2930.00,82.00
2929.00,81.99
2928.00,81.98
2927.00,81.97
2926.00,81.95
2925.00,81.93
2924.00,81.91
2923.00,81.91
2922.00,81.92
2921.00,81.93
2920.00,81.94
2919.00,81.94
2918.00,81.96
2917.00,81.98
2916.00,82.01
2915.00,82.05
2914.00,82.07
2913.00,82.08
2912.00,82.07
2911.00,82.06
2910.00,82.06
2909.00,82.07
2908.00,82.09
2907.00,82.12
2906.00,82.15
2905.00,82.16
2904.00,82.18
2903.00,82.19
2902.00,82.20
2901.00,82.20
2900.00,82.20
2899.00,82.19
2898.00,82.18
2897.00,82.18
2896.00,82.17
2895.00,82.18
2894.00,82.18
2893.00,82.18
2892.00,82.17
2891.00,82.17
2890.00,82.17
2889.00,82.17
2888.00,82.18
2887.00,82.19
2886.00,82.21
2885.00,82.23
2884.00,82.24
2883.00,82.24
2882.00,82.23
2881.00,82.22
2880.00,82.21
2879.00,82.20
2878.00,82.21
2877.00,82.21
2876.00,82.21
2875.00,82.20
2874.00,82.18
2873.00,82.16
2872.00,82.15
2871.00,82.15
2870.00,82.15
2869.00,82.15
2868.00,82.15
2867.00,82.15
2866.00,82.15
2865.00,82.16
2864.00,82.17
2863.00,82.19
2862.00,82.20
2861.00,82.21
2860.00,82.22
2859.00,82.23
2858.00,82.23
2857.00,82.23
2856.00,82.23
2855.00,82.22
2854.00,82.21
2853.00,82.19
2852.00,82.18
2851.00,82.18
2850.00,82.20
2849.00,82.21
2848.00,82.22
2847.00,82.22
2846.00,82.23
2845.00,82.23
2844.00,82.23
2843.00,82.25
2842.00,82.27
2841.00,82.28
2840.00,82.28
2839.00,82.27
2838.00,82.27
2837.00,82.27
2836.00,82.27
2835.00,82.27
2834.00,82.26
2833.00,82.25
2832.00,82.24
2831.00,82.22
2830.00,82.20
2829.00,82.19
2828.00,82.18
2827.00,82.17
2826.00,82.17
2825.00,82.16
2824.00,82.15
2823.00,82.14
2822.00,82.15
2821.00,82.15
2820.00,82.16
2819.00,82.17
2818.00,82.18
2817.00,82.18
2816.00,82.17
2815.00,82.16
2814.00,82.15
2813.00,82.15
2812.00,82.14
2811.00,82.14
2810.00,82.16
2809.00,82.17
2808.00,82.18
2807.00,82.19
2806.00,82.20
2805.00,82.22
2804.00,82.24
2803.00,82.25
2802.00,82.26
2801.00,82.26
2800.00,82.26
2799.00,82.27
2798.00,82.27
2797.00,82.27
2796.00,82.27
2795.00,82.26
2794.00,82.26
2793.00,82.26
2792.00,82.26
2791.00,82.27
2790.00,82.28
2789.00,82.28
2788.00,82.27
2787.00,82.25
2786.00,82.24
2785.00,82.24
2784.00,82.24
2783.00,82.24
2782.00,82.25
2781.00,82.25
2780.00,82.25
2779.00,82.26
2778.00,82.26
2777.00,82.27
2776.00,82.27
2775.00,82.26
2774.00,82.24
2773.00,82.23
2772.00,82.22
2771.00,82.23
2770.00,82.26
2769.00,82.28
2768.00,82.28
2767.00,82.28
2766.00,82.29
2765.00,82.29
2764.00,82.30
2763.00,82.31
2762.00,82.32
2761.00,82.32
2760.00,82.31
2759.00,82.29
2758.00,82.29
2757.00,82.29
2756.00,82.30
2755.00,82.31
2754.00,82.31
2753.00,82.31
2752.00,82.31
2751.00,82.31
2750.00,82.31
2749.00,82.31
2748.00,82.30
2747.00,82.29
2746.00,82.29
2745.00,82.29
2744.00,82.29
2743.00,82.29
2742.00,82.30
2741.00,82.30
2740.00,82.30
2739.00,82.30
2738.00,82.30
2737.00,82.29
2736.00,82.28
2735.00,82.28
2734.00,82.29
2733.00,82.30
2732.00,82.31
2731.00,82.32
2730.00,82.33
2729.00,82.34
2728.00,82.33
2727.00,82.33
2726.00,82.32
2725.00,82.32
2724.00,82.33
2723.00,82.35
2722.00,82.37
2721.00,82.39
2720.00,82.40
2719.00,82.41
2718.00,82.42
2717.00,82.43
2716.00,82.43
2715.00,82.44
2714.00,82.44
2713.00,82.44
2712.00,82.45
2711.00,82.47
2710.00,82.50
2709.00,82.52
2708.00,82.54
2707.00,82.56
2706.00,82.57
2705.00,82.58
2704.00,82.59
2703.00,82.60
2702.00,82.60
2701.00,82.61
2700.00,82.61
2699.00,82.61
2698.00,82.60
2697.00,82.59
2696.00,82.60
2695.00,82.60
2694.00,82.62
2693.00,82.63
2692.00,82.64
2691.00,82.65
2690.00,82.65
2689.00,82.65
2688.00,82.64
2687.00,82.64
2686.00,82.64
2685.00,82.65
2684.00,82.65
2683.00,82.65
2682.00,82.63
2681.00,82.61
2680.00,82.60
2679.00,82.60
2678.00,82.61
2677.00,82.62
2676.00,82.62
2675.00,82.61
2674.00,82.60
2673.00,82.59
2672.00,82.57
2671.00,82.56
2670.00,82.55
2669.00,82.55
2668.00,82.54
2667.00,82.53
2666.00,82.52
2665.00,82.51
2664.00,82.50
2663.00,82.48
2662.00,82.46
2661.00,82.45
2660.00,82.43
2659.00,82.42
2658.00,82.40
2657.00,82.38
2656.00,82.36
2655.00,82.34
2654.00,82.32
2653.00,82.30
2652.00,82.29
2651.00,82.28
2650.00,82.27
2649.00,82.26
2648.00,82.25
2647.00,82.23
2646.00,82.22
2645.00,82.20
2644.00,82.18
2643.00,82.17
2642.00,82.15
2641.00,82.13
2640.00,82.11
2639.00,82.10
2638.00,82.08
2637.00,82.07
2636.00,82.05
2635.00,82.03
2634.00,82.03
2633.00,82.03
2632.00,82.03
2631.00,82.03
2630.00,82.01
2629.00,81.99
2628.00,81.96
2627.00,81.94
2626.00,81.93
2625.00,81.92
2624.00,81.92
2623.00,81.93
2622.00,81.93
2621.00,81.94
2620.00,81.95
2619.00,81.96
2618.00,81.97
2617.00,81.96
2616.00,81.94
2615.00,81.92
2614.00,81.90
2613.00,81.90
2612.00,81.91
2611.00,81.93
2610.00,81.94
2609.00,81.94
2608.00,81.94
2607.00,81.94
2606.00,81.93
2605.00,81.93
2604.00,81.91
2603.00,81.90
2602.00,81.89
2601.00,81.88
2600.00,81.86
2599.00,81.85
2598.00,81.85
2597.00,81.84
2596.00,81.83
2595.00,81.82
2594.00,81.82
2593.00,81.82
2592.00,81.81
2591.00,81.80
2590.00,81.79
2589.00,81.79
2588.00,81.78
2587.00,81.78
2586.00,81.77
2585.00,81.76
2584.00,81.75
2583.00,81.74
2582.00,81.73
2581.00,81.73
2580.00,81.71
2579.00,81.70
2578.00,81.70
2577.00,81.70
2576.00,81.71
2575.00,81.73
2574.00,81.74
2573.00,81.75
2572.00,81.76
2571.00,81.77
2570.00,81.76
2569.00,81.74
2568.00,81.73
2567.00,81.72
2566.00,81.72
2565.00,81.72
2564.00,81.72
2563.00,81.72
2562.00,81.71
2561.00,81.70
2560.00,81.69
2559.00,81.69
2558.00,81.69
2557.00,81.69
2556.00,81.68
2555.00,81.66
2554.00,81.65
2553.00,81.64
2552.00,81.64
2551.00,81.66
2550.00,81.67
2549.00,81.67
2548.00,81.66
2547.00,81.63
2546.00,81.62
2545.00,81.62
2544.00,81.63
2543.00,81.65
2542.00,81.68
2541.00,81.70
2540.00,81.70
2539.00,81.69
2538.00,81.67
2537.00,81.65
2536.00,81.64
2535.00,81.64
2534.00,81.66
2533.00,81.68
2532.00,81.71
2531.00,81.73
2530.00,81.73
2529.00,81.72
2528.00,81.71
2527.00,81.70
2526.00,81.70
2525.00,81.69
2524.00,81.67
2523.00,81.65
2522.00,81.66
2521.00,81.67
2520.00,81.68
2519.00,81.68
2518.00,81.66
2517.00,81.65
2516.00,81.64
2515.00,81.65
2514.00,81.65
2513.00,81.64
2512.00,81.64
2511.00,81.65
2510.00,81.66
2509.00,81.66
2508.00,81.66
2507.00,81.65
2506.00,81.63
2505.00,81.62
2504.00,81.62
2503.00,81.63
2502.00,81.64
2501.00,81.64
2500.00,81.64
2499.00,81.64
2498.00,81.65
2497.00,81.66
2496.00,81.67
2495.00,81.68
2494.00,81.68
2493.00,81.69
2492.00,81.69
2491.00,81.68
2490.00,81.67
2489.00,81.67
2488.00,81.67
2487.00,81.68
2486.00,81.69
2485.00,81.69
2484.00,81.69
2483.00,81.70
2482.00,81.71
2481.00,81.73
2480.00,81.73
2479.00,81.73
2478.00,81.73
2477.00,81.72
2476.00,81.71
2475.00,81.70
2474.00,81.68
2473.00,81.66
2472.00,81.65
2471.00,81.65
2470.00,81.67
2469.00,81.69
2468.00,81.69
2467.00,81.68
2466.00,81.67
2465.00,81.67
2464.00,81.67
2463.00,81.67
2462.00,81.67
2461.00,81.65
2460.00,81.64
2459.00,81.64
2458.00,81.63
2457.00,81.62
2456.00,81.61
2455.00,81.61
2454.00,81.62
2453.00,81.64
2452.00,81.65
2451.00,81.65
2450.00,81.63
2449.00,81.59
2448.00,81.55
2447.00,81.53
2446.00,81.53
2445.00,81.55
2444.00,81.58
2443.00,81.62
2442.00,81.64
2441.00,81.65
2440.00,81.63
2439.00,81.61
2438.00,81.60
2437.00,81.59
2436.00,81.59
2435.00,81.60
2434.00,81.62
2433.00,81.63
2432.00,81.64
2431.00,81.65
2430.00,81.64
2429.00,81.62
2428.00,81.61
2427.00,81.59
2426.00,81.59
2425.00,81.58
2424.00,81.58
2423.00,81.58
2422.00,81.58
2421.00,81.58
2420.00,81.58
2419.00,81.60
2418.00,81.63
2417.00,81.65
2416.00,81.65
2415.00,81.64
2414.00,81.62
2413.00,81.59
2412.00,81.56
2411.00,81.56
2410.00,81.59
2409.00,81.62
2408.00,81.66
2407.00,81.67
2406.00,81.68
2405.00,81.67
2404.00,81.66
2403.00,81.67
2402.00,81.68
2401.00,81.70
2400.00,81.72
2399.00,81.73
2398.00,81.75
2397.00,81.76
2396.00,81.77
2395.00,81.78
2394.00,81.79
2393.00,81.80
2392.00,81.82
2391.00,81.85
2390.00,81.87
2389.00,81.89
2388.00,81.90
2387.00,81.90
2386.00,81.91
2385.00,81.93
2384.00,81.97
2383.00,82.01
2382.00,82.05
2381.00,82.08
2380.00,82.13
2379.00,82.19
2378.00,82.26
2377.00,82.31
2376.00,82.35
2375.00,82.36
2374.00,82.35
2373.00,82.32
2372.00,82.28
2371.00,82.26
2370.00,82.27
2369.00,82.31
2368.00,82.36
2367.00,82.38
2366.00,82.36
2365.00,82.30
2364.00,82.26
2363.00,82.29
2362.00,82.37
2361.00,82.42
2360.00,82.41
2359.00,82.40
2358.00,82.44
2357.00,82.48
2356.00,82.49
2355.00,82.46
2354.00,82.39
2353.00,82.33
2352.00,82.31
2351.00,82.37
2350.00,82.44
2349.00,82.47
2348.00,82.46
2347.00,82.45
2346.00,82.48
2345.00,82.55
2344.00,82.62
2343.00,82.64
2342.00,82.59
2341.00,82.51
2340.00,82.47
2339.00,82.46
2338.00,82.47
2337.00,82.45
2336.00,82.40
2335.00,82.36
2334.00,82.35
2333.00,82.36
2332.00,82.40
2331.00,82.43
2330.00,82.45
2329.00,82.43
2328.00,82.40
2327.00,82.36
2326.00,82.30
2325.00,82.23
2324.00,82.18
2323.00,82.15
2322.00,82.14
2321.00,82.12
2320.00,82.08
2319.00,82.05
2318.00,82.03
2317.00,82.01
2316.00,82.00
2315.00,81.99
2314.00,82.01
2313.00,82.02
2312.00,82.02
2311.00,82.01
2310.00,82.00
2309.00,81.98
2308.00,81.94
2307.00,81.90
2306.00,81.86
2305.00,81.82
2304.00,81.80
2303.00,81.79
2302.00,81.77
2301.00,81.74
2300.00,81.71
2299.00,81.68
2298.00,81.67
2297.00,81.66
2296.00,81.65
2295.00,81.62
2294.00,81.59
2293.00,81.57
2292.00,81.54
2291.00,81.50
2290.00,81.45
2289.00,81.38
2288.00,81.33
2287.00,81.29
2286.00,81.28
2285.00,81.27
2284.00,81.27
2283.00,81.27
2282.00,81.26
2281.00,81.25
2280.00,81.24
2279.00,81.23
2278.00,81.23
2277.00,81.23
2276.00,81.23
2275.00,81.22
2274.00,81.21
2273.00,81.19
2272.00,81.18
2271.00,81.19
2270.00,81.20
2269.00,81.22
2268.00,81.23
2267.00,81.22
2266.00,81.19
2265.00,81.14
2264.00,81.13
2263.00,81.14
2262.00,81.15
2261.00,81.14
2260.00,81.11
2259.00,81.09
2258.00,81.08
2257.00,81.09
2256.00,81.11
2255.00,81.11
2254.00,81.09
2253.00,81.06
2252.00,81.04
2251.00,81.03
2250.00,81.04
2249.00,81.05
2248.00,81.04
2247.00,81.00
2246.00,80.95
2245.00,80.90
2244.00,80.88
2243.00,80.89
2242.00,80.91
2241.00,80.91
2240.00,80.90
2239.00,80.89
2238.00,80.86
2237.00,80.82
2236.00,80.77
2235.00,80.75
2234.00,80.75
2233.00,80.76
2232.00,80.75
2231.00,80.74
2230.00,80.74
2229.00,80.74
2228.00,80.74
2227.00,80.75
2226.00,80.75
2225.00,80.73
2224.00,80.70
2223.00,80.66
2222.00,80.62
2221.00,80.58
2220.00,80.57
2219.00,80.59
2218.00,80.62
2217.00,80.63
2216.00,80.62
2215.00,80.61
2214.00,80.60
2213.00,80.59
2212.00,80.58
2211.00,80.60
2210.00,80.63
2209.00,80.65
2208.00,80.63
2207.00,80.59
2206.00,80.55
2205.00,80.53
2204.00,80.52
2203.00,80.51
2202.00,80.48
2201.00,80.46
2200.00,80.46
2199.00,80.50
2198.00,80.56
2197.00,80.60
2196.00,80.58
2195.00,80.53
2194.00,80.46
2193.00,80.42
2192.00,80.41
2191.00,80.42
2190.00,80.39
2189.00,80.33
2188.00,80.26
2187.00,80.21
2186.00,80.19
2185.00,80.18
2184.00,80.22
2183.00,80.30
2182.00,80.37
2181.00,80.40
2180.00,80.38
2179.00,80.37
2178.00,80.38
2177.00,80.40
2176.00,80.43
2175.00,80.44
2174.00,80.42
2173.00,80.36
2172.00,80.27
2171.00,80.18
2170.00,80.12
2169.00,80.09
2168.00,80.08
2167.00,80.09
2166.00,80.09
2165.00,80.05
2164.00,79.96
2163.00,79.86
2162.00,79.77
2161.00,79.75
2160.00,79.81
2159.00,79.94
2158.00,80.09
2157.00,80.21
2156.00,80.32
2155.00,80.42
2154.00,80.51
2153.00,80.56
2152.00,80.58
2151.00,80.59
2150.00,80.61
2149.00,80.63
2148.00,80.64
2147.00,80.66
2146.00,80.67
2145.00,80.69
2144.00,80.74
2143.00,80.83
2142.00,80.91
2141.00,80.95
2140.00,80.95
2139.00,80.95
2138.00,80.96
2137.00,80.99
2136.00,81.04
2135.00,81.11
2134.00,81.19
2133.00,81.25
2132.00,81.29
2131.00,81.31
2130.00,81.31
2129.00,81.30
2128.00,81.27
2127.00,81.26
2126.00,81.26
2125.00,81.27
2124.00,81.28
2123.00,81.29
2122.00,81.31
2121.00,81.33
2120.00,81.36
2119.00,81.39
2118.00,81.42
2117.00,81.42
2116.00,81.41
2115.00,81.39
2114.00,81.37
2113.00,81.34
2112.00,81.31
2111.00,81.29
2110.00,81.29
2109.00,81.29
2108.00,81.30
2107.00,81.33
2106.00,81.35
2105.00,81.36
2104.00,81.35
2103.00,81.32
2102.00,81.31
2101.00,81.30
2100.00,81.30
2099.00,81.29
2098.00,81.29
2097.00,81.30
2096.00,81.32
2095.00,81.35
2094.00,81.38
2093.00,81.39
2092.00,81.39
2091.00,81.39
2090.00,81.40
2089.00,81.41
2088.00,81.42
2087.00,81.42
2086.00,81.40
2085.00,81.35
2084.00,81.30
2083.00,81.26
2082.00,81.24
2081.00,81.22
2080.00,81.23
2079.00,81.25
2078.00,81.28
2077.00,81.30
2076.00,81.31
2075.00,81.31
2074.00,81.31
2073.00,81.30
2072.00,81.29
2071.00,81.28
2070.00,81.28
2069.00,81.29
2068.00,81.33
2067.00,81.36
2066.00,81.35
2065.00,81.28
2064.00,81.19
2063.00,81.13
2062.00,81.12
2061.00,81.13
2060.00,81.16
2059.00,81.17
2058.00,81.18
2057.00,81.17
2056.00,81.15
2055.00,81.13
2054.00,81.10
2053.00,81.02
2052.00,80.92
2051.00,80.82
2050.00,80.75
2049.00,80.73
2048.00,80.74
2047.00,80.77
2046.00,80.81
2045.00,80.84
2044.00,80.84
2043.00,80.80
2042.00,80.73
2041.00,80.67
2040.00,80.64
2039.00,80.64
2038.00,80.65
2037.00,80.63
2036.00,80.60
2035.00,80.58
2034.00,80.57
2033.00,80.58
2032.00,80.62
2031.00,80.71
2030.00,80.80
2029.00,80.86
2028.00,80.85
2027.00,80.80
2026.00,80.76
2025.00,80.74
2024.00,80.74
2023.00,80.73
2022.00,80.70
2021.00,80.65
2020.00,80.63
2019.00,80.65
2018.00,80.69
2017.00,80.72
2016.00,80.77
2015.00,80.84
2014.00,80.90
2013.00,80.89
2012.00,80.83
2011.00,80.80
2010.00,80.84
2009.00,80.93
2008.00,81.02
2007.00,81.07
2006.00,81.10
2005.00,81.14
2004.00,81.20
2003.00,81.27
2002.00,81.34
2001.00,81.37
2000.00,81.37
1999.00,81.39
1998.00,81.40
1997.00,81.40
1996.00,81.38
1995.00,81.35
1994.00,81.32
1993.00,81.29
1992.00,81.28
1991.00,81.31
1990.00,81.36
1989.00,81.38
1988.00,81.37
1987.00,81.34
1986.00,81.31
1985.00,81.26
1984.00,81.19
1983.00,81.13
1982.00,81.11
1981.00,81.08
1980.00,81.06
1979.00,81.07
1978.00,81.14
1977.00,81.22
1976.00,81.27
1975.00,81.30
1974.00,81.34
1973.00,81.38
1972.00,81.40
1971.00,81.41
1970.00,81.45
1969.00,81.51
1968.00,81.57
1967.00,81.60
1966.00,81.62
1965.00,81.63
1964.00,81.64
1963.00,81.66
1962.00,81.69
1961.00,81.72
1960.00,81.75
1959.00,81.80
1958.00,81.86
1957.00,81.91
1956.00,81.94
1955.00,81.96
1954.00,81.96
1953.00,81.99
1952.00,82.03
1951.00,82.08
1950.00,82.09
1949.00,82.06
1948.00,82.00
1947.00,81.96
1946.00,81.96
1945.00,82.01
1944.00,82.08
1943.00,82.10
1942.00,82.06
1941.00,81.99
1940.00,81.93
1939.00,81.93
1938.00,81.98
1937.00,82.06
1936.00,82.14
1935.00,82.19
1934.00,82.20
1933.00,82.19
1932.00,82.20
1931.00,82.24
1930.00,82.30
1929.00,82.37
1928.00,82.44
1927.00,82.50
1926.00,82.55
1925.00,82.57
1924.00,82.59
1923.00,82.60
1922.00,82.61
1921.00,82.62
1920.00,82.63
1919.00,82.63
1918.00,82.62
1917.00,82.63
1916.00,82.66
1915.00,82.71
1914.00,82.76
1913.00,82.78
1912.00,82.79
1911.00,82.80
1910.00,82.80
1909.00,82.78
1908.00,82.76
1907.00,82.73
1906.00,82.73
1905.00,82.74
1904.00,82.76
1903.00,82.80
1902.00,82.83
1901.00,82.87
1900.00,82.91
1899.00,82.95
1898.00,82.99
1897.00,83.03
1896.00,83.06
1895.00,83.09
1894.00,83.11
1893.00,83.12
1892.00,83.15
1891.00,83.18
1890.00,83.22
1889.00,83.24
1888.00,83.28
1887.00,83.33
1886.00,83.38
1885.00,83.41
1884.00,83.44
1883.00,83.48
1882.00,83.54
1881.00,83.58
1880.00,83.62
1879.00,83.63
1878.00,83.63
1877.00,83.62
1876.00,83.61
1875.00,83.62
1874.00,83.66
1873.00,83.70
1872.00,83.73
1871.00,83.75
1870.00,83.76
1869.00,83.77
1868.00,83.78
1867.00,83.81
1866.00,83.86
1865.00,83.89
1864.00,83.91
1863.00,83.91
1862.00,83.91
1861.00,83.92
1860.00,83.95
1859.00,84.00
1858.00,84.05
1857.00,84.09
1856.00,84.10
1855.00,84.11
1854.00,84.12
1853.00,84.14
1852.00,84.15
1851.00,84.17
1850.00,84.18
1849.00,84.20
1848.00,84.22
1847.00,84.27
1846.00,84.31
1845.00,84.34
1844.00,84.36
1843.00,84.39
1842.00,84.42
1841.00,84.45
1840.00,84.47
1839.00,84.49
1838.00,84.52
1837.00,84.54
1836.00,84.57
1835.00,84.59
1834.00,84.62
1833.00,84.64
1832.00,84.65
1831.00,84.66
1830.00,84.64
1829.00,84.63
1828.00,84.63
1827.00,84.67
1826.00,84.70
1825.00,84.72
1824.00,84.74
1823.00,84.75
1822.00,84.78
1821.00,84.80
1820.00,84.81
1819.00,84.84
1818.00,84.87
1817.00,84.89
1816.00,84.91
1815.00,84.92
1814.00,84.94
1813.00,84.95
1812.00,84.97
1811.00,84.99
1810.00,85.02
1809.00,85.05
1808.00,85.09
1807.00,85.13
1806.00,85.17
1805.00,85.20
1804.00,85.23
1803.00,85.26
1802.00,85.30
1801.00,85.33
1800.00,85.35
1799.00,85.37
1798.00,85.38
1797.00,85.41
1796.00,85.45
1795.00,85.51
1794.00,85.57
1793.00,85.60
1792.00,85.62
1791.00,85.65
1790.00,85.69
1789.00,85.73
1788.00,85.77
1787.00,85.80
1786.00,85.82
1785.00,85.84
1784.00,85.86
1783.00,85.91
1782.00,85.96
1781.00,86.00
1780.00,86.04
1779.00,86.08
1778.00,86.12
1777.00,86.14
1776.00,86.15
1775.00,86.16
1774.00,86.17
1773.00,86.18
1772.00,86.18
1771.00,86.19
1770.00,86.21
1769.00,86.25
1768.00,86.30
1767.00,86.34
1766.00,86.37
1765.00,86.40
1764.00,86.43
1763.00,86.47
1762.00,86.51
1761.00,86.55
1760.00,86.59
1759.00,86.65
1758.00,86.70
1757.00,86.74
1756.00,86.76
1755.00,86.79
1754.00,86.82
1753.00,86.87
1752.00,86.92
1751.00,86.96
1750.00,87.00
1749.00,87.03
1748.00,87.06
1747.00,87.08
1746.00,87.11
1745.00,87.15
1744.00,87.19
1743.00,87.24
1742.00,87.29
1741.00,87.34
1740.00,87.37
1739.00,87.41
1738.00,87.47
1737.00,87.55
1736.00,87.65
1735.00,87.74
1734.00,87.79
1733.00,87.81
1732.00,87.84
1731.00,87.88
1730.00,87.94
1729.00,87.99
1728.00,88.04
1727.00,88.09
1726.00,88.15
1725.00,88.20
1724.00,88.24
1723.00,88.28
1722.00,88.32
1721.00,88.36
1720.00,88.40
1719.00,88.45
1718.00,88.50
1717.00,88.53
1716.00,88.56
1715.00,88.62
1714.00,88.68
1713.00,88.72
1712.00,88.75
1711.00,88.79
1710.00,88.83
1709.00,88.87
1708.00,88.92
1707.00,88.97
1706.00,89.03
1705.00,89.08
1704.00,89.12
1703.00,89.14
1702.00,89.18
1701.00,89.23
1700.00,89.27
1699.00,89.33
1698.00,89.37
1697.00,89.41
1696.00,89.43
1695.00,89.47
1694.00,89.49
1693.00,89.49
1692.00,89.48
1691.00,89.48
1690.00,89.45
1689.00,89.39
1688.00,89.32
1687.00,89.24
1686.00,89.16
1685.00,89.01
1684.00,88.79
1683.00,88.60
1682.00,88.46
1681.00,88.30
1680.00,88.12
1679.00,87.92
1678.00,87.72
1677.00,87.50
1676.00,87.26
1675.00,87.01
1674.00,86.78
1673.00,86.56
1672.00,86.34
1671.00,86.09
1670.00,85.79
1669.00,85.44
1668.00,85.08
1667.00,84.74
1666.00,84.39
1665.00,83.98
1664.00,83.46
1663.00,82.85
1662.00,82.21
1661.00,81.59
1660.00,80.97
1659.00,80.34
1658.00,79.72
1657.00,79.13
1656.00,78.58
1655.00,78.01
1654.00,77.26
1653.00,76.32
1652.00,75.57
1651.00,75.10
1650.00,74.74
1649.00,74.37
1648.00,73.92
1647.00,73.42
1646.00,72.97
1645.00,72.61
1644.00,72.30
1643.00,72.03
1642.00,71.81
1641.00,71.64
1640.00,71.52
1639.00,71.44
1638.00,71.42
1637.00,71.49
1636.00,71.67
1635.00,71.95
1634.00,72.25
1633.00,72.49
1632.00,72.71
1631.00,72.95
1630.00,73.24
1629.00,73.56
1628.00,73.91
1627.00,74.25
1626.00,74.57
1625.00,74.90
1624.00,75.24
1623.00,75.61
1622.00,75.95
1621.00,76.20
1620.00,76.38
1619.00,76.53
1618.00,76.67
1617.00,76.80
1616.00,76.91
1615.00,76.99
1614.00,77.03
1613.00,77.04
1612.00,77.05
1611.00,77.06
1610.00,77.11
1609.00,77.20
1608.00,77.35
1607.00,77.53
1606.00,77.76
1605.00,78.02
1604.00,78.32
1603.00,78.67
1602.00,79.07
1601.00,79.50
1600.00,79.94
1599.00,80.39
1598.00,80.84
1597.00,81.30
1596.00,81.78
1595.00,82.27
1594.00,82.73
1593.00,83.17
1592.00,83.59
1591.00,83.99
1590.00,84.37
1589.00,84.72
1588.00,85.06
1587.00,85.36
1586.00,85.62
1585.00,85.85
1584.00,86.08
1583.00,86.29
1582.00,86.46
1581.00,86.60
1580.00,86.70
1579.00,86.76
1578.00,86.78
1577.00,86.77
1576.00,86.75
1575.00,86.72
1574.00,86.64
1573.00,86.54
1572.00,86.44
1571.00,86.34
1570.00,86.19
1569.00,86.02
1568.00,85.85
1567.00,85.66
1566.00,85.42
1565.00,85.11
1564.00,84.79
1563.00,84.48
1562.00,84.16
1561.00,83.78
1560.00,83.19
1559.00,82.31
1558.00,81.43
1557.00,80.77
1556.00,80.17
1555.00,79.48
1554.00,78.70
1553.00,77.88
1552.00,77.06
1551.00,76.19
1550.00,75.21
1549.00,74.18
1548.00,73.19
1547.00,72.22
1546.00,71.20
1545.00,70.12
1544.00,69.08
1543.00,68.12
1542.00,67.20
1541.00,66.25
1540.00,65.37
1539.00,64.75
1538.00,64.42
1537.00,64.28
1536.00,64.27
1535.00,64.40
1534.00,64.74
1533.00,65.25
1532.00,65.84
1531.00,66.45
1530.00,67.10
1529.00,67.82
1528.00,68.61
1527.00,69.42
1526.00,70.16
1525.00,70.72
1524.00,71.05
1523.00,71.14
1522.00,70.94
1521.00,70.44
1520.00,69.77
1519.00,69.01
1518.00,68.11
1517.00,67.06
1516.00,66.04
1515.00,65.21
1514.00,64.54
1513.00,63.95
1512.00,63.43
1511.00,63.02
1510.00,62.69
1509.00,62.42
1508.00,62.20
1507.00,62.04
1506.00,61.95
1505.00,61.91
1504.00,61.92
1503.00,61.97
1502.00,62.06
1501.00,62.15
1500.00,62.28
1499.00,62.45
1498.00,62.66
1497.00,62.88
1496.00,63.11
1495.00,63.32
1494.00,63.47
1493.00,63.58
1492.00,63.69
1491.00,63.81
1490.00,63.92
1489.00,64.00
1488.00,64.07
1487.00,64.14
1486.00,64.20
1485.00,64.24
1484.00,64.27
1483.00,64.31
1482.00,64.36
1481.00,64.42
1480.00,64.49
1479.00,64.58
1478.00,64.68
1477.00,64.78
1476.00,64.88
1475.00,64.99
1474.00,65.12
1473.00,65.27
1472.00,65.45
1471.00,65.63
1470.00,65.79
1469.00,65.94
1468.00,66.12
1467.00,66.32
1466.00,66.54
1465.00,66.79
1464.00,67.04
1463.00,67.29
1462.00,67.51
1461.00,67.73
1460.00,67.96
1459.00,68.23
1458.00,68.56
1457.00,68.94
1456.00,69.30
1455.00,69.58
1454.00,69.81
1453.00,70.06
1452.00,70.32
1451.00,70.60
1450.00,70.88
1449.00,71.17
1448.00,71.46
1447.00,71.76
1446.00,72.05
1445.00,72.33
1444.00,72.62
1443.00,72.91
1442.00,73.21
1441.00,73.51
1440.00,73.80
1439.00,74.10
1438.00,74.45
1437.00,74.85
1436.00,75.24
1435.00,75.58
1434.00,75.89
1433.00,76.21
1432.00,76.57
1431.00,76.97
1430.00,77.41
1429.00,77.90
1428.00,78.38
1427.00,78.84
1426.00,79.31
1425.00,79.82
1424.00,80.34
1423.00,80.82
1422.00,81.24
1421.00,81.63
1420.00,81.95
1419.00,82.07
1418.00,81.92
1417.00,81.51
1416.00,80.82
1415.00,79.88
1414.00,78.73
1413.00,77.41
1412.00,75.93
1411.00,74.37
1410.00,72.86
1409.00,71.49
1408.00,70.28
1407.00,69.25
1406.00,68.44
1405.00,67.81
1404.00,67.33
1403.00,66.97
1402.00,66.68
1401.00,66.36
1400.00,65.94
1399.00,65.45
1398.00,64.95
1397.00,64.49
1396.00,64.05
1395.00,63.69
1394.00,63.44
1393.00,63.31
1392.00,63.28
1391.00,63.37
1390.00,63.57
1389.00,63.86
1388.00,64.22
1387.00,64.65
1386.00,65.09
1385.00,65.50
1384.00,65.91
1383.00,66.33
1382.00,66.78
1381.00,67.20
1380.00,67.60
1379.00,67.99
1378.00,68.37
1377.00,68.72
1376.00,69.03
1375.00,69.33
1374.00,69.62
1373.00,69.87
1372.00,70.07
1371.00,70.26
1370.00,70.44
1369.00,70.61
1368.00,70.76
1367.00,70.89
1366.00,71.00
1365.00,71.11
1364.00,71.22
1363.00,71.33
1362.00,71.43
1361.00,71.51
1360.00,71.59
1359.00,71.67
1358.00,71.78
1357.00,71.90
1356.00,72.02
1355.00,72.15
1354.00,72.28
1353.00,72.40
1352.00,72.53
1351.00,72.67
1350.00,72.83
1349.00,73.02
1348.00,73.24
1347.00,73.50
1346.00,73.80
1345.00,74.13
1344.00,74.47
1343.00,74.83
1342.00,75.22
1341.00,75.62
1340.00,76.00
1339.00,76.35
1338.00,76.64
1337.00,76.85
1336.00,76.98
1335.00,77.04
1334.00,77.03
1333.00,76.93
1332.00,76.73
1331.00,76.44
1330.00,76.07
1329.00,75.61
1328.00,75.07
1327.00,74.47
1326.00,73.84
1325.00,73.17
1324.00,72.48
1323.00,71.78
1322.00,71.09
1321.00,70.41
1320.00,69.72
1319.00,69.05
1318.00,68.42
1317.00,67.84
1316.00,67.28
1315.00,66.74
1314.00,66.22
1313.00,65.70
1312.00,65.20
1311.00,64.73
1310.00,64.29
1309.00,63.88
1308.00,63.46
1307.00,63.07
1306.00,62.71
1305.00,62.39
1304.00,62.11
1303.00,61.88
1302.00,61.73
1301.00,61.63
1300.00,61.59
1299.00,61.62
1298.00,61.71
1297.00,61.84
1296.00,62.00
1295.00,62.20
1294.00,62.45
1293.00,62.72
1292.00,63.03
1291.00,63.38
1290.00,63.77
1289.00,64.16
1288.00,64.56
1287.00,64.97
1286.00,65.38
1285.00,65.78
1284.00,66.15
1283.00,66.51
1282.00,66.85
1281.00,67.15
1280.00,67.40
1279.00,67.62
1278.00,67.82
1277.00,67.99
1276.00,68.14
1275.00,68.27
1274.00,68.38
1273.00,68.46
1272.00,68.49
1271.00,68.49
1270.00,68.46
1269.00,68.39
1268.00,68.28
1267.00,68.16
1266.00,68.03
1265.00,67.88
1264.00,67.71
1263.00,67.54
1262.00,67.38
1261.00,67.22
1260.00,67.07
1259.00,66.94
1258.00,66.81
1257.00,66.69
1256.00,66.55
1255.00,66.42
1254.00,66.29
1253.00,66.14
1252.00,65.96
1251.00,65.78
1250.00,65.61
1249.00,65.45
1248.00,65.30
1247.00,65.18
1246.00,65.09
1245.00,65.02
1244.00,64.97
1243.00,64.96
1242.00,64.98
1241.00,65.02
1240.00,65.04
1239.00,65.06
1238.00,65.09
1237.00,65.10
1236.00,65.06
1235.00,65.01
1234.00,64.93
1233.00,64.85
1232.00,64.75
1231.00,64.65
1230.00,64.57
1229.00,64.47
1228.00,64.37
1227.00,64.28
1226.00,64.21
1225.00,64.12
1224.00,64.02
1223.00,63.92
1222.00,63.84
1221.00,63.77
1220.00,63.72
1219.00,63.69
1218.00,63.70
1217.00,63.73
1216.00,63.77
1215.00,63.84
1214.00,63.93
1213.00,64.01
1212.00,64.09
1211.00,64.19
1210.00,64.31
1209.00,64.44
1208.00,64.56
1207.00,64.70
1206.00,64.84
1205.00,64.98
1204.00,65.11
1203.00,65.24
1202.00,65.39
1201.00,65.52
1200.00,65.63
1199.00,65.75
1198.00,65.88
1197.00,65.99
1196.00,66.09
1195.00,66.19
1194.00,66.29
1193.00,66.38
1192.00,66.44
1191.00,66.52
1190.00,66.61
1189.00,66.68
1188.00,66.73
1187.00,66.77
1186.00,66.83
1185.00,66.89
1184.00,66.93
1183.00,66.98
1182.00,67.03
1181.00,67.08
1180.00,67.13
1179.00,67.20
1178.00,67.29
1177.00,67.39
1176.00,67.49
1175.00,67.58
1174.00,67.69
1173.00,67.80
1172.00,67.90
1171.00,68.01
1170.00,68.14
1169.00,68.26
1168.00,68.36
1167.00,68.45
1166.00,68.53
1165.00,68.60
1164.00,68.66
1163.00,68.74
1162.00,68.84
1161.00,68.95
1160.00,69.05
1159.00,69.15
1158.00,69.25
1157.00,69.34
1156.00,69.41
1155.00,69.48
1154.00,69.55
1153.00,69.63
1152.00,69.70
1151.00,69.79
1150.00,69.89
1149.00,69.99
1148.00,70.09
1147.00,70.19
1146.00,70.31
1145.00,70.42
1144.00,70.48
1143.00,70.54
1142.00,70.61
1141.00,70.68
1140.00,70.75
1139.00,70.79
1138.00,70.79
1137.00,70.73
1136.00,70.58
1135.00,70.38
1134.00,70.13
1133.00,69.86
1132.00,69.58
1131.00,69.33
1130.00,69.11
1129.00,68.93
1128.00,68.79
1127.00,68.69
1126.00,68.64
1125.00,68.57
1124.00,68.49
1123.00,68.42
1122.00,68.37
1121.00,68.30
1120.00,68.21
1119.00,68.08
1118.00,67.94
1117.00,67.76
1116.00,67.54
1115.00,67.29
1114.00,67.00
1113.00,66.65
1112.00,66.23
1111.00,65.81
1110.00,65.46
1109.00,65.20
1108.00,65.06
1107.00,65.05
1106.00,65.15
1105.00,65.31
1104.00,65.49
1103.00,65.70
1102.00,65.95
1101.00,66.19
1100.00,66.41
1099.00,66.61
1098.00,66.80
1097.00,66.97
1096.00,67.13
1095.00,67.30
1094.00,67.50
1093.00,67.68
1092.00,67.82
1091.00,67.96
1090.00,68.11
1089.00,68.25
1088.00,68.37
1087.00,68.47
1086.00,68.57
1085.00,68.66
1084.00,68.74
1083.00,68.83
1082.00,68.92
1081.00,68.99
1080.00,69.04
1079.00,69.12
1078.00,69.24
1077.00,69.35
1076.00,69.46
1075.00,69.57
1074.00,69.69
1073.00,69.80
1072.00,69.88
1071.00,69.98
1070.00,70.10
1069.00,70.22
1068.00,70.33
1067.00,70.45
1066.00,70.58
1065.00,70.69
1064.00,70.77
1063.00,70.84
1062.00,70.93
1061.00,71.03
1060.00,71.14
1059.00,71.25
1058.00,71.35
1057.00,71.43
1056.00,71.50
1055.00,71.59
1054.00,71.72
1053.00,71.85
1052.00,71.97
1051.00,72.09
1050.00,72.20
1049.00,72.27
1048.00,72.31
1047.00,72.37
1046.00,72.46
1045.00,72.55
1044.00,72.64
1043.00,72.74
1042.00,72.85
1041.00,72.95
1040.00,73.03
1039.00,73.12
1038.00,73.23
1037.00,73.33
1036.00,73.41
1035.00,73.51
1034.00,73.62
1033.00,73.75
1032.00,73.88
1031.00,74.00
1030.00,74.14
1029.00,74.28
1028.00,74.41
1027.00,74.52
1026.00,74.58
1025.00,74.51
1024.00,74.25
1023.00,73.74
1022.00,72.93
1021.00,71.82
1020.00,70.46
1019.00,69.06
1018.00,67.89
1017.00,67.11
1016.00,66.80
1015.00,66.91
1014.00,67.29
1013.00,67.80
1012.00,68.33
1011.00,68.87
1010.00,69.40
1009.00,69.87
1008.00,70.27
1007.00,70.62
1006.00,70.91
1005.00,71.14
1004.00,71.32
1003.00,71.48
1002.00,71.65
1001.00,71.82
1000.00,71.97
999.00,72.11
998.00,72.22
997.00,72.32
996.00,72.39
995.00,72.47
994.00,72.55
993.00,72.63
992.00,72.67
991.00,72.70
990.00,72.74
989.00,72.77
988.00,72.77
987.00,72.75
986.00,72.70
985.00,72.61
984.00,72.49
983.00,72.34
982.00,72.17
981.00,71.98
980.00,71.81
979.00,71.68
978.00,71.62
977.00,71.64
976.00,71.72
975.00,71.84
974.00,72.01
973.00,72.17
972.00,72.30
971.00,72.41
970.00,72.50
969.00,72.55
968.00,72.59
967.00,72.61
966.00,72.64
965.00,72.66
964.00,72.69
963.00,72.77
962.00,72.88
961.00,72.98
960.00,73.05
959.00,73.12
958.00,73.21
957.00,73.31
956.00,73.40
955.00,73.50
954.00,73.59
953.00,73.69
952.00,73.79
951.00,73.88
950.00,73.97
949.00,74.03
948.00,74.07
947.00,74.11
946.00,74.16
945.00,74.19
944.00,74.21
943.00,74.23
942.00,74.30
941.00,74.39
940.00,74.50
939.00,74.63
938.00,74.77
937.00,74.89
936.00,74.98
935.00,75.07
934.00,75.17
933.00,75.26
932.00,75.36
931.00,75.47
930.00,75.60
929.00,75.72
928.00,75.81
927.00,75.90
926.00,75.98
925.00,76.05
924.00,76.10
923.00,76.16
922.00,76.24
921.00,76.31
920.00,76.36
919.00,76.43
918.00,76.53
917.00,76.62
916.00,76.67
915.00,76.69
914.00,76.71
913.00,76.73
912.00,76.73
911.00,76.73
910.00,76.73
909.00,76.71
908.00,76.66
907.00,76.57
906.00,76.43
905.00,76.20
904.00,75.85
903.00,75.39
902.00,74.79
901.00,74.04
900.00,73.15
899.00,72.20
898.00,71.25
897.00,70.34
896.00,69.52
895.00,68.85
894.00,68.36
893.00,68.02
892.00,67.80
891.00,67.72
890.00,67.77
889.00,67.90
888.00,68.08
887.00,68.30
886.00,68.58
885.00,68.91
884.00,69.26
883.00,69.65
882.00,70.06
881.00,70.46
880.00,70.84
879.00,71.22
878.00,71.59
877.00,71.93
876.00,72.21
875.00,72.44
874.00,72.60
873.00,72.65
872.00,72.56
871.00,72.33
870.00,71.94
869.00,71.32
868.00,70.46
867.00,69.36
866.00,68.07
865.00,66.72
864.00,65.59
863.00,65.00
862.00,65.12
861.00,65.84
860.00,66.88
859.00,67.96
858.00,68.94
857.00,69.72
856.00,70.31
855.00,70.77
854.00,71.15
853.00,71.45
852.00,71.68
851.00,71.86
850.00,72.03
849.00,72.15
848.00,72.23
847.00,72.31
846.00,72.41
845.00,72.50
844.00,72.56
843.00,72.59
842.00,72.62
841.00,72.60
840.00,72.52
839.00,72.42
838.00,72.29
837.00,72.12
836.00,71.89
835.00,71.58
834.00,71.19
833.00,70.67
832.00,69.99
831.00,69.15
830.00,68.10
829.00,66.77
828.00,65.13
827.00,63.27
826.00,61.35
825.00,59.52
824.00,57.99
823.00,56.95
822.00,56.48
821.00,56.49
820.00,56.85
819.00,57.48
818.00,58.27
817.00,59.10
816.00,59.90
815.00,60.68
814.00,61.46
813.00,62.22
812.00,62.93
811.00,63.61
810.00,64.25
809.00,64.82
808.00,65.34
807.00,65.83
806.00,66.33
805.00,66.80
804.00,67.23
803.00,67.64
802.00,68.07
801.00,68.46
800.00,68.80
799.00,69.09
798.00,69.32
797.00,69.48
796.00,69.59
795.00,69.67
794.00,69.70
793.00,69.62
792.00,69.38
791.00,69.02
790.00,68.62
789.00,68.21
788.00,67.83
787.00,67.53
786.00,67.29
785.00,67.11
784.00,66.98
783.00,66.92
782.00,66.96
781.00,67.06
780.00,67.20
779.00,67.42
778.00,67.71
777.00,68.05
776.00,68.39
775.00,68.73
774.00,69.07
773.00,69.39
772.00,69.68
771.00,69.98
770.00,70.29
769.00,70.58
768.00,70.82
767.00,71.04
766.00,71.26
765.00,71.46
764.00,71.64
763.00,71.81
762.00,71.98
761.00,72.15
760.00,72.29
759.00,72.44
758.00,72.59
757.00,72.72
756.00,72.82
755.00,72.92
754.00,73.04
753.00,73.16
752.00,73.29
751.00,73.42
750.00,73.54
749.00,73.60
748.00,73.62
747.00,73.63
746.00,73.64
745.00,73.59
744.00,73.47
743.00,73.35
742.00,73.24
741.00,73.10
740.00,72.84
739.00,72.43
738.00,71.86
737.00,71.15
736.00,70.29
735.00,69.35
734.00,68.38
733.00,67.36
732.00,66.31
731.00,65.31
730.00,64.40
729.00,63.62
728.00,63.00
727.00,62.62
726.00,62.48
725.00,62.52
724.00,62.68
723.00,62.94
722.00,63.29
721.00,63.69
720.00,64.06
719.00,64.37
718.00,64.65
717.00,64.90
716.00,65.13
715.00,65.36
714.00,65.61
713.00,65.83
712.00,66.01
711.00,66.19
710.00,66.38
709.00,66.55
708.00,66.67
707.00,66.78
706.00,66.89
705.00,66.99
704.00,67.05
703.00,67.11
702.00,67.16
701.00,67.16
700.00,67.09
699.00,67.00
698.00,66.92
697.00,66.83
696.00,66.71
695.00,66.58
694.00,66.45
693.00,66.29
692.00,66.08
691.00,65.87
690.00,65.66
689.00,65.43
688.00,65.15
687.00,64.87
686.00,64.60
685.00,64.29
684.00,63.94
683.00,63.65
682.00,63.42
681.00,63.18
680.00,62.91
679.00,62.64
678.00,62.41
677.00,62.15
676.00,61.83
675.00,61.51
674.00,61.26
673.00,61.03
672.00,60.82
671.00,60.67
670.00,60.58
669.00,60.44
668.00,60.11
667.00,59.73
666.00,59.52
665.00,59.46
664.00,59.44
663.00,59.38
662.00,59.31
661.00,59.20
660.00,59.08
659.00,59.03
658.00,59.05
657.00,59.08
656.00,59.05
655.00,59.04
654.00,59.11
653.00,59.21
652.00,59.31
651.00,59.42
650.00,59.52
649.00,59.55
648.00,59.53
647.00,59.57
646.00,59.70
645.00,59.80
644.00,59.87
643.00,59.98
642.00,60.11
641.00,60.16
640.00,60.16
639.00,60.27
638.00,60.55
637.00,60.78
636.00,60.83
635.00,60.80
634.00,60.84
633.00,60.88
632.00,60.84
631.00,60.81
630.00,60.83
629.00,60.83
628.00,60.75
627.00,60.72
626.00,60.78
625.00,60.80
624.00,60.77
623.00,60.84
622.00,61.10
621.00,61.33
620.00,61.41
619.00,61.49
618.00,61.68
617.00,61.78
616.00,61.69
615.00,61.64
614.00,61.84
613.00,62.15
612.00,62.44
611.00,62.75
610.00,63.04
609.00,63.09
608.00,62.87
607.00,62.60
606.00,62.44
605.00,62.28
604.00,61.91
603.00,61.25
602.00,60.33
601.00,59.46
600.00,59.26
599.00,60.17
598.00,61.78
597.00,63.07
596.00,63.54
595.00,63.53
594.00,63.47
593.00,63.29
592.00,62.90
591.00,62.58
590.00,62.59
589.00,62.74
588.00,62.91
587.00,63.28
586.00,63.87
585.00,64.28
584.00,64.30
583.00,64.27
582.00,64.43
581.00,64.46
580.00,64.19
579.00,64.00
578.00,64.18
577.00,64.39
576.00,64.44
575.00,64.67
574.00,65.15
573.00,65.28
572.00,64.83
571.00,64.37
570.00,64.32
569.00,64.35
568.00,64.26
567.00,64.49
566.00,65.18
565.00,65.66
564.00,65.53
563.00,65.21
562.00,65.17
561.00,65.27
560.00,65.39
559.00,65.71
558.00,66.13
557.00,66.17
556.00,65.80
555.00,65.64
554.00,65.95
553.00,66.15
552.00,65.92
551.00,65.72
550.00,65.72
