Created as New Dataset,52 Du Pont
cm-1,%T
4000.00,96.72
3999.00,96.71
3998.00,96.70
3997.00,96.69
3996.00,96.70
3995.00,96.71
3994.00,96.72
3993.00,96.72
3992.00,96.72
3991.00,96.72
3990.00,96.71
3989.00,96.70
3988.00,96.70
3987.00,96.71
3986.00,96.72
3985.00,96.73
3984.00,96.73
3983.00,96.72
3982.00,96.71
3981.00,96.70
3980.00,96.70
3979.00,96.70
3978.00,96.70
3977.00,96.70
3976.00,96.71
3975.00,96.71
3974.00,96.70
3973.00,96.68
3972.00,96.67
3971.00,96.67
3970.00,96.68
3969.00,96.71
3968.00,96.74
3967.00,96.78
3966.00,96.80
3965.00,96.80
3964.00,96.79
3963.00,96.77
3962.00,96.74
3961.00,96.71
3960.00,96.69
3959.00,96.67
3958.00,96.67
3957.00,96.68
3956.00,96.70
3955.00,96.71
3954.00,96.73
3953.00,96.73
3952.00,96.73
3951.00,96.72
3950.00,96.71
3949.00,96.71
3948.00,96.71
3947.00,96.72
3946.00,96.73
3945.00,96.73
3944.00,96.73
3943.00,96.73
3942.00,96.74
3941.00,96.74
3940.00,96.73
3939.00,96.72
3938.00,96.71
3937.00,96.70
3936.00,96.70
3935.00,96.71
3934.00,96.71
3933.00,96.71
3932.00,96.71
3931.00,96.70
3930.00,96.69
3929.00,96.69
3928.00,96.68
3927.00,96.68
3926.00,96.67
3925.00,96.67
3924.00,96.66
3923.00,96.65
3922.00,96.63
3921.00,96.63
3920.00,96.63
3919.00,96.63
3918.00,96.65
3917.00,96.66
3916.00,96.68
3915.00,96.68
3914.00,96.69
3913.00,96.69
3912.00,96.70
3911.00,96.72
3910.00,96.73
3909.00,96.74
3908.00,96.74
3907.00,96.73
3906.00,96.72
3905.00,96.71
3904.00,96.71
3903.00,96.70
3902.00,96.69
3901.00,96.69
3900.00,96.69
3899.00,96.70
3898.00,96.72
3897.00,96.73
3896.00,96.74
3895.00,96.73
3894.00,96.73
3893.00,96.72
3892.00,96.72
3891.00,96.72
3890.00,96.72
3889.00,96.69
3888.00,96.67
3887.00,96.65
3886.00,96.65
3885.00,96.67
3884.00,96.68
3883.00,96.69
3882.00,96.69
3881.00,96.68
3880.00,96.68
3879.00,96.68
3878.00,96.68
3877.00,96.68
3876.00,96.68
3875.00,96.68
3874.00,96.67
3873.00,96.66
3872.00,96.66
3871.00,96.67
3870.00,96.68
3869.00,96.68
3868.00,96.67
3867.00,96.65
3866.00,96.65
3865.00,96.65
3864.00,96.66
3863.00,96.65
3862.00,96.66
3861.00,96.67
3860.00,96.69
3859.00,96.70
3858.00,96.69
3857.00,96.68
3856.00,96.66
3855.00,96.64
3854.00,96.62
3853.00,96.59
3852.00,96.59
3851.00,96.61
3850.00,96.65
3849.00,96.67
3848.00,96.69
3847.00,96.69
3846.00,96.68
3845.00,96.68
3844.00,96.68
3843.00,96.67
3842.00,96.66
3841.00,96.65
3840.00,96.64
3839.00,96.64
3838.00,96.65
3837.00,96.65
3836.00,96.65
3835.00,96.65
3834.00,96.65
3833.00,96.66
3832.00,96.66
3831.00,96.67
3830.00,96.66
3829.00,96.66
3828.00,96.65
3827.00,96.64
3826.00,96.62
3825.00,96.61
3824.00,96.60
3823.00,96.59
3822.00,96.59
3821.00,96.58
3820.00,96.56
3819.00,96.53
3818.00,96.51
3817.00,96.50
3816.00,96.51
3815.00,96.52
3814.00,96.55
3813.00,96.57
3812.00,96.60
3811.00,96.62
3810.00,96.62
3809.00,96.60
3808.00,96.58
3807.00,96.56
3806.00,96.54
3805.00,96.53
3804.00,96.51
3803.00,96.51
3802.00,96.52
3801.00,96.53
3800.00,96.54
3799.00,96.55
3798.00,96.58
3797.00,96.61
3796.00,96.63
3795.00,96.63
3794.00,96.64
3793.00,96.65
3792.00,96.65
3791.00,96.65
3790.00,96.65
3789.00,96.64
3788.00,96.63
3787.00,96.61
3786.00,96.61
3785.00,96.62
3784.00,96.64
3783.00,96.65
3782.00,96.64
3781.00,96.61
3780.00,96.59
3779.00,96.57
3778.00,96.56
3777.00,96.56
3776.00,96.58
3775.00,96.60
3774.00,96.60
3773.00,96.60
3772.00,96.58
3771.00,96.56
3770.00,96.55
3769.00,96.54
3768.00,96.53
3767.00,96.51
3766.00,96.49
3765.00,96.47
3764.00,96.46
3763.00,96.46
3762.00,96.46
3761.00,96.47
3760.00,96.47
3759.00,96.48
3758.00,96.49
3757.00,96.52
3756.00,96.53
3755.00,96.52
3754.00,96.51
3753.00,96.50
3752.00,96.50
3751.00,96.50
3750.00,96.49
3749.00,96.47
3748.00,96.45
3747.00,96.44
3746.00,96.46
3745.00,96.51
3744.00,96.53
3743.00,96.52
3742.00,96.51
3741.00,96.51
3740.00,96.50
3739.00,96.49
3738.00,96.47
3737.00,96.45
3736.00,96.44
3735.00,96.44
3734.00,96.43
3733.00,96.42
3732.00,96.40
3731.00,96.36
3730.00,96.34
3729.00,96.34
3728.00,96.37
3727.00,96.40
3726.00,96.42
3725.00,96.43
3724.00,96.43
3723.00,96.43
3722.00,96.44
3721.00,96.45
3720.00,96.46
3719.00,96.47
3718.00,96.49
3717.00,96.50
3716.00,96.50
3715.00,96.51
3714.00,96.50
3713.00,96.48
3712.00,96.43
3711.00,96.38
3710.00,96.36
3709.00,96.35
3708.00,96.37
3707.00,96.39
3706.00,96.40
3705.00,96.40
3704.00,96.39
3703.00,96.38
3702.00,96.36
3701.00,96.35
3700.00,96.35
3699.00,96.36
3698.00,96.38
3697.00,96.39
3696.00,96.40
3695.00,96.40
3694.00,96.39
3693.00,96.38
3692.00,96.37
3691.00,96.37
3690.00,96.39
3689.00,96.41
3688.00,96.42
3687.00,96.41
3686.00,96.39
3685.00,96.38
3684.00,96.39
3683.00,96.40
3682.00,96.41
3681.00,96.41
3680.00,96.40
3679.00,96.37
3678.00,96.32
3677.00,96.27
3676.00,96.23
3675.00,96.22
3674.00,96.22
3673.00,96.23
3672.00,96.24
3671.00,96.26
3670.00,96.25
3669.00,96.24
3668.00,96.22
3667.00,96.19
3666.00,96.16
3665.00,96.13
3664.00,96.10
3663.00,96.08
3662.00,96.06
3661.00,96.05
3660.00,96.05
3659.00,96.04
3658.00,96.04
3657.00,96.03
3656.00,96.01
3655.00,95.99
3654.00,95.97
3653.00,95.94
3652.00,95.91
3651.00,95.87
3650.00,95.81
3649.00,95.76
3648.00,95.72
3647.00,95.71
3646.00,95.71
3645.00,95.70
3644.00,95.69
3643.00,95.68
3642.00,95.68
3641.00,95.68
3640.00,95.69
3639.00,95.70
3638.00,95.69
3637.00,95.68
3636.00,95.66
3635.00,95.65
3634.00,95.65
3633.00,95.66
3632.00,95.65
3631.00,95.61
3630.00,95.55
3629.00,95.47
3628.00,95.41
3627.00,95.39
3626.00,95.39
3625.00,95.41
3624.00,95.43
3623.00,95.46
3622.00,95.48
3621.00,95.50
3620.00,95.50
3619.00,95.48
3618.00,95.47
3617.00,95.45
3616.00,95.43
3615.00,95.40
3614.00,95.38
3613.00,95.37
3612.00,95.36
3611.00,95.34
3610.00,95.33
3609.00,95.31
3608.00,95.32
3607.00,95.33
3606.00,95.35
3605.00,95.35
3604.00,95.34
3603.00,95.32
3602.00,95.32
3601.00,95.32
3600.00,95.32
3599.00,95.32
3598.00,95.31
3597.00,95.31
3596.00,95.30
3595.00,95.30
3594.00,95.30
3593.00,95.28
3592.00,95.26
3591.00,95.24
3590.00,95.22
3589.00,95.22
3588.00,95.22
3587.00,95.22
3586.00,95.22
3585.00,95.21
3584.00,95.21
3583.00,95.21
3582.00,95.21
3581.00,95.20
3580.00,95.19
3579.00,95.17
3578.00,95.14
3577.00,95.12
3576.00,95.10
3575.00,95.10
3574.00,95.09
3573.00,95.09
3572.00,95.08
3571.00,95.07
3570.00,95.05
3569.00,95.01
3568.00,94.98
3567.00,94.94
3566.00,94.91
3565.00,94.90
3564.00,94.90
3563.00,94.90
3562.00,94.92
3561.00,94.93
3560.00,94.93
3559.00,94.92
3558.00,94.91
3557.00,94.89
3556.00,94.87
3555.00,94.86
3554.00,94.85
3553.00,94.85
3552.00,94.85
3551.00,94.84
3550.00,94.81
3549.00,94.77
3548.00,94.73
3547.00,94.69
3546.00,94.67
3545.00,94.66
3544.00,94.65
3543.00,94.64
3542.00,94.62
3541.00,94.61
3540.00,94.59
3539.00,94.58
3538.00,94.57
3537.00,94.57
3536.00,94.57
3535.00,94.58
3534.00,94.57
3533.00,94.55
3532.00,94.53
3531.00,94.52
3530.00,94.52
3529.00,94.52
3528.00,94.52
3527.00,94.49
3526.00,94.45
3525.00,94.42
3524.00,94.41
3523.00,94.41
3522.00,94.42
3521.00,94.42
3520.00,94.41
3519.00,94.37
3518.00,94.34
3517.00,94.31
3516.00,94.30
3515.00,94.30
3514.00,94.30
3513.00,94.29
3512.00,94.27
3511.00,94.24
3510.00,94.21
3509.00,94.18
3508.00,94.16
3507.00,94.14
3506.00,94.14
3505.00,94.14
3504.00,94.15
3503.00,94.16
3502.00,94.18
3501.00,94.19
3500.00,94.18
3499.00,94.17
3498.00,94.15
3497.00,94.13
3496.00,94.12
3495.00,94.11
3494.00,94.09
3493.00,94.06
3492.00,94.04
3491.00,94.03
3490.00,94.02
3489.00,94.01
3488.00,94.01
3487.00,94.01
3486.00,94.02
3485.00,94.02
3484.00,94.02
3483.00,94.01
3482.00,93.99
3481.00,93.98
3480.00,93.96
3479.00,93.95
3478.00,93.95
3477.00,93.94
3476.00,93.94
3475.00,93.93
3474.00,93.92
3473.00,93.91
3472.00,93.91
3471.00,93.92
3470.00,93.92
3469.00,93.92
3468.00,93.92
3467.00,93.92
3466.00,93.90
3465.00,93.88
3464.00,93.86
3463.00,93.86
3462.00,93.87
3461.00,93.89
3460.00,93.90
3459.00,93.91
3458.00,93.90
3457.00,93.87
3456.00,93.83
3455.00,93.81
3454.00,93.80
3453.00,93.80
3452.00,93.81
3451.00,93.81
3450.00,93.80
3449.00,93.79
3448.00,93.77
3447.00,93.74
3446.00,93.70
3445.00,93.65
3444.00,93.62
3443.00,93.60
3442.00,93.60
3441.00,93.61
3440.00,93.63
3439.00,93.64
3438.00,93.64
3437.00,93.61
3436.00,93.55
3435.00,93.49
3434.00,93.45
3433.00,93.45
3432.00,93.47
3431.00,93.49
3430.00,93.50
3429.00,93.48
3428.00,93.45
3427.00,93.43
3426.00,93.42
3425.00,93.42
3424.00,93.43
3423.00,93.42
3422.00,93.40
3421.00,93.36
3420.00,93.33
3419.00,93.31
3418.00,93.32
3417.00,93.35
3416.00,93.37
3415.00,93.39
3414.00,93.38
3413.00,93.36
3412.00,93.34
3411.00,93.33
3410.00,93.32
3409.00,93.30
3408.00,93.28
3407.00,93.26
3406.00,93.24
3405.00,93.22
3404.00,93.20
3403.00,93.20
3402.00,93.20
3401.00,93.20
3400.00,93.19
3399.00,93.18
3398.00,93.15
3397.00,93.13
3396.00,93.11
3395.00,93.09
3394.00,93.08
3393.00,93.07
3392.00,93.07
3391.00,93.07
3390.00,93.06
3389.00,93.05
3388.00,93.04
3387.00,93.04
3386.00,93.03
3385.00,93.02
3384.00,93.02
3383.00,93.01
3382.00,92.99
3381.00,92.97
3380.00,92.94
3379.00,92.90
3378.00,92.87
3377.00,92.83
3376.00,92.80
3375.00,92.78
3374.00,92.76
3373.00,92.76
3372.00,92.75
3371.00,92.75
3370.00,92.73
3369.00,92.69
3368.00,92.64
3367.00,92.60
3366.00,92.56
3365.00,92.53
3364.00,92.51
3363.00,92.49
3362.00,92.46
3361.00,92.42
3360.00,92.39
3359.00,92.36
3358.00,92.33
3357.00,92.29
3356.00,92.24
3355.00,92.20
3354.00,92.16
3353.00,92.11
3352.00,92.06
3351.00,92.01
3350.00,91.96
3349.00,91.92
3348.00,91.88
3347.00,91.85
3346.00,91.81
3345.00,91.76
3344.00,91.71
3343.00,91.66
3342.00,91.62
3341.00,91.60
3340.00,91.57
3339.00,91.54
3338.00,91.48
3337.00,91.42
3336.00,91.36
3335.00,91.32
3334.00,91.28
3333.00,91.25
3332.00,91.20
3331.00,91.15
3330.00,91.11
3329.00,91.07
3328.00,91.04
3327.00,91.00
3326.00,90.95
3325.00,90.90
3324.00,90.86
3323.00,90.82
3322.00,90.79
3321.00,90.77
3320.00,90.75
3319.00,90.73
3318.00,90.71
3317.00,90.69
3316.00,90.67
3315.00,90.65
3314.00,90.63
3313.00,90.60
3312.00,90.58
3311.00,90.56
3310.00,90.54
3309.00,90.52
3308.00,90.51
3307.00,90.50
3306.00,90.49
3305.00,90.48
3304.00,90.47
3303.00,90.47
3302.00,90.47
3301.00,90.47
3300.00,90.46
3299.00,90.44
3298.00,90.42
3297.00,90.41
3296.00,90.39
3295.00,90.38
3294.00,90.36
3293.00,90.35
3292.00,90.35
3291.00,90.35
3290.00,90.36
3289.00,90.37
3288.00,90.38
3287.00,90.39
3286.00,90.41
3285.00,90.42
3284.00,90.42
3283.00,90.41
3282.00,90.41
3281.00,90.41
3280.00,90.43
3279.00,90.44
3278.00,90.45
3277.00,90.45
3276.00,90.45
3275.00,90.45
3274.00,90.47
3273.00,90.49
3272.00,90.50
3271.00,90.51
3270.00,90.52
3269.00,90.53
3268.00,90.54
3267.00,90.55
3266.00,90.57
3265.00,90.60
3264.00,90.62
3263.00,90.64
3262.00,90.67
3261.00,90.69
3260.00,90.69
3259.00,90.69
3258.00,90.69
3257.00,90.69
3256.00,90.70
3255.00,90.72
3254.00,90.75
3253.00,90.79
3252.00,90.83
3251.00,90.88
3250.00,90.93
3249.00,90.96
3248.00,90.98
3247.00,90.99
3246.00,91.01
3245.00,91.04
3244.00,91.08
3243.00,91.11
3242.00,91.13
3241.00,91.12
3240.00,91.10
3239.00,91.10
3238.00,91.11
3237.00,91.15
3236.00,91.20
3235.00,91.23
3234.00,91.24
3233.00,91.25
3232.00,91.27
3231.00,91.30
3230.00,91.33
3229.00,91.35
3228.00,91.36
3227.00,91.35
3226.00,91.34
3225.00,91.35
3224.00,91.37
3223.00,91.39
3222.00,91.42
3221.00,91.42
3220.00,91.43
3219.00,91.44
3218.00,91.46
3217.00,91.49
3216.00,91.52
3215.00,91.54
3214.00,91.54
3213.00,91.55
3212.00,91.56
3211.00,91.57
3210.00,91.59
3209.00,91.60
3208.00,91.61
3207.00,91.63
3206.00,91.65
3205.00,91.67
3204.00,91.68
3203.00,91.70
3202.00,91.71
3201.00,91.73
3200.00,91.75
3199.00,91.77
3198.00,91.79
3197.00,91.83
3196.00,91.86
3195.00,91.88
3194.00,91.89
3193.00,91.89
3192.00,91.90
3191.00,91.92
3190.00,91.96
3189.00,91.98
3188.00,92.01
3187.00,92.05
3186.00,92.09
3185.00,92.13
3184.00,92.15
3183.00,92.17
3182.00,92.18
3181.00,92.20
3180.00,92.23
3179.00,92.26
3178.00,92.29
3177.00,92.32
3176.00,92.33
3175.00,92.33
3174.00,92.34
3173.00,92.35
3172.00,92.36
3171.00,92.38
3170.00,92.40
3169.00,92.41
3168.00,92.42
3167.00,92.43
3166.00,92.44
3165.00,92.45
3164.00,92.45
3163.00,92.46
3162.00,92.45
3161.00,92.45
3160.00,92.44
3159.00,92.43
3158.00,92.42
3157.00,92.42
3156.00,92.43
3155.00,92.44
3154.00,92.44
3153.00,92.44
3152.00,92.44
3151.00,92.43
3150.00,92.43
3149.00,92.43
3148.00,92.43
3147.00,92.43
3146.00,92.44
3145.00,92.44
3144.00,92.44
3143.00,92.43
3142.00,92.42
3141.00,92.43
3140.00,92.45
3139.00,92.47
3138.00,92.50
3137.00,92.53
3136.00,92.55
3135.00,92.58
3134.00,92.60
3133.00,92.63
3132.00,92.65
3131.00,92.67
3130.00,92.69
3129.00,92.70
3128.00,92.72
3127.00,92.73
3126.00,92.74
3125.00,92.74
3124.00,92.74
3123.00,92.74
3122.00,92.74
3121.00,92.74
3120.00,92.75
3119.00,92.76
3118.00,92.77
3117.00,92.78
3116.00,92.79
3115.00,92.80
3114.00,92.81
3113.00,92.81
3112.00,92.80
3111.00,92.80
3110.00,92.79
3109.00,92.77
3108.00,92.77
3107.00,92.77
3106.00,92.77
3105.00,92.76
3104.00,92.74
3103.00,92.71
3102.00,92.69
3101.00,92.68
3100.00,92.68
3099.00,92.67
3098.00,92.66
3097.00,92.65
3096.00,92.64
3095.00,92.64
3094.00,92.64
3093.00,92.63
3092.00,92.62
3091.00,92.60
3090.00,92.59
3089.00,92.58
3088.00,92.58
3087.00,92.58
3086.00,92.59
3085.00,92.58
3084.00,92.56
3083.00,92.53
3082.00,92.51
3081.00,92.50
3080.00,92.49
3079.00,92.49
3078.00,92.49
3077.00,92.48
3076.00,92.47
3075.00,92.47
3074.00,92.47
3073.00,92.47
3072.00,92.47
3071.00,92.47
3070.00,92.46
3069.00,92.45
3068.00,92.44
3067.00,92.44
3066.00,92.45
3065.00,92.46
3064.00,92.45
3063.00,92.43
3062.00,92.41
3061.00,92.39
3060.00,92.41
3059.00,92.44
3058.00,92.46
3057.00,92.49
3056.00,92.51
3055.00,92.54
3054.00,92.58
3053.00,92.60
3052.00,92.62
3051.00,92.63
3050.00,92.65
3049.00,92.67
3048.00,92.70
3047.00,92.72
3046.00,92.73
3045.00,92.73
3044.00,92.74
3043.00,92.76
3042.00,92.78
3041.00,92.79
3040.00,92.80
3039.00,92.80
3038.00,92.81
3037.00,92.82
3036.00,92.84
3035.00,92.84
3034.00,92.85
3033.00,92.85
3032.00,92.85
3031.00,92.87
3030.00,92.90
3029.00,92.93
3028.00,92.95
3027.00,92.96
3026.00,92.97
3025.00,92.97
3024.00,93.00
3023.00,93.04
3022.00,93.09
3021.00,93.12
3020.00,93.15
3019.00,93.16
3018.00,93.18
3017.00,93.21
3016.00,93.23
3015.00,93.24
3014.00,93.24
3013.00,93.24
3012.00,93.24
3011.00,93.26
3010.00,93.27
3009.00,93.28
3008.00,93.30
3007.00,93.32
3006.00,93.35
3005.00,93.39
3004.00,93.41
3003.00,93.42
3002.00,93.43
3001.00,93.45
3000.00,93.49
2999.00,93.52
2998.00,93.54
2997.00,93.55
2996.00,93.54
2995.00,93.53
2994.00,93.52
2993.00,93.53
2992.00,93.54
2991.00,93.57
2990.00,93.58
2989.00,93.59
2988.00,93.60
2987.00,93.60
2986.00,93.62
2985.00,93.65
2984.00,93.68
2983.00,93.70
2982.00,93.71
2981.00,93.72
2980.00,93.71
2979.00,93.71
2978.00,93.72
2977.00,93.75
2976.00,93.76
2975.00,93.76
2974.00,93.74
2973.00,93.72
2972.00,93.71
2971.00,93.71
2970.00,93.71
2969.00,93.72
2968.00,93.72
2967.00,93.71
2966.00,93.70
2965.00,93.68
2964.00,93.66
2963.00,93.65
2962.00,93.65
2961.00,93.65
2960.00,93.65
2959.00,93.64
2958.00,93.64
2957.00,93.65
2956.00,93.66
2955.00,93.69
2954.00,93.71
2953.00,93.72
2952.00,93.71
2951.00,93.69
2950.00,93.67
2949.00,93.66
2948.00,93.65
2947.00,93.65
2946.00,93.65
2945.00,93.65
2944.00,93.65
2943.00,93.66
2942.00,93.68
2941.00,93.70
2940.00,93.71
2939.00,93.72
2938.00,93.70
2937.00,93.68
2936.00,93.67
2935.00,93.65
2934.00,93.66
2933.00,93.68
2932.00,93.71
2931.00,93.73
2930.00,93.75
2929.00,93.76
2928.00,93.77
2927.00,93.77
2926.00,93.77
2925.00,93.77
2924.00,93.77
2923.00,93.78
2922.00,93.80
2921.00,93.83
2920.00,93.85
2919.00,93.86
2918.00,93.85
2917.00,93.85
2916.00,93.87
2915.00,93.89
2914.00,93.90
2913.00,93.89
2912.00,93.88
2911.00,93.87
2910.00,93.87
2909.00,93.88
2908.00,93.89
2907.00,93.90
2906.00,93.90
2905.00,93.90
2904.00,93.91
2903.00,93.91
2902.00,93.92
2901.00,93.94
2900.00,93.97
2899.00,93.99
2898.00,94.01
2897.00,94.02
2896.00,94.03
2895.00,94.03
2894.00,94.03
2893.00,94.02
2892.00,94.02
2891.00,94.02
2890.00,94.02
2889.00,94.03
2888.00,94.04
2887.00,94.04
2886.00,94.04
2885.00,94.03
2884.00,94.02
2883.00,94.02
2882.00,94.03
2881.00,94.04
2880.00,94.05
2879.00,94.06
2878.00,94.06
2877.00,94.06
2876.00,94.06
2875.00,94.07
2874.00,94.07
2873.00,94.07
2872.00,94.07
2871.00,94.06
2870.00,94.05
2869.00,94.04
2868.00,94.03
2867.00,94.03
2866.00,94.03
2865.00,94.02
2864.00,94.02
2863.00,94.02
2862.00,94.03
2861.00,94.04
2860.00,94.05
2859.00,94.06
2858.00,94.06
2857.00,94.06
2856.00,94.05
2855.00,94.04
2854.00,94.04
2853.00,94.05
2852.00,94.06
2851.00,94.08
2850.00,94.10
2849.00,94.12
2848.00,94.14
2847.00,94.15
2846.00,94.17
2845.00,94.18
2844.00,94.20
2843.00,94.21
2842.00,94.21
2841.00,94.20
2840.00,94.20
2839.00,94.20
2838.00,94.20
2837.00,94.21
2836.00,94.21
2835.00,94.22
2834.00,94.22
2833.00,94.22
2832.00,94.23
2831.00,94.24
2830.00,94.25
2829.00,94.26
2828.00,94.28
2827.00,94.29
2826.00,94.29
2825.00,94.28
2824.00,94.27
2823.00,94.26
2822.00,94.26
2821.00,94.26
2820.00,94.26
2819.00,94.27
2818.00,94.28
2817.00,94.27
2816.00,94.27
2815.00,94.28
2814.00,94.29
2813.00,94.30
2812.00,94.31
2811.00,94.32
2810.00,94.32
2809.00,94.32
2808.00,94.32
2807.00,94.32
2806.00,94.32
2805.00,94.32
2804.00,94.33
2803.00,94.34
2802.00,94.34
2801.00,94.33
2800.00,94.31
2799.00,94.29
2798.00,94.28
2797.00,94.28
2796.00,94.30
2795.00,94.31
2794.00,94.31
2793.00,94.30
2792.00,94.30
2791.00,94.30
2790.00,94.30
2789.00,94.30
2788.00,94.31
2787.00,94.31
2786.00,94.33
2785.00,94.34
2784.00,94.35
2783.00,94.34
2782.00,94.33
2781.00,94.32
2780.00,94.32
2779.00,94.33
2778.00,94.35
2777.00,94.36
2776.00,94.36
2775.00,94.37
2774.00,94.38
2773.00,94.39
2772.00,94.39
2771.00,94.40
2770.00,94.40
2769.00,94.41
2768.00,94.42
2767.00,94.42
2766.00,94.42
2765.00,94.43
2764.00,94.44
2763.00,94.46
2762.00,94.48
2761.00,94.50
2760.00,94.50
2759.00,94.51
2758.00,94.50
2757.00,94.51
2756.00,94.52
2755.00,94.53
2754.00,94.54
2753.00,94.55
2752.00,94.55
2751.00,94.55
2750.00,94.55
2749.00,94.55
2748.00,94.55
2747.00,94.55
2746.00,94.54
2745.00,94.53
2744.00,94.51
2743.00,94.49
2742.00,94.48
2741.00,94.48
2740.00,94.48
2739.00,94.50
2738.00,94.53
2737.00,94.55
2736.00,94.56
2735.00,94.56
2734.00,94.54
2733.00,94.52
2732.00,94.51
2731.00,94.52
2730.00,94.53
2729.00,94.55
2728.00,94.57
2727.00,94.57
2726.00,94.57
2725.00,94.56
2724.00,94.55
2723.00,94.55
2722.00,94.55
2721.00,94.55
2720.00,94.56
2719.00,94.56
2718.00,94.57
2717.00,94.58
2716.00,94.58
2715.00,94.59
2714.00,94.59
2713.00,94.59
2712.00,94.59
2711.00,94.60
2710.00,94.61
2709.00,94.62
2708.00,94.63
2707.00,94.63
2706.00,94.63
2705.00,94.63
2704.00,94.63
2703.00,94.64
2702.00,94.65
2701.00,94.66
2700.00,94.65
2699.00,94.63
2698.00,94.62
2697.00,94.61
2696.00,94.61
2695.00,94.62
2694.00,94.63
2693.00,94.65
2692.00,94.65
2691.00,94.65
2690.00,94.63
2689.00,94.62
2688.00,94.61
2687.00,94.60
2686.00,94.59
2685.00,94.59
2684.00,94.60
2683.00,94.60
2682.00,94.61
2681.00,94.62
2680.00,94.62
2679.00,94.61
2678.00,94.59
2677.00,94.58
2676.00,94.57
2675.00,94.57
2674.00,94.57
2673.00,94.57
2672.00,94.57
2671.00,94.57
2670.00,94.57
2669.00,94.57
2668.00,94.58
2667.00,94.59
2666.00,94.60
2665.00,94.60
2664.00,94.59
2663.00,94.57
2662.00,94.55
2661.00,94.53
2660.00,94.52
2659.00,94.52
2658.00,94.52
2657.00,94.52
2656.00,94.51
2655.00,94.51
2654.00,94.50
2653.00,94.49
2652.00,94.48
2651.00,94.47
2650.00,94.45
2649.00,94.42
2648.00,94.41
2647.00,94.40
2646.00,94.41
2645.00,94.41
2644.00,94.41
2643.00,94.40
2642.00,94.40
2641.00,94.39
2640.00,94.38
2639.00,94.37
2638.00,94.36
2637.00,94.35
2636.00,94.34
2635.00,94.32
2634.00,94.30
2633.00,94.29
2632.00,94.28
2631.00,94.28
2630.00,94.29
2629.00,94.31
2628.00,94.33
2627.00,94.33
2626.00,94.32
2625.00,94.29
2624.00,94.27
2623.00,94.26
2622.00,94.26
2621.00,94.26
2620.00,94.26
2619.00,94.25
2618.00,94.24
2617.00,94.23
2616.00,94.22
2615.00,94.21
2614.00,94.20
2613.00,94.19
2612.00,94.19
2611.00,94.18
2610.00,94.17
2609.00,94.15
2608.00,94.15
2607.00,94.15
2606.00,94.15
2605.00,94.13
2604.00,94.11
2603.00,94.10
2602.00,94.09
2601.00,94.09
2600.00,94.08
2599.00,94.06
2598.00,94.04
2597.00,94.01
2596.00,93.98
2595.00,93.98
2594.00,93.99
2593.00,94.01
2592.00,94.02
2591.00,94.00
2590.00,93.98
2589.00,93.96
2588.00,93.95
2587.00,93.95
2586.00,93.95
2585.00,93.95
2584.00,93.95
2583.00,93.94
2582.00,93.92
2581.00,93.90
2580.00,93.89
2579.00,93.91
2578.00,93.93
2577.00,93.95
2576.00,93.96
2575.00,93.96
2574.00,93.95
2573.00,93.94
2572.00,93.94
2571.00,93.93
2570.00,93.93
2569.00,93.93
2568.00,93.93
2567.00,93.93
2566.00,93.94
2565.00,93.94
2564.00,93.95
2563.00,93.94
2562.00,93.93
2561.00,93.91
2560.00,93.88
2559.00,93.86
2558.00,93.84
2557.00,93.83
2556.00,93.83
2555.00,93.83
2554.00,93.83
2553.00,93.85
2552.00,93.87
2551.00,93.88
2550.00,93.88
2549.00,93.87
2548.00,93.87
2547.00,93.87
2546.00,93.86
2545.00,93.85
2544.00,93.86
2543.00,93.87
2542.00,93.90
2541.00,93.92
2540.00,93.93
2539.00,93.92
2538.00,93.89
2537.00,93.85
2536.00,93.84
2535.00,93.84
2534.00,93.86
2533.00,93.86
2532.00,93.86
2531.00,93.86
2530.00,93.85
2529.00,93.84
2528.00,93.83
2527.00,93.84
2526.00,93.84
2525.00,93.85
2524.00,93.85
2523.00,93.85
2522.00,93.87
2521.00,93.88
2520.00,93.90
2519.00,93.91
2518.00,93.91
2517.00,93.90
2516.00,93.88
2515.00,93.87
2514.00,93.87
2513.00,93.87
2512.00,93.86
2511.00,93.86
2510.00,93.86
2509.00,93.85
2508.00,93.84
2507.00,93.85
2506.00,93.86
2505.00,93.88
2504.00,93.89
2503.00,93.91
2502.00,93.92
2501.00,93.93
2500.00,93.92
2499.00,93.91
2498.00,93.88
2497.00,93.86
2496.00,93.86
2495.00,93.86
2494.00,93.86
2493.00,93.86
2492.00,93.85
2491.00,93.84
2490.00,93.83
2489.00,93.84
2488.00,93.86
2487.00,93.87
2486.00,93.88
2485.00,93.87
2484.00,93.87
2483.00,93.87
2482.00,93.88
2481.00,93.91
2480.00,93.94
2479.00,93.94
2478.00,93.93
2477.00,93.89
2476.00,93.86
2475.00,93.86
2474.00,93.87
2473.00,93.89
2472.00,93.89
2471.00,93.87
2470.00,93.85
2469.00,93.83
2468.00,93.82
2467.00,93.83
2466.00,93.84
2465.00,93.87
2464.00,93.91
2463.00,93.93
2462.00,93.93
2461.00,93.90
2460.00,93.87
2459.00,93.85
2458.00,93.84
2457.00,93.84
2456.00,93.84
2455.00,93.84
2454.00,93.82
2453.00,93.80
2452.00,93.79
2451.00,93.80
2450.00,93.83
2449.00,93.87
2448.00,93.90
2447.00,93.92
2446.00,93.93
2445.00,93.92
2444.00,93.91
2443.00,93.90
2442.00,93.89
2441.00,93.90
2440.00,93.90
2439.00,93.91
2438.00,93.90
2437.00,93.89
2436.00,93.88
2435.00,93.88
2434.00,93.89
2433.00,93.90
2432.00,93.90
2431.00,93.91
2430.00,93.91
2429.00,93.92
2428.00,93.92
2427.00,93.91
2426.00,93.90
2425.00,93.89
2424.00,93.89
2423.00,93.89
2422.00,93.92
2421.00,93.95
2420.00,93.99
2419.00,94.01
2418.00,94.00
2417.00,93.98
2416.00,93.94
2415.00,93.90
2414.00,93.89
2413.00,93.90
2412.00,93.93
2411.00,93.96
2410.00,93.98
2409.00,93.98
2408.00,93.98
2407.00,93.98
2406.00,93.97
2405.00,93.96
2404.00,93.97
2403.00,94.00
2402.00,94.03
2401.00,94.05
2400.00,94.06
2399.00,94.06
2398.00,94.06
2397.00,94.08
2396.00,94.10
2395.00,94.13
2394.00,94.16
2393.00,94.18
2392.00,94.19
2391.00,94.19
2390.00,94.17
2389.00,94.15
2388.00,94.14
2387.00,94.14
2386.00,94.17
2385.00,94.21
2384.00,94.25
2383.00,94.28
2382.00,94.31
2381.00,94.32
2380.00,94.33
2379.00,94.35
2378.00,94.37
2377.00,94.39
2376.00,94.39
2375.00,94.38
2374.00,94.35
2373.00,94.34
2372.00,94.36
2371.00,94.39
2370.00,94.41
2369.00,94.41
2368.00,94.41
2367.00,94.42
2366.00,94.42
2365.00,94.41
2364.00,94.41
2363.00,94.42
2362.00,94.44
2361.00,94.45
2360.00,94.46
2359.00,94.49
2358.00,94.50
2357.00,94.49
2356.00,94.46
2355.00,94.42
2354.00,94.41
2353.00,94.40
2352.00,94.42
2351.00,94.44
2350.00,94.46
2349.00,94.47
2348.00,94.46
2347.00,94.46
2346.00,94.47
2345.00,94.49
2344.00,94.51
2343.00,94.51
2342.00,94.50
2341.00,94.47
2340.00,94.44
2339.00,94.43
2338.00,94.43
2337.00,94.45
2336.00,94.46
2335.00,94.45
2334.00,94.40
2333.00,94.35
2332.00,94.34
2331.00,94.36
2330.00,94.38
2329.00,94.37
2328.00,94.34
2327.00,94.30
2326.00,94.26
2325.00,94.22
2324.00,94.19
2323.00,94.21
2322.00,94.27
2321.00,94.34
2320.00,94.36
2319.00,94.34
2318.00,94.28
2317.00,94.23
2316.00,94.19
2315.00,94.16
2314.00,94.16
2313.00,94.16
2312.00,94.16
2311.00,94.15
2310.00,94.13
2309.00,94.11
2308.00,94.10
2307.00,94.09
2306.00,94.07
2305.00,94.03
2304.00,93.99
2303.00,93.95
2302.00,93.93
2301.00,93.95
2300.00,93.98
2299.00,93.98
2298.00,93.96
2297.00,93.93
2296.00,93.89
2295.00,93.87
2294.00,93.84
2293.00,93.81
2292.00,93.77
2291.00,93.72
2290.00,93.66
2289.00,93.62
2288.00,93.59
2287.00,93.56
2286.00,93.53
2285.00,93.50
2284.00,93.48
2283.00,93.46
2282.00,93.45
2281.00,93.45
2280.00,93.46
2279.00,93.47
2278.00,93.46
2277.00,93.44
2276.00,93.42
2275.00,93.41
2274.00,93.39
2273.00,93.37
2272.00,93.37
2271.00,93.36
2270.00,93.34
2269.00,93.30
2268.00,93.25
2267.00,93.22
2266.00,93.21
2265.00,93.22
2264.00,93.22
2263.00,93.20
2262.00,93.17
2261.00,93.15
2260.00,93.16
2259.00,93.18
2258.00,93.19
2257.00,93.18
2256.00,93.16
2255.00,93.13
2254.00,93.10
2253.00,93.08
2252.00,93.06
2251.00,93.04
2250.00,93.02
2249.00,93.01
2248.00,93.00
2247.00,93.00
2246.00,92.98
2245.00,92.95
2244.00,92.91
2243.00,92.89
2242.00,92.87
2241.00,92.88
2240.00,92.91
2239.00,92.95
2238.00,92.96
2237.00,92.95
2236.00,92.92
2235.00,92.89
2234.00,92.87
2233.00,92.83
2232.00,92.80
2231.00,92.80
2230.00,92.83
2229.00,92.87
2228.00,92.90
2227.00,92.93
2226.00,92.94
2225.00,92.90
2224.00,92.81
2223.00,92.67
2222.00,92.54
2221.00,92.46
2220.00,92.45
2219.00,92.49
2218.00,92.53
2217.00,92.55
2216.00,92.54
2215.00,92.50
2214.00,92.45
2213.00,92.42
2212.00,92.43
2211.00,92.50
2210.00,92.58
2209.00,92.62
2208.00,92.58
2207.00,92.50
2206.00,92.41
2205.00,92.35
2204.00,92.35
2203.00,92.39
2202.00,92.44
2201.00,92.46
2200.00,92.46
2199.00,92.44
2198.00,92.43
2197.00,92.41
2196.00,92.39
2195.00,92.37
2194.00,92.36
2193.00,92.33
2192.00,92.28
2191.00,92.20
2190.00,92.11
2189.00,92.04
2188.00,92.03
2187.00,92.04
2186.00,92.06
2185.00,92.07
2184.00,92.09
2183.00,92.12
2182.00,92.14
2181.00,92.13
2180.00,92.09
2179.00,92.06
2178.00,92.06
2177.00,92.09
2176.00,92.14
2175.00,92.17
2174.00,92.15
2173.00,92.12
2172.00,92.11
2171.00,92.12
2170.00,92.12
2169.00,92.05
2168.00,91.91
2167.00,91.75
2166.00,91.63
2165.00,91.58
2164.00,91.56
2163.00,91.53
2162.00,91.46
2161.00,91.42
2160.00,91.49
2159.00,91.68
2158.00,91.90
2157.00,92.09
2156.00,92.20
2155.00,92.25
2154.00,92.27
2153.00,92.28
2152.00,92.28
2151.00,92.28
2150.00,92.28
2149.00,92.32
2148.00,92.40
2147.00,92.50
2146.00,92.59
2145.00,92.64
2144.00,92.64
2143.00,92.62
2142.00,92.61
2141.00,92.64
2140.00,92.72
2139.00,92.82
2138.00,92.91
2137.00,92.98
2136.00,93.04
2135.00,93.10
2134.00,93.15
2133.00,93.19
2132.00,93.24
2131.00,93.30
2130.00,93.34
2129.00,93.36
2128.00,93.36
2127.00,93.33
2126.00,93.31
2125.00,93.29
2124.00,93.28
2123.00,93.29
2122.00,93.30
2121.00,93.31
2120.00,93.32
2119.00,93.33
2118.00,93.35
2117.00,93.34
2116.00,93.33
2115.00,93.32
2114.00,93.31
2113.00,93.32
2112.00,93.33
2111.00,93.35
2110.00,93.36
2109.00,93.36
2108.00,93.33
2107.00,93.30
2106.00,93.28
2105.00,93.28
2104.00,93.29
2103.00,93.28
2102.00,93.26
2101.00,93.24
2100.00,93.23
2099.00,93.23
2098.00,93.24
2097.00,93.25
2096.00,93.27
2095.00,93.30
2094.00,93.33
2093.00,93.35
2092.00,93.35
2091.00,93.33
2090.00,93.32
2089.00,93.32
2088.00,93.32
2087.00,93.30
2086.00,93.28
2085.00,93.26
2084.00,93.26
2083.00,93.27
2082.00,93.29
2081.00,93.30
2080.00,93.31
2079.00,93.30
2078.00,93.26
2077.00,93.20
2076.00,93.16
2075.00,93.15
2074.00,93.17
2073.00,93.18
2072.00,93.16
2071.00,93.12
2070.00,93.08
2069.00,93.06
2068.00,93.06
2067.00,93.06
2066.00,93.03
2065.00,92.99
2064.00,92.98
2063.00,93.00
2062.00,93.03
2061.00,93.05
2060.00,93.07
2059.00,93.08
2058.00,93.07
2057.00,93.04
2056.00,93.00
2055.00,92.97
2054.00,92.94
2053.00,92.89
2052.00,92.81
2051.00,92.70
2050.00,92.59
2049.00,92.51
2048.00,92.48
2047.00,92.47
2046.00,92.47
2045.00,92.49
2044.00,92.53
2043.00,92.56
2042.00,92.56
2041.00,92.51
2040.00,92.46
2039.00,92.42
2038.00,92.41
2037.00,92.40
2036.00,92.37
2035.00,92.32
2034.00,92.24
2033.00,92.19
2032.00,92.18
2031.00,92.22
2030.00,92.26
2029.00,92.29
2028.00,92.33
2027.00,92.39
2026.00,92.45
2025.00,92.51
2024.00,92.54
2023.00,92.54
2022.00,92.49
2021.00,92.43
2020.00,92.40
2019.00,92.41
2018.00,92.42
2017.00,92.42
2016.00,92.40
2015.00,92.38
2014.00,92.37
2013.00,92.36
2012.00,92.37
2011.00,92.39
2010.00,92.43
2009.00,92.47
2008.00,92.54
2007.00,92.63
2006.00,92.72
2005.00,92.78
2004.00,92.80
2003.00,92.79
2002.00,92.78
2001.00,92.77
2000.00,92.79
1999.00,92.79
1998.00,92.78
1997.00,92.76
1996.00,92.74
1995.00,92.74
1994.00,92.73
1993.00,92.69
1992.00,92.67
1991.00,92.67
1990.00,92.68
1989.00,92.68
1988.00,92.69
1987.00,92.71
1986.00,92.71
1985.00,92.69
1984.00,92.63
1983.00,92.54
1982.00,92.43
1981.00,92.31
1980.00,92.25
1979.00,92.27
1978.00,92.36
1977.00,92.44
1976.00,92.48
1975.00,92.48
1974.00,92.48
1973.00,92.50
1972.00,92.57
1971.00,92.66
1970.00,92.76
1969.00,92.82
1968.00,92.82
1967.00,92.79
1966.00,92.77
1965.00,92.78
1964.00,92.82
1963.00,92.87
1962.00,92.91
1961.00,92.95
1960.00,92.99
1959.00,93.04
1958.00,93.10
1957.00,93.17
1956.00,93.23
1955.00,93.30
1954.00,93.35
1953.00,93.37
1952.00,93.39
1951.00,93.41
1950.00,93.41
1949.00,93.40
1948.00,93.40
1947.00,93.43
1946.00,93.49
1945.00,93.56
1944.00,93.62
1943.00,93.67
1942.00,93.70
1941.00,93.71
1940.00,93.71
1939.00,93.70
1938.00,93.69
1937.00,93.69
1936.00,93.71
1935.00,93.75
1934.00,93.80
1933.00,93.82
1932.00,93.83
1931.00,93.84
1930.00,93.85
1929.00,93.87
1928.00,93.88
1927.00,93.90
1926.00,93.92
1925.00,93.94
1924.00,93.96
1923.00,94.00
1922.00,94.04
1921.00,94.08
1920.00,94.11
1919.00,94.13
1918.00,94.13
1917.00,94.12
1916.00,94.13
1915.00,94.17
1914.00,94.21
1913.00,94.24
1912.00,94.27
1911.00,94.30
1910.00,94.32
1909.00,94.34
1908.00,94.35
1907.00,94.37
1906.00,94.39
1905.00,94.39
1904.00,94.40
1903.00,94.40
1902.00,94.40
1901.00,94.39
1900.00,94.40
1899.00,94.43
1898.00,94.47
1897.00,94.51
1896.00,94.54
1895.00,94.56
1894.00,94.57
1893.00,94.58
1892.00,94.58
1891.00,94.58
1890.00,94.57
1889.00,94.56
1888.00,94.57
1887.00,94.61
1886.00,94.66
1885.00,94.70
1884.00,94.72
1883.00,94.73
1882.00,94.73
1881.00,94.74
1880.00,94.76
1879.00,94.78
1878.00,94.80
1877.00,94.80
1876.00,94.78
1875.00,94.77
1874.00,94.77
1873.00,94.79
1872.00,94.81
1871.00,94.83
1870.00,94.85
1869.00,94.85
1868.00,94.84
1867.00,94.85
1866.00,94.86
1865.00,94.87
1864.00,94.87
1863.00,94.86
1862.00,94.85
1861.00,94.85
1860.00,94.86
1859.00,94.89
1858.00,94.93
1857.00,94.97
1856.00,95.02
1855.00,95.06
1854.00,95.07
1853.00,95.05
1852.00,95.03
1851.00,95.01
1850.00,95.01
1849.00,95.03
1848.00,95.06
1847.00,95.09
1846.00,95.11
1845.00,95.11
1844.00,95.12
1843.00,95.14
1842.00,95.16
1841.00,95.18
1840.00,95.20
1839.00,95.22
1838.00,95.23
1837.00,95.23
1836.00,95.24
1835.00,95.27
1834.00,95.30
1833.00,95.33
1832.00,95.35
1831.00,95.36
1830.00,95.37
1829.00,95.37
1828.00,95.38
1827.00,95.40
1826.00,95.41
1825.00,95.41
1824.00,95.41
1823.00,95.43
1822.00,95.46
1821.00,95.47
1820.00,95.48
1819.00,95.50
1818.00,95.51
1817.00,95.53
1816.00,95.56
1815.00,95.59
1814.00,95.62
1813.00,95.65
1812.00,95.66
1811.00,95.68
1810.00,95.70
1809.00,95.71
1808.00,95.72
1807.00,95.73
1806.00,95.74
1805.00,95.76
1804.00,95.78
1803.00,95.80
1802.00,95.82
1801.00,95.83
1800.00,95.84
1799.00,95.85
1798.00,95.86
1797.00,95.89
1796.00,95.91
1795.00,95.94
1794.00,95.97
1793.00,95.98
1792.00,95.98
1791.00,95.97
1790.00,95.97
1789.00,95.97
1788.00,95.99
1787.00,96.02
1786.00,96.05
1785.00,96.06
1784.00,96.06
1783.00,96.05
1782.00,96.04
1781.00,96.03
1780.00,96.03
1779.00,96.03
1778.00,96.05
1777.00,96.06
1776.00,96.08
1775.00,96.10
1774.00,96.10
1773.00,96.08
1772.00,96.05
1771.00,96.04
1770.00,96.05
1769.00,96.07
1768.00,96.09
1767.00,96.10
1766.00,96.12
1765.00,96.13
1764.00,96.15
1763.00,96.18
1762.00,96.20
1761.00,96.21
1760.00,96.23
1759.00,96.24
1758.00,96.26
1757.00,96.25
1756.00,96.24
1755.00,96.24
1754.00,96.25
1753.00,96.26
1752.00,96.26
1751.00,96.27
1750.00,96.28
1749.00,96.28
1748.00,96.27
1747.00,96.28
1746.00,96.29
1745.00,96.31
1744.00,96.33
1743.00,96.34
1742.00,96.35
1741.00,96.35
1740.00,96.36
1739.00,96.37
1738.00,96.39
1737.00,96.40
1736.00,96.40
1735.00,96.41
1734.00,96.44
1733.00,96.48
1732.00,96.54
1731.00,96.60
1730.00,96.66
1729.00,96.70
1728.00,96.72
1727.00,96.74
1726.00,96.75
1725.00,96.75
1724.00,96.76
1723.00,96.78
1722.00,96.79
1721.00,96.80
1720.00,96.80
1719.00,96.81
1718.00,96.84
1717.00,96.86
1716.00,96.87
1715.00,96.87
1714.00,96.88
1713.00,96.88
1712.00,96.90
1711.00,96.92
1710.00,96.93
1709.00,96.93
1708.00,96.92
1707.00,96.91
1706.00,96.89
1705.00,96.86
1704.00,96.82
1703.00,96.78
1702.00,96.73
1701.00,96.62
1700.00,96.47
1699.00,96.37
1698.00,96.28
1697.00,96.15
1696.00,95.93
1695.00,95.70
1694.00,95.51
1693.00,95.32
1692.00,95.11
1691.00,94.85
1690.00,94.55
1689.00,94.23
1688.00,93.91
1687.00,93.61
1686.00,93.29
1685.00,92.85
1684.00,92.33
1683.00,91.90
1682.00,91.58
1681.00,91.28
1680.00,90.95
1679.00,90.63
1678.00,90.33
1677.00,90.00
1676.00,89.60
1675.00,89.17
1674.00,88.80
1673.00,88.50
1672.00,88.22
1671.00,87.90
1670.00,87.51
1669.00,87.09
1668.00,86.69
1667.00,86.37
1666.00,86.08
1665.00,85.77
1664.00,85.40
1663.00,84.98
1662.00,84.57
1661.00,84.21
1660.00,83.86
1659.00,83.51
1658.00,83.15
1657.00,82.81
1656.00,82.47
1655.00,82.07
1654.00,81.50
1653.00,80.79
1652.00,80.28
1651.00,80.07
1650.00,79.95
1649.00,79.79
1648.00,79.57
1647.00,79.37
1646.00,79.28
1645.00,79.30
1644.00,79.37
1643.00,79.50
1642.00,79.68
1641.00,79.91
1640.00,80.17
1639.00,80.46
1638.00,80.78
1637.00,81.18
1636.00,81.70
1635.00,82.30
1634.00,82.86
1633.00,83.33
1632.00,83.78
1631.00,84.23
1630.00,84.69
1629.00,85.15
1628.00,85.60
1627.00,86.00
1626.00,86.33
1625.00,86.58
1624.00,86.79
1623.00,86.93
1622.00,86.99
1621.00,86.96
1620.00,86.83
1619.00,86.60
1618.00,86.19
1617.00,85.59
1616.00,84.91
1615.00,84.29
1614.00,83.72
1613.00,83.10
1612.00,82.41
1611.00,81.68
1610.00,80.97
1609.00,80.30
1608.00,79.68
1607.00,79.15
1606.00,78.74
1605.00,78.43
1604.00,78.22
1603.00,78.12
1602.00,78.15
1601.00,78.32
1600.00,78.60
1599.00,79.00
1598.00,79.50
1597.00,80.08
1596.00,80.72
1595.00,81.39
1594.00,82.08
1593.00,82.75
1592.00,83.38
1591.00,83.95
1590.00,84.45
1589.00,84.87
1588.00,85.20
1587.00,85.46
1586.00,85.67
1585.00,85.82
1584.00,85.95
1583.00,86.08
1582.00,86.24
1581.00,86.44
1580.00,86.68
1579.00,86.94
1578.00,87.24
1577.00,87.61
1576.00,88.02
1575.00,88.39
1574.00,88.66
1573.00,88.86
1572.00,89.02
1571.00,89.14
1570.00,89.19
1569.00,89.19
1568.00,89.15
1567.00,89.07
1566.00,88.91
1565.00,88.68
1564.00,88.43
1563.00,88.20
1562.00,87.95
1561.00,87.66
1560.00,87.20
1559.00,86.53
1558.00,85.92
1557.00,85.51
1556.00,85.19
1555.00,84.83
1554.00,84.41
1553.00,83.99
1552.00,83.60
1551.00,83.19
1550.00,82.73
1549.00,82.26
1548.00,81.84
1547.00,81.46
1546.00,81.06
1545.00,80.63
1544.00,80.20
1543.00,79.81
1542.00,79.37
1541.00,78.83
1540.00,78.23
1539.00,77.73
1538.00,77.41
1537.00,77.19
1536.00,76.98
1535.00,76.70
1534.00,76.31
1533.00,75.91
1532.00,75.61
1531.00,75.41
1530.00,75.26
1529.00,75.12
1528.00,74.99
1527.00,74.89
1526.00,74.83
1525.00,74.82
1524.00,74.87
1523.00,74.97
1522.00,75.14
1521.00,75.36
1520.00,75.63
1519.00,75.91
1518.00,76.23
1517.00,76.58
1516.00,76.96
1515.00,77.33
1514.00,77.71
1513.00,78.13
1512.00,78.57
1511.00,79.02
1510.00,79.45
1509.00,79.88
1508.00,80.35
1507.00,80.94
1506.00,81.58
1505.00,82.12
1504.00,82.56
1503.00,82.96
1502.00,83.33
1501.00,83.67
1500.00,83.94
1499.00,84.10
1498.00,84.11
1497.00,83.91
1496.00,83.50
1495.00,83.00
1494.00,82.46
1493.00,81.87
1492.00,81.16
1491.00,80.33
1490.00,79.44
1489.00,78.63
1488.00,77.95
1487.00,77.39
1486.00,76.96
1485.00,76.64
1484.00,76.42
1483.00,76.26
1482.00,76.15
1481.00,76.07
1480.00,76.02
1479.00,75.96
1478.00,75.90
1477.00,75.82
1476.00,75.77
1475.00,75.76
1474.00,75.83
1473.00,76.02
1472.00,76.31
1471.00,76.66
1470.00,77.05
1469.00,77.46
1468.00,77.90
1467.00,78.35
1466.00,78.85
1465.00,79.39
1464.00,79.92
1463.00,80.39
1462.00,80.82
1461.00,81.21
1460.00,81.57
1459.00,81.92
1458.00,82.28
1457.00,82.66
1456.00,82.97
1455.00,83.17
1454.00,83.30
1453.00,83.36
1452.00,83.37
1451.00,83.31
1450.00,83.21
1449.00,83.05
1448.00,82.83
1447.00,82.61
1446.00,82.40
1445.00,82.22
1444.00,82.05
1443.00,81.89
1442.00,81.75
1441.00,81.62
1440.00,81.49
1439.00,81.35
1438.00,81.17
1437.00,80.93
1436.00,80.65
1435.00,80.39
1434.00,80.17
1433.00,79.96
1432.00,79.77
1431.00,79.61
1430.00,79.52
1429.00,79.49
1428.00,79.51
1427.00,79.56
1426.00,79.63
1425.00,79.67
1424.00,79.68
1423.00,79.67
1422.00,79.63
1421.00,79.53
1420.00,79.32
1419.00,79.00
1418.00,78.64
1417.00,78.28
1416.00,77.91
1415.00,77.53
1414.00,77.16
1413.00,76.80
1412.00,76.47
1411.00,76.23
1410.00,76.09
1409.00,76.04
1408.00,76.07
1407.00,76.18
1406.00,76.37
1405.00,76.62
1404.00,76.92
1403.00,77.25
1402.00,77.61
1401.00,77.98
1400.00,78.38
1399.00,78.82
1398.00,79.25
1397.00,79.65
1396.00,80.03
1395.00,80.41
1394.00,80.77
1393.00,81.11
1392.00,81.42
1391.00,81.71
1390.00,82.01
1389.00,82.29
1388.00,82.56
1387.00,82.81
1386.00,83.04
1385.00,83.25
1384.00,83.44
1383.00,83.62
1382.00,83.79
1381.00,83.95
1380.00,84.11
1379.00,84.26
1378.00,84.40
1377.00,84.54
1376.00,84.67
1375.00,84.80
1374.00,84.92
1373.00,85.04
1372.00,85.16
1371.00,85.27
1370.00,85.39
1369.00,85.50
1368.00,85.61
1367.00,85.72
1366.00,85.83
1365.00,85.94
1364.00,86.05
1363.00,86.15
1362.00,86.25
1361.00,86.33
1360.00,86.40
1359.00,86.46
1358.00,86.54
1357.00,86.61
1356.00,86.68
1355.00,86.72
1354.00,86.74
1353.00,86.75
1352.00,86.73
1351.00,86.69
1350.00,86.61
1349.00,86.52
1348.00,86.40
1347.00,86.27
1346.00,86.12
1345.00,85.95
1344.00,85.75
1343.00,85.56
1342.00,85.36
1341.00,85.14
1340.00,84.90
1339.00,84.64
1338.00,84.39
1337.00,84.15
1336.00,83.90
1335.00,83.67
1334.00,83.45
1333.00,83.27
1332.00,83.09
1331.00,82.91
1330.00,82.74
1329.00,82.59
1328.00,82.45
1327.00,82.34
1326.00,82.25
1325.00,82.18
1324.00,82.12
1323.00,82.06
1322.00,82.01
1321.00,81.98
1320.00,81.96
1319.00,81.95
1318.00,81.94
1317.00,81.92
1316.00,81.88
1315.00,81.81
1314.00,81.71
1313.00,81.57
1312.00,81.40
1311.00,81.21
1310.00,81.00
1309.00,80.79
1308.00,80.57
1307.00,80.36
1306.00,80.17
1305.00,80.00
1304.00,79.85
1303.00,79.72
1302.00,79.60
1301.00,79.48
1300.00,79.37
1299.00,79.28
1298.00,79.22
1297.00,79.19
1296.00,79.21
1295.00,79.28
1294.00,79.39
1293.00,79.55
1292.00,79.74
1291.00,79.95
1290.00,80.17
1289.00,80.38
1288.00,80.56
1287.00,80.72
1286.00,80.87
1285.00,81.01
1284.00,81.13
1283.00,81.21
1282.00,81.27
1281.00,81.30
1280.00,81.31
1279.00,81.30
1278.00,81.28
1277.00,81.23
1276.00,81.15
1275.00,81.04
1274.00,80.90
1273.00,80.73
1272.00,80.52
1271.00,80.28
1270.00,80.02
1269.00,79.75
1268.00,79.48
1267.00,79.21
1266.00,78.96
1265.00,78.73
1264.00,78.52
1263.00,78.33
1262.00,78.17
1261.00,78.04
1260.00,77.91
1259.00,77.80
1258.00,77.69
1257.00,77.58
1256.00,77.46
1255.00,77.32
1254.00,77.17
1253.00,76.99
1252.00,76.78
1251.00,76.55
1250.00,76.31
1249.00,76.07
1248.00,75.83
1247.00,75.59
1246.00,75.37
1245.00,75.18
1244.00,75.02
1243.00,74.88
1242.00,74.77
1241.00,74.69
1240.00,74.64
1239.00,74.62
1238.00,74.65
1237.00,74.73
1236.00,74.85
1235.00,75.01
1234.00,75.21
1233.00,75.44
1232.00,75.68
1231.00,75.95
1230.00,76.23
1229.00,76.51
1228.00,76.79
1227.00,77.09
1226.00,77.40
1225.00,77.72
1224.00,78.02
1223.00,78.31
1222.00,78.60
1221.00,78.89
1220.00,79.17
1219.00,79.45
1218.00,79.71
1217.00,79.96
1216.00,80.19
1215.00,80.40
1214.00,80.61
1213.00,80.80
1212.00,80.97
1211.00,81.13
1210.00,81.28
1209.00,81.41
1208.00,81.51
1207.00,81.59
1206.00,81.64
1205.00,81.69
1204.00,81.72
1203.00,81.73
1202.00,81.74
1201.00,81.76
1200.00,81.78
1199.00,81.80
1198.00,81.82
1197.00,81.82
1196.00,81.82
1195.00,81.81
1194.00,81.83
1193.00,81.86
1192.00,81.92
1191.00,82.00
1190.00,82.08
1189.00,82.16
1188.00,82.23
1187.00,82.28
1186.00,82.32
1185.00,82.35
1184.00,82.37
1183.00,82.39
1182.00,82.40
1181.00,82.41
1180.00,82.42
1179.00,82.43
1178.00,82.44
1177.00,82.43
1176.00,82.42
1175.00,82.40
1174.00,82.39
1173.00,82.39
1172.00,82.37
1171.00,82.32
1170.00,82.24
1169.00,82.14
1168.00,82.05
1167.00,81.98
1166.00,81.95
1165.00,81.96
1164.00,82.01
1163.00,82.11
1162.00,82.25
1161.00,82.44
1160.00,82.66
1159.00,82.89
1158.00,83.12
1157.00,83.33
1156.00,83.52
1155.00,83.70
1154.00,83.86
1153.00,84.00
1152.00,84.13
1151.00,84.23
1150.00,84.32
1149.00,84.39
1148.00,84.44
1147.00,84.47
1146.00,84.50
1145.00,84.55
1144.00,84.59
1143.00,84.62
1142.00,84.63
1141.00,84.63
1140.00,84.63
1139.00,84.63
1138.00,84.64
1137.00,84.64
1136.00,84.64
1135.00,84.64
1134.00,84.64
1133.00,84.66
1132.00,84.68
1131.00,84.72
1130.00,84.74
1129.00,84.76
1128.00,84.76
1127.00,84.78
1126.00,84.83
1125.00,84.89
1124.00,84.95
1123.00,84.98
1122.00,85.02
1121.00,85.05
1120.00,85.10
1119.00,85.14
1118.00,85.17
1117.00,85.17
1116.00,85.15
1115.00,85.12
1114.00,85.12
1113.00,85.14
1112.00,85.15
1111.00,85.12
1110.00,85.05
1109.00,84.98
1108.00,84.92
1107.00,84.88
1106.00,84.84
1105.00,84.81
1104.00,84.79
1103.00,84.78
1102.00,84.76
1101.00,84.75
1100.00,84.73
1099.00,84.69
1098.00,84.63
1097.00,84.56
1096.00,84.49
1095.00,84.41
1094.00,84.34
1093.00,84.26
1092.00,84.19
1091.00,84.12
1090.00,84.04
1089.00,83.95
1088.00,83.86
1087.00,83.78
1086.00,83.71
1085.00,83.65
1084.00,83.59
1083.00,83.55
1082.00,83.53
1081.00,83.52
1080.00,83.52
1079.00,83.56
1078.00,83.63
1077.00,83.73
1076.00,83.85
1075.00,83.98
1074.00,84.14
1073.00,84.30
1072.00,84.45
1071.00,84.59
1070.00,84.73
1069.00,84.86
1068.00,84.98
1067.00,85.08
1066.00,85.17
1065.00,85.26
1064.00,85.34
1063.00,85.41
1062.00,85.49
1061.00,85.58
1060.00,85.67
1059.00,85.76
1058.00,85.84
1057.00,85.92
1056.00,85.98
1055.00,86.04
1054.00,86.09
1053.00,86.15
1052.00,86.18
1051.00,86.22
1050.00,86.26
1049.00,86.31
1048.00,86.37
1047.00,86.42
1046.00,86.47
1045.00,86.52
1044.00,86.56
1043.00,86.59
1042.00,86.61
1041.00,86.64
1040.00,86.68
1039.00,86.71
1038.00,86.74
1037.00,86.76
1036.00,86.78
1035.00,86.80
1034.00,86.83
1033.00,86.87
1032.00,86.91
1031.00,86.94
1030.00,86.96
1029.00,86.97
1028.00,86.98
1027.00,86.98
1026.00,87.00
1025.00,87.04
1024.00,87.07
1023.00,87.10
1022.00,87.10
1021.00,87.09
1020.00,87.10
1019.00,87.11
1018.00,87.13
1017.00,87.14
1016.00,87.16
1015.00,87.20
1014.00,87.27
1013.00,87.34
1012.00,87.39
1011.00,87.42
1010.00,87.45
1009.00,87.48
1008.00,87.47
1007.00,87.41
1006.00,87.28
1005.00,87.10
1004.00,86.88
1003.00,86.61
1002.00,86.36
1001.00,86.16
1000.00,86.06
999.00,86.07
998.00,86.18
997.00,86.35
996.00,86.55
995.00,86.72
994.00,86.85
993.00,86.93
992.00,86.97
991.00,86.97
990.00,86.96
989.00,86.93
988.00,86.90
987.00,86.85
986.00,86.81
985.00,86.76
984.00,86.73
983.00,86.70
982.00,86.69
981.00,86.69
980.00,86.68
979.00,86.67
978.00,86.64
977.00,86.60
976.00,86.58
975.00,86.58
974.00,86.59
973.00,86.61
972.00,86.63
971.00,86.65
970.00,86.67
969.00,86.70
968.00,86.74
967.00,86.79
966.00,86.85
965.00,86.91
964.00,86.99
963.00,87.08
962.00,87.18
961.00,87.27
960.00,87.36
959.00,87.45
958.00,87.53
957.00,87.61
956.00,87.68
955.00,87.73
954.00,87.77
953.00,87.79
952.00,87.81
951.00,87.83
950.00,87.85
949.00,87.85
948.00,87.82
947.00,87.78
946.00,87.74
945.00,87.68
944.00,87.61
943.00,87.51
942.00,87.38
941.00,87.22
940.00,87.04
939.00,86.83
938.00,86.62
937.00,86.43
936.00,86.28
935.00,86.17
934.00,86.11
933.00,86.08
932.00,86.07
931.00,86.07
930.00,86.08
929.00,86.10
928.00,86.11
927.00,86.10
926.00,86.09
925.00,86.08
924.00,86.08
923.00,86.10
922.00,86.13
921.00,86.15
920.00,86.16
919.00,86.17
918.00,86.17
917.00,86.18
916.00,86.19
915.00,86.18
914.00,86.16
913.00,86.12
912.00,86.09
911.00,86.06
910.00,86.06
909.00,86.08
908.00,86.12
907.00,86.18
906.00,86.25
905.00,86.34
904.00,86.40
903.00,86.40
902.00,86.35
901.00,86.26
900.00,86.16
899.00,86.06
898.00,85.97
897.00,85.91
896.00,85.87
895.00,85.85
894.00,85.83
893.00,85.81
892.00,85.81
891.00,85.81
890.00,85.81
889.00,85.80
888.00,85.79
887.00,85.76
886.00,85.73
885.00,85.70
884.00,85.67
883.00,85.67
882.00,85.69
881.00,85.71
880.00,85.71
879.00,85.67
878.00,85.61
877.00,85.56
876.00,85.52
875.00,85.48
874.00,85.42
873.00,85.35
872.00,85.27
871.00,85.18
870.00,85.09
869.00,84.97
868.00,84.84
867.00,84.70
866.00,84.58
865.00,84.47
864.00,84.37
863.00,84.26
862.00,84.14
861.00,84.00
860.00,83.84
859.00,83.68
858.00,83.53
857.00,83.38
856.00,83.27
855.00,83.23
854.00,83.27
853.00,83.44
852.00,83.74
851.00,84.14
850.00,84.60
849.00,85.05
848.00,85.45
847.00,85.77
846.00,86.07
845.00,86.36
844.00,86.65
843.00,86.93
842.00,87.15
841.00,87.30
840.00,87.40
839.00,87.48
838.00,87.57
837.00,87.67
836.00,87.75
835.00,87.79
834.00,87.78
833.00,87.75
832.00,87.72
831.00,87.67
830.00,87.59
829.00,87.46
828.00,87.28
827.00,87.07
826.00,86.82
825.00,86.56
824.00,86.31
823.00,86.11
822.00,85.93
821.00,85.78
820.00,85.65
819.00,85.57
818.00,85.53
817.00,85.54
816.00,85.62
815.00,85.77
814.00,85.98
813.00,86.19
812.00,86.39
811.00,86.60
810.00,86.82
809.00,87.04
808.00,87.22
807.00,87.35
806.00,87.43
805.00,87.45
804.00,87.42
803.00,87.36
802.00,87.26
801.00,87.11
800.00,86.91
799.00,86.65
798.00,86.34
797.00,85.97
796.00,85.54
795.00,85.03
794.00,84.46
793.00,83.83
792.00,83.18
791.00,82.54
790.00,81.93
789.00,81.35
788.00,80.80
787.00,80.26
786.00,79.74
785.00,79.23
784.00,78.74
783.00,78.32
782.00,77.99
781.00,77.75
780.00,77.57
779.00,77.48
778.00,77.49
777.00,77.59
776.00,77.74
775.00,77.95
774.00,78.18
773.00,78.46
772.00,78.74
771.00,79.03
770.00,79.31
769.00,79.60
768.00,79.96
767.00,80.39
766.00,80.90
765.00,81.43
764.00,81.95
763.00,82.45
762.00,82.91
761.00,83.33
760.00,83.68
759.00,84.01
758.00,84.32
757.00,84.62
756.00,84.89
755.00,85.12
754.00,85.33
753.00,85.52
752.00,85.69
751.00,85.81
750.00,85.88
749.00,85.92
748.00,85.93
747.00,85.91
746.00,85.90
745.00,85.92
744.00,85.96
743.00,85.96
742.00,85.86
741.00,85.65
740.00,85.36
739.00,85.06
738.00,84.78
737.00,84.48
736.00,84.17
735.00,83.81
734.00,83.43
733.00,83.02
732.00,82.60
731.00,82.20
730.00,81.83
729.00,81.45
728.00,81.03
727.00,80.55
726.00,80.01
725.00,79.41
724.00,78.80
723.00,78.21
722.00,77.67
721.00,77.16
720.00,76.69
719.00,76.33
718.00,76.09
717.00,75.94
716.00,75.86
715.00,75.83
714.00,75.84
713.00,75.87
712.00,75.90
711.00,75.96
710.00,76.04
709.00,76.12
708.00,76.20
707.00,76.27
706.00,76.36
705.00,76.46
704.00,76.57
703.00,76.68
702.00,76.81
701.00,76.92
700.00,77.00
699.00,77.03
698.00,77.01
697.00,76.91
696.00,76.72
695.00,76.45
694.00,76.11
693.00,75.70
692.00,75.19
691.00,74.58
690.00,73.86
689.00,73.04
688.00,72.12
687.00,71.14
686.00,70.19
685.00,69.34
684.00,68.69
683.00,68.29
682.00,68.16
681.00,68.28
680.00,68.63
679.00,69.12
678.00,69.71
677.00,70.31
676.00,70.89
675.00,71.43
674.00,71.92
673.00,72.34
672.00,72.68
671.00,72.97
670.00,73.24
669.00,73.52
668.00,73.78
667.00,73.98
666.00,74.11
665.00,74.21
664.00,74.26
663.00,74.27
662.00,74.27
661.00,74.29
660.00,74.31
659.00,74.32
658.00,74.31
657.00,74.26
656.00,74.17
655.00,74.10
654.00,74.09
653.00,74.14
652.00,74.18
651.00,74.15
650.00,74.07
649.00,74.02
648.00,74.07
647.00,74.22
646.00,74.40
645.00,74.55
644.00,74.63
643.00,74.65
642.00,74.63
641.00,74.59
640.00,74.56
639.00,74.55
638.00,74.58
637.00,74.56
636.00,74.47
635.00,74.33
634.00,74.20
633.00,74.14
632.00,74.15
631.00,74.26
630.00,74.43
629.00,74.59
628.00,74.69
627.00,74.77
626.00,74.85
625.00,74.90
624.00,74.82
623.00,74.60
622.00,74.31
621.00,74.07
620.00,74.03
619.00,74.27
618.00,74.63
617.00,74.82
616.00,74.71
615.00,74.49
614.00,74.42
613.00,74.51
612.00,74.59
611.00,74.52
610.00,74.36
609.00,74.25
608.00,74.23
607.00,74.24
606.00,74.18
605.00,74.03
604.00,73.91
603.00,73.86
602.00,73.82
601.00,73.69
600.00,73.52
599.00,73.45
598.00,73.51
597.00,73.59
596.00,73.63
595.00,73.65
594.00,73.57
593.00,73.29
592.00,72.84
591.00,72.51
590.00,72.54
589.00,72.82
588.00,73.05
587.00,73.09
586.00,72.98
585.00,72.80
584.00,72.58
583.00,72.23
582.00,71.61
581.00,70.67
580.00,69.64
579.00,68.94
578.00,68.77
577.00,68.85
576.00,68.90
575.00,68.89
574.00,68.78
573.00,68.46
572.00,68.16
571.00,68.39
570.00,69.25
569.00,70.09
568.00,70.35
567.00,70.25
566.00,70.35
565.00,70.74
564.00,71.07
563.00,71.03
562.00,70.69
561.00,70.37
560.00,70.36
559.00,70.72
558.00,71.13
557.00,71.24
556.00,71.12
555.00,71.10
554.00,71.21
553.00,71.14
552.00,70.70
551.00,70.28
550.00,70.13
