Created as New Dataset,6.1 Cotton, cord
cm-1,%T
4000.00,100.07
3999.00,100.07
3998.00,100.06
3997.00,100.04
3996.00,100.02
3995.00,100.00
3994.00,99.99
3993.00,99.99
3992.00,99.99
3991.00,100.00
3990.00,100.01
3989.00,100.01
3988.00,100.01
3987.00,100.00
3986.00,100.00
3985.00,100.00
3984.00,100.00
3983.00,100.01
3982.00,100.00
3981.00,99.99
3980.00,99.98
3979.00,99.98
3978.00,99.98
3977.00,99.99
3976.00,99.99
3975.00,99.98
3974.00,99.97
3973.00,99.96
3972.00,99.96
3971.00,99.97
3970.00,99.98
3969.00,99.98
3968.00,99.98
3967.00,99.98
3966.00,99.97
3965.00,99.98
3964.00,99.98
3963.00,99.99
3962.00,99.99
3961.00,99.98
3960.00,99.98
3959.00,99.98
3958.00,99.99
3957.00,99.99
3956.00,100.00
3955.00,100.00
3954.00,100.00
3953.00,100.00
3952.00,100.00
3951.00,100.01
3950.00,100.01
3949.00,100.02
3948.00,100.01
3947.00,100.01
3946.00,100.00
3945.00,99.99
3944.00,99.99
3943.00,99.99
3942.00,99.98
3941.00,99.97
3940.00,99.96
3939.00,99.94
3938.00,99.94
3937.00,99.94
3936.00,99.94
3935.00,99.95
3934.00,99.95
3933.00,99.96
3932.00,99.96
3931.00,99.97
3930.00,99.97
3929.00,99.98
3928.00,99.98
3927.00,99.98
3926.00,99.97
3925.00,99.97
3924.00,99.96
3923.00,99.96
3922.00,99.96
3921.00,99.96
3920.00,99.95
3919.00,99.95
3918.00,99.96
3917.00,99.96
3916.00,99.97
3915.00,99.96
3914.00,99.96
3913.00,99.96
3912.00,99.97
3911.00,99.98
3910.00,99.99
3909.00,100.00
3908.00,99.99
3907.00,99.98
3906.00,99.96
3905.00,99.95
3904.00,99.95
3903.00,99.95
3902.00,99.94
3901.00,99.94
3900.00,99.94
3899.00,99.94
3898.00,99.94
3897.00,99.94
3896.00,99.95
3895.00,99.95
3894.00,99.96
3893.00,99.96
3892.00,99.95
3891.00,99.94
3890.00,99.92
3889.00,99.91
3888.00,99.90
3887.00,99.92
3886.00,99.93
3885.00,99.94
3884.00,99.93
3883.00,99.92
3882.00,99.92
3881.00,99.94
3880.00,99.96
3879.00,99.97
3878.00,99.97
3877.00,99.97
3876.00,99.97
3875.00,99.97
3874.00,99.97
3873.00,99.95
3872.00,99.94
3871.00,99.94
3870.00,99.94
3869.00,99.94
3868.00,99.94
3867.00,99.93
3866.00,99.94
3865.00,99.93
3864.00,99.92
3863.00,99.90
3862.00,99.89
3861.00,99.90
3860.00,99.93
3859.00,99.94
3858.00,99.93
3857.00,99.90
3856.00,99.88
3855.00,99.89
3854.00,99.90
3853.00,99.88
3852.00,99.86
3851.00,99.85
3850.00,99.87
3849.00,99.90
3848.00,99.94
3847.00,99.97
3846.00,99.99
3845.00,99.99
3844.00,99.99
3843.00,99.97
3842.00,99.96
3841.00,99.94
3840.00,99.93
3839.00,99.91
3838.00,99.90
3837.00,99.90
3836.00,99.89
3835.00,99.90
3834.00,99.92
3833.00,99.94
3832.00,99.97
3831.00,99.98
3830.00,99.98
3829.00,99.97
3828.00,99.96
3827.00,99.96
3826.00,99.95
3825.00,99.93
3824.00,99.93
3823.00,99.93
3822.00,99.94
3821.00,99.93
3820.00,99.91
3819.00,99.89
3818.00,99.90
3817.00,99.92
3816.00,99.94
3815.00,99.94
3814.00,99.91
3813.00,99.89
3812.00,99.88
3811.00,99.88
3810.00,99.90
3809.00,99.93
3808.00,99.96
3807.00,99.96
3806.00,99.94
3805.00,99.91
3804.00,99.90
3803.00,99.91
3802.00,99.93
3801.00,99.94
3800.00,99.92
3799.00,99.89
3798.00,99.88
3797.00,99.88
3796.00,99.91
3795.00,99.94
3794.00,99.96
3793.00,99.97
3792.00,99.96
3791.00,99.95
3790.00,99.93
3789.00,99.92
3788.00,99.93
3787.00,99.94
3786.00,99.96
3785.00,99.96
3784.00,99.95
3783.00,99.92
3782.00,99.90
3781.00,99.90
3780.00,99.90
3779.00,99.90
3778.00,99.91
3777.00,99.93
3776.00,99.94
3775.00,99.95
3774.00,99.95
3773.00,99.94
3772.00,99.92
3771.00,99.91
3770.00,99.91
3769.00,99.90
3768.00,99.89
3767.00,99.88
3766.00,99.88
3765.00,99.89
3764.00,99.89
3763.00,99.89
3762.00,99.90
3761.00,99.91
3760.00,99.92
3759.00,99.93
3758.00,99.93
3757.00,99.92
3756.00,99.90
3755.00,99.88
3754.00,99.87
3753.00,99.87
3752.00,99.87
3751.00,99.86
3750.00,99.85
3749.00,99.83
3748.00,99.80
3747.00,99.77
3746.00,99.75
3745.00,99.75
3744.00,99.77
3743.00,99.80
3742.00,99.84
3741.00,99.88
3740.00,99.90
3739.00,99.91
3738.00,99.90
3737.00,99.89
3736.00,99.88
3735.00,99.86
3734.00,99.86
3733.00,99.86
3732.00,99.87
3731.00,99.87
3730.00,99.86
3729.00,99.85
3728.00,99.84
3727.00,99.83
3726.00,99.83
3725.00,99.83
3724.00,99.83
3723.00,99.84
3722.00,99.84
3721.00,99.84
3720.00,99.84
3719.00,99.84
3718.00,99.85
3717.00,99.84
3716.00,99.83
3715.00,99.81
3714.00,99.81
3713.00,99.82
3712.00,99.82
3711.00,99.81
3710.00,99.80
3709.00,99.80
3708.00,99.80
3707.00,99.82
3706.00,99.83
3705.00,99.85
3704.00,99.86
3703.00,99.85
3702.00,99.84
3701.00,99.82
3700.00,99.80
3699.00,99.81
3698.00,99.81
3697.00,99.82
3696.00,99.81
3695.00,99.80
3694.00,99.80
3693.00,99.81
3692.00,99.82
3691.00,99.84
3690.00,99.84
3689.00,99.85
3688.00,99.85
3687.00,99.85
3686.00,99.84
3685.00,99.83
3684.00,99.83
3683.00,99.82
3682.00,99.81
3681.00,99.80
3680.00,99.78
3679.00,99.75
3678.00,99.73
3677.00,99.72
3676.00,99.71
3675.00,99.71
3674.00,99.70
3673.00,99.70
3672.00,99.71
3671.00,99.74
3670.00,99.76
3669.00,99.75
3668.00,99.73
3667.00,99.71
3666.00,99.70
3665.00,99.72
3664.00,99.74
3663.00,99.75
3662.00,99.75
3661.00,99.74
3660.00,99.72
3659.00,99.70
3658.00,99.70
3657.00,99.71
3656.00,99.71
3655.00,99.70
3654.00,99.68
3653.00,99.64
3652.00,99.61
3651.00,99.58
3650.00,99.56
3649.00,99.54
3648.00,99.55
3647.00,99.57
3646.00,99.61
3645.00,99.65
3644.00,99.68
3643.00,99.68
3642.00,99.67
3641.00,99.64
3640.00,99.61
3639.00,99.59
3638.00,99.57
3637.00,99.56
3636.00,99.55
3635.00,99.55
3634.00,99.55
3633.00,99.55
3632.00,99.55
3631.00,99.55
3630.00,99.54
3629.00,99.53
3628.00,99.51
3627.00,99.50
3626.00,99.49
3625.00,99.49
3624.00,99.48
3623.00,99.48
3622.00,99.47
3621.00,99.47
3620.00,99.46
3619.00,99.45
3618.00,99.44
3617.00,99.44
3616.00,99.44
3615.00,99.44
3614.00,99.43
3613.00,99.41
3612.00,99.40
3611.00,99.39
3610.00,99.39
3609.00,99.38
3608.00,99.37
3607.00,99.35
3606.00,99.34
3605.00,99.35
3604.00,99.36
3603.00,99.37
3602.00,99.38
3601.00,99.37
3600.00,99.36
3599.00,99.36
3598.00,99.35
3597.00,99.35
3596.00,99.33
3595.00,99.31
3594.00,99.30
3593.00,99.28
3592.00,99.26
3591.00,99.25
3590.00,99.23
3589.00,99.22
3588.00,99.22
3587.00,99.21
3586.00,99.20
3585.00,99.19
3584.00,99.20
3583.00,99.21
3582.00,99.22
3581.00,99.23
3580.00,99.23
3579.00,99.21
3578.00,99.19
3577.00,99.17
3576.00,99.16
3575.00,99.14
3574.00,99.12
3573.00,99.09
3572.00,99.06
3571.00,99.03
3570.00,99.02
3569.00,99.01
3568.00,99.02
3567.00,99.02
3566.00,99.02
3565.00,99.01
3564.00,99.00
3563.00,98.98
3562.00,98.98
3561.00,98.97
3560.00,98.96
3559.00,98.95
3558.00,98.94
3557.00,98.94
3556.00,98.94
3555.00,98.94
3554.00,98.93
3553.00,98.92
3552.00,98.92
3551.00,98.91
3550.00,98.89
3549.00,98.87
3548.00,98.84
3547.00,98.81
3546.00,98.79
3545.00,98.77
3544.00,98.77
3543.00,98.77
3542.00,98.77
3541.00,98.77
3540.00,98.77
3539.00,98.75
3538.00,98.72
3537.00,98.71
3536.00,98.70
3535.00,98.70
3534.00,98.70
3533.00,98.68
3532.00,98.66
3531.00,98.63
3530.00,98.62
3529.00,98.61
3528.00,98.59
3527.00,98.58
3526.00,98.56
3525.00,98.57
3524.00,98.58
3523.00,98.59
3522.00,98.59
3521.00,98.57
3520.00,98.55
3519.00,98.54
3518.00,98.52
3517.00,98.50
3516.00,98.48
3515.00,98.45
3514.00,98.44
3513.00,98.43
3512.00,98.41
3511.00,98.40
3510.00,98.39
3509.00,98.38
3508.00,98.36
3507.00,98.35
3506.00,98.33
3505.00,98.32
3504.00,98.30
3503.00,98.29
3502.00,98.28
3501.00,98.27
3500.00,98.25
3499.00,98.23
3498.00,98.21
3497.00,98.19
3496.00,98.18
3495.00,98.17
3494.00,98.16
3493.00,98.16
3492.00,98.16
3491.00,98.15
3490.00,98.14
3489.00,98.12
3488.00,98.10
3487.00,98.09
3486.00,98.08
3485.00,98.07
3484.00,98.05
3483.00,98.02
3482.00,98.00
3481.00,97.98
3480.00,97.96
3479.00,97.95
3478.00,97.93
3477.00,97.92
3476.00,97.90
3475.00,97.88
3474.00,97.86
3473.00,97.82
3472.00,97.79
3471.00,97.77
3470.00,97.76
3469.00,97.75
3468.00,97.74
3467.00,97.72
3466.00,97.70
3465.00,97.68
3464.00,97.65
3463.00,97.62
3462.00,97.60
3461.00,97.58
3460.00,97.55
3459.00,97.53
3458.00,97.50
3457.00,97.46
3456.00,97.43
3455.00,97.41
3454.00,97.40
3453.00,97.39
3452.00,97.37
3451.00,97.35
3450.00,97.33
3449.00,97.30
3448.00,97.26
3447.00,97.23
3446.00,97.21
3445.00,97.20
3444.00,97.18
3443.00,97.17
3442.00,97.15
3441.00,97.13
3440.00,97.11
3439.00,97.09
3438.00,97.07
3437.00,97.04
3436.00,97.02
3435.00,97.00
3434.00,96.97
3433.00,96.95
3432.00,96.93
3431.00,96.91
3430.00,96.90
3429.00,96.88
3428.00,96.86
3427.00,96.83
3426.00,96.80
3425.00,96.78
3424.00,96.76
3423.00,96.74
3422.00,96.72
3421.00,96.69
3420.00,96.66
3419.00,96.63
3418.00,96.60
3417.00,96.59
3416.00,96.59
3415.00,96.60
3414.00,96.60
3413.00,96.60
3412.00,96.58
3411.00,96.56
3410.00,96.53
3409.00,96.51
3408.00,96.49
3407.00,96.47
3406.00,96.45
3405.00,96.43
3404.00,96.41
3403.00,96.39
3402.00,96.37
3401.00,96.35
3400.00,96.33
3399.00,96.31
3398.00,96.29
3397.00,96.27
3396.00,96.26
3395.00,96.26
3394.00,96.26
3393.00,96.26
3392.00,96.25
3391.00,96.23
3390.00,96.21
3389.00,96.17
3388.00,96.15
3387.00,96.15
3386.00,96.15
3385.00,96.15
3384.00,96.14
3383.00,96.11
3382.00,96.08
3381.00,96.06
3380.00,96.05
3379.00,96.04
3378.00,96.02
3377.00,96.00
3376.00,95.97
3375.00,95.95
3374.00,95.93
3373.00,95.91
3372.00,95.88
3371.00,95.85
3370.00,95.83
3369.00,95.80
3368.00,95.76
3367.00,95.72
3366.00,95.69
3365.00,95.68
3364.00,95.69
3363.00,95.69
3362.00,95.69
3361.00,95.67
3360.00,95.63
3359.00,95.58
3358.00,95.53
3357.00,95.49
3356.00,95.46
3355.00,95.44
3354.00,95.42
3353.00,95.39
3352.00,95.37
3351.00,95.34
3350.00,95.30
3349.00,95.27
3348.00,95.23
3347.00,95.21
3346.00,95.18
3345.00,95.16
3344.00,95.14
3343.00,95.12
3342.00,95.11
3341.00,95.10
3340.00,95.07
3339.00,95.05
3338.00,95.03
3337.00,95.01
3336.00,94.99
3335.00,94.98
3334.00,94.98
3333.00,95.00
3332.00,95.03
3331.00,95.05
3330.00,95.06
3329.00,95.06
3328.00,95.07
3327.00,95.09
3326.00,95.11
3325.00,95.13
3324.00,95.14
3323.00,95.15
3322.00,95.15
3321.00,95.16
3320.00,95.18
3319.00,95.21
3318.00,95.22
3317.00,95.23
3316.00,95.23
3315.00,95.23
3314.00,95.25
3313.00,95.26
3312.00,95.28
3311.00,95.30
3310.00,95.30
3309.00,95.28
3308.00,95.25
3307.00,95.23
3306.00,95.22
3305.00,95.22
3304.00,95.23
3303.00,95.24
3302.00,95.23
3301.00,95.23
3300.00,95.22
3299.00,95.21
3298.00,95.20
3297.00,95.19
3296.00,95.18
3295.00,95.19
3294.00,95.20
3293.00,95.21
3292.00,95.23
3291.00,95.25
3290.00,95.27
3289.00,95.27
3288.00,95.27
3287.00,95.26
3286.00,95.24
3285.00,95.22
3284.00,95.21
3283.00,95.20
3282.00,95.21
3281.00,95.22
3280.00,95.23
3279.00,95.24
3278.00,95.24
3277.00,95.26
3276.00,95.27
3275.00,95.29
3274.00,95.31
3273.00,95.32
3272.00,95.33
3271.00,95.34
3270.00,95.35
3269.00,95.37
3268.00,95.40
3267.00,95.43
3266.00,95.45
3265.00,95.46
3264.00,95.48
3263.00,95.49
3262.00,95.51
3261.00,95.54
3260.00,95.57
3259.00,95.60
3258.00,95.62
3257.00,95.65
3256.00,95.68
3255.00,95.72
3254.00,95.74
3253.00,95.77
3252.00,95.79
3251.00,95.83
3250.00,95.87
3249.00,95.90
3248.00,95.92
3247.00,95.94
3246.00,95.95
3245.00,95.95
3244.00,95.97
3243.00,95.98
3242.00,96.01
3241.00,96.04
3240.00,96.07
3239.00,96.09
3238.00,96.11
3237.00,96.12
3236.00,96.14
3235.00,96.16
3234.00,96.19
3233.00,96.21
3232.00,96.23
3231.00,96.23
3230.00,96.24
3229.00,96.25
3228.00,96.27
3227.00,96.29
3226.00,96.31
3225.00,96.33
3224.00,96.36
3223.00,96.38
3222.00,96.40
3221.00,96.43
3220.00,96.45
3219.00,96.47
3218.00,96.48
3217.00,96.50
3216.00,96.50
3215.00,96.50
3214.00,96.50
3213.00,96.51
3212.00,96.53
3211.00,96.55
3210.00,96.59
3209.00,96.62
3208.00,96.64
3207.00,96.65
3206.00,96.66
3205.00,96.67
3204.00,96.69
3203.00,96.71
3202.00,96.74
3201.00,96.77
3200.00,96.79
3199.00,96.81
3198.00,96.82
3197.00,96.82
3196.00,96.81
3195.00,96.82
3194.00,96.83
3193.00,96.85
3192.00,96.87
3191.00,96.89
3190.00,96.91
3189.00,96.93
3188.00,96.95
3187.00,96.97
3186.00,96.98
3185.00,96.99
3184.00,96.99
3183.00,96.99
3182.00,97.00
3181.00,97.01
3180.00,97.03
3179.00,97.05
3178.00,97.07
3177.00,97.09
3176.00,97.10
3175.00,97.11
3174.00,97.12
3173.00,97.13
3172.00,97.15
3171.00,97.16
3170.00,97.17
3169.00,97.18
3168.00,97.18
3167.00,97.19
3166.00,97.21
3165.00,97.23
3164.00,97.25
3163.00,97.27
3162.00,97.30
3161.00,97.31
3160.00,97.32
3159.00,97.31
3158.00,97.31
3157.00,97.31
3156.00,97.33
3155.00,97.35
3154.00,97.39
3153.00,97.42
3152.00,97.45
3151.00,97.47
3150.00,97.48
3149.00,97.48
3148.00,97.48
3147.00,97.49
3146.00,97.50
3145.00,97.51
3144.00,97.52
3143.00,97.52
3142.00,97.53
3141.00,97.54
3140.00,97.54
3139.00,97.55
3138.00,97.55
3137.00,97.55
3136.00,97.55
3135.00,97.56
3134.00,97.57
3133.00,97.58
3132.00,97.58
3131.00,97.59
3130.00,97.60
3129.00,97.62
3128.00,97.64
3127.00,97.66
3126.00,97.68
3125.00,97.69
3124.00,97.70
3123.00,97.70
3122.00,97.70
3121.00,97.69
3120.00,97.69
3119.00,97.70
3118.00,97.70
3117.00,97.71
3116.00,97.71
3115.00,97.72
3114.00,97.74
3113.00,97.76
3112.00,97.77
3111.00,97.77
3110.00,97.77
3109.00,97.77
3108.00,97.77
3107.00,97.78
3106.00,97.79
3105.00,97.80
3104.00,97.81
3103.00,97.83
3102.00,97.84
3101.00,97.85
3100.00,97.87
3099.00,97.88
3098.00,97.89
3097.00,97.90
3096.00,97.91
3095.00,97.92
3094.00,97.93
3093.00,97.94
3092.00,97.95
3091.00,97.94
3090.00,97.93
3089.00,97.93
3088.00,97.92
3087.00,97.92
3086.00,97.92
3085.00,97.93
3084.00,97.94
3083.00,97.96
3082.00,97.98
3081.00,98.00
3080.00,98.01
3079.00,98.01
3078.00,98.00
3077.00,97.99
3076.00,98.00
3075.00,98.01
3074.00,98.02
3073.00,98.04
3072.00,98.05
3071.00,98.05
3070.00,98.05
3069.00,98.05
3068.00,98.05
3067.00,98.06
3066.00,98.07
3065.00,98.08
3064.00,98.08
3063.00,98.08
3062.00,98.08
3061.00,98.08
3060.00,98.09
3059.00,98.10
3058.00,98.10
3057.00,98.10
3056.00,98.10
3055.00,98.11
3054.00,98.13
3053.00,98.14
3052.00,98.14
3051.00,98.14
3050.00,98.14
3049.00,98.15
3048.00,98.16
3047.00,98.17
3046.00,98.18
3045.00,98.20
3044.00,98.22
3043.00,98.23
3042.00,98.25
3041.00,98.26
3040.00,98.28
3039.00,98.30
3038.00,98.32
3037.00,98.33
3036.00,98.34
3035.00,98.34
3034.00,98.34
3033.00,98.34
3032.00,98.33
3031.00,98.33
3030.00,98.32
3029.00,98.31
3028.00,98.31
3027.00,98.31
3026.00,98.32
3025.00,98.33
3024.00,98.33
3023.00,98.33
3022.00,98.33
3021.00,98.32
3020.00,98.31
3019.00,98.30
3018.00,98.29
3017.00,98.29
3016.00,98.29
3015.00,98.28
3014.00,98.28
3013.00,98.27
3012.00,98.27
3011.00,98.26
3010.00,98.25
3009.00,98.25
3008.00,98.24
3007.00,98.23
3006.00,98.23
3005.00,98.23
3004.00,98.24
3003.00,98.25
3002.00,98.26
3001.00,98.26
3000.00,98.27
2999.00,98.27
2998.00,98.27
2997.00,98.26
2996.00,98.25
2995.00,98.25
2994.00,98.24
2993.00,98.24
2992.00,98.23
2991.00,98.22
2990.00,98.21
2989.00,98.20
2988.00,98.19
2987.00,98.18
2986.00,98.18
2985.00,98.17
2984.00,98.15
2983.00,98.13
2982.00,98.11
2981.00,98.08
2980.00,98.06
2979.00,98.03
2978.00,98.01
2977.00,97.98
2976.00,97.94
2975.00,97.89
2974.00,97.84
2973.00,97.79
2972.00,97.75
2971.00,97.71
2970.00,97.69
2969.00,97.68
2968.00,97.69
2967.00,97.69
2966.00,97.68
2965.00,97.69
2964.00,97.69
2963.00,97.71
2962.00,97.74
2961.00,97.76
2960.00,97.77
2959.00,97.77
2958.00,97.76
2957.00,97.74
2956.00,97.72
2955.00,97.71
2954.00,97.71
2953.00,97.71
2952.00,97.71
2951.00,97.71
2950.00,97.70
2949.00,97.71
2948.00,97.71
2947.00,97.70
2946.00,97.69
2945.00,97.68
2944.00,97.67
2943.00,97.67
2942.00,97.67
2941.00,97.68
2940.00,97.68
2939.00,97.68
2938.00,97.67
2937.00,97.66
2936.00,97.65
2935.00,97.64
2934.00,97.63
2933.00,97.61
2932.00,97.58
2931.00,97.55
2930.00,97.51
2929.00,97.48
2928.00,97.45
2927.00,97.43
2926.00,97.40
2925.00,97.34
2924.00,97.28
2923.00,97.20
2922.00,97.13
2921.00,97.08
2920.00,97.03
2919.00,96.99
2918.00,96.96
2917.00,96.93
2916.00,96.92
2915.00,96.93
2914.00,96.94
2913.00,96.96
2912.00,96.97
2911.00,96.96
2910.00,96.96
2909.00,96.96
2908.00,96.96
2907.00,96.97
2906.00,96.97
2905.00,96.96
2904.00,96.94
2903.00,96.94
2902.00,96.95
2901.00,96.97
2900.00,96.99
2899.00,97.00
2898.00,97.00
2897.00,97.00
2896.00,97.00
2895.00,97.00
2894.00,97.02
2893.00,97.04
2892.00,97.07
2891.00,97.09
2890.00,97.11
2889.00,97.13
2888.00,97.15
2887.00,97.17
2886.00,97.19
2885.00,97.20
2884.00,97.20
2883.00,97.21
2882.00,97.22
2881.00,97.25
2880.00,97.29
2879.00,97.32
2878.00,97.34
2877.00,97.35
2876.00,97.34
2875.00,97.33
2874.00,97.32
2873.00,97.32
2872.00,97.33
2871.00,97.35
2870.00,97.36
2869.00,97.38
2868.00,97.40
2867.00,97.40
2866.00,97.40
2865.00,97.40
2864.00,97.40
2863.00,97.41
2862.00,97.42
2861.00,97.42
2860.00,97.42
2859.00,97.42
2858.00,97.42
2857.00,97.42
2856.00,97.42
2855.00,97.42
2854.00,97.40
2853.00,97.36
2852.00,97.32
2851.00,97.30
2850.00,97.29
2849.00,97.31
2848.00,97.36
2847.00,97.42
2846.00,97.50
2845.00,97.58
2844.00,97.65
2843.00,97.70
2842.00,97.74
2841.00,97.76
2840.00,97.79
2839.00,97.81
2838.00,97.84
2837.00,97.87
2836.00,97.89
2835.00,97.90
2834.00,97.90
2833.00,97.91
2832.00,97.91
2831.00,97.92
2830.00,97.94
2829.00,97.96
2828.00,97.98
2827.00,98.00
2826.00,98.01
2825.00,98.02
2824.00,98.03
2823.00,98.03
2822.00,98.04
2821.00,98.05
2820.00,98.07
2819.00,98.09
2818.00,98.10
2817.00,98.11
2816.00,98.12
2815.00,98.13
2814.00,98.13
2813.00,98.13
2812.00,98.13
2811.00,98.14
2810.00,98.14
2809.00,98.15
2808.00,98.15
2807.00,98.16
2806.00,98.16
2805.00,98.16
2804.00,98.17
2803.00,98.19
2802.00,98.21
2801.00,98.22
2800.00,98.23
2799.00,98.23
2798.00,98.23
2797.00,98.23
2796.00,98.23
2795.00,98.23
2794.00,98.23
2793.00,98.24
2792.00,98.25
2791.00,98.27
2790.00,98.28
2789.00,98.29
2788.00,98.29
2787.00,98.29
2786.00,98.29
2785.00,98.29
2784.00,98.29
2783.00,98.29
2782.00,98.30
2781.00,98.30
2780.00,98.30
2779.00,98.31
2778.00,98.32
2777.00,98.34
2776.00,98.34
2775.00,98.34
2774.00,98.33
2773.00,98.33
2772.00,98.33
2771.00,98.34
2770.00,98.33
2769.00,98.33
2768.00,98.33
2767.00,98.33
2766.00,98.33
2765.00,98.33
2764.00,98.33
2763.00,98.33
2762.00,98.34
2761.00,98.34
2760.00,98.34
2759.00,98.34
2758.00,98.33
2757.00,98.33
2756.00,98.33
2755.00,98.34
2754.00,98.35
2753.00,98.35
2752.00,98.35
2751.00,98.35
2750.00,98.35
2749.00,98.36
2748.00,98.35
2747.00,98.35
2746.00,98.34
2745.00,98.33
2744.00,98.32
2743.00,98.32
2742.00,98.32
2741.00,98.32
2740.00,98.33
2739.00,98.34
2738.00,98.34
2737.00,98.35
2736.00,98.34
2735.00,98.34
2734.00,98.35
2733.00,98.36
2732.00,98.36
2731.00,98.36
2730.00,98.35
2729.00,98.34
2728.00,98.33
2727.00,98.33
2726.00,98.33
2725.00,98.34
2724.00,98.34
2723.00,98.35
2722.00,98.36
2721.00,98.36
2720.00,98.36
2719.00,98.37
2718.00,98.37
2717.00,98.39
2716.00,98.39
2715.00,98.40
2714.00,98.40
2713.00,98.40
2712.00,98.39
2711.00,98.39
2710.00,98.39
2709.00,98.39
2708.00,98.40
2707.00,98.40
2706.00,98.41
2705.00,98.40
2704.00,98.39
2703.00,98.39
2702.00,98.39
2701.00,98.40
2700.00,98.41
2699.00,98.42
2698.00,98.42
2697.00,98.41
2696.00,98.42
2695.00,98.43
2694.00,98.43
2693.00,98.44
2692.00,98.45
2691.00,98.45
2690.00,98.45
2689.00,98.45
2688.00,98.45
2687.00,98.44
2686.00,98.43
2685.00,98.42
2684.00,98.42
2683.00,98.43
2682.00,98.44
2681.00,98.45
2680.00,98.45
2679.00,98.44
2678.00,98.44
2677.00,98.44
2676.00,98.45
2675.00,98.45
2674.00,98.46
2673.00,98.45
2672.00,98.45
2671.00,98.45
2670.00,98.46
2669.00,98.47
2668.00,98.48
2667.00,98.47
2666.00,98.47
2665.00,98.47
2664.00,98.47
2663.00,98.47
2662.00,98.48
2661.00,98.47
2660.00,98.46
2659.00,98.45
2658.00,98.43
2657.00,98.41
2656.00,98.41
2655.00,98.42
2654.00,98.43
2653.00,98.44
2652.00,98.43
2651.00,98.42
2650.00,98.41
2649.00,98.41
2648.00,98.42
2647.00,98.42
2646.00,98.42
2645.00,98.42
2644.00,98.42
2643.00,98.41
2642.00,98.41
2641.00,98.41
2640.00,98.41
2639.00,98.41
2638.00,98.41
2637.00,98.41
2636.00,98.41
2635.00,98.41
2634.00,98.40
2633.00,98.40
2632.00,98.40
2631.00,98.40
2630.00,98.39
2629.00,98.38
2628.00,98.38
2627.00,98.38
2626.00,98.38
2625.00,98.37
2624.00,98.37
2623.00,98.38
2622.00,98.39
2621.00,98.40
2620.00,98.41
2619.00,98.42
2618.00,98.42
2617.00,98.42
2616.00,98.42
2615.00,98.41
2614.00,98.40
2613.00,98.39
2612.00,98.38
2611.00,98.38
2610.00,98.39
2609.00,98.40
2608.00,98.41
2607.00,98.42
2606.00,98.41
2605.00,98.40
2604.00,98.39
2603.00,98.38
2602.00,98.39
2601.00,98.40
2600.00,98.40
2599.00,98.40
2598.00,98.39
2597.00,98.39
2596.00,98.38
2595.00,98.37
2594.00,98.37
2593.00,98.37
2592.00,98.37
2591.00,98.37
2590.00,98.37
2589.00,98.35
2588.00,98.33
2587.00,98.32
2586.00,98.31
2585.00,98.32
2584.00,98.34
2583.00,98.36
2582.00,98.37
2581.00,98.38
2580.00,98.37
2579.00,98.35
2578.00,98.34
2577.00,98.33
2576.00,98.34
2575.00,98.34
2574.00,98.35
2573.00,98.34
2572.00,98.33
2571.00,98.33
2570.00,98.32
2569.00,98.33
2568.00,98.33
2567.00,98.34
2566.00,98.35
2565.00,98.35
2564.00,98.34
2563.00,98.32
2562.00,98.30
2561.00,98.28
2560.00,98.28
2559.00,98.28
2558.00,98.29
2557.00,98.29
2556.00,98.29
2555.00,98.28
2554.00,98.28
2553.00,98.28
2552.00,98.28
2551.00,98.29
2550.00,98.30
2549.00,98.32
2548.00,98.33
2547.00,98.33
2546.00,98.33
2545.00,98.32
2544.00,98.31
2543.00,98.31
2542.00,98.32
2541.00,98.34
2540.00,98.36
2539.00,98.36
2538.00,98.34
2537.00,98.32
2536.00,98.30
2535.00,98.30
2534.00,98.30
2533.00,98.30
2532.00,98.30
2531.00,98.29
2530.00,98.29
2529.00,98.30
2528.00,98.31
2527.00,98.33
2526.00,98.34
2525.00,98.35
2524.00,98.34
2523.00,98.34
2522.00,98.33
2521.00,98.32
2520.00,98.30
2519.00,98.29
2518.00,98.29
2517.00,98.30
2516.00,98.30
2515.00,98.31
2514.00,98.30
2513.00,98.30
2512.00,98.31
2511.00,98.31
2510.00,98.33
2509.00,98.35
2508.00,98.37
2507.00,98.38
2506.00,98.38
2505.00,98.38
2504.00,98.37
2503.00,98.36
2502.00,98.36
2501.00,98.36
2500.00,98.35
2499.00,98.34
2498.00,98.33
2497.00,98.33
2496.00,98.33
2495.00,98.35
2494.00,98.36
2493.00,98.38
2492.00,98.38
2491.00,98.37
2490.00,98.35
2489.00,98.33
2488.00,98.33
2487.00,98.32
2486.00,98.32
2485.00,98.31
2484.00,98.32
2483.00,98.33
2482.00,98.36
2481.00,98.38
2480.00,98.41
2479.00,98.41
2478.00,98.40
2477.00,98.39
2476.00,98.37
2475.00,98.37
2474.00,98.36
2473.00,98.36
2472.00,98.36
2471.00,98.37
2470.00,98.39
2469.00,98.40
2468.00,98.39
2467.00,98.37
2466.00,98.35
2465.00,98.34
2464.00,98.35
2463.00,98.36
2462.00,98.36
2461.00,98.36
2460.00,98.36
2459.00,98.36
2458.00,98.38
2457.00,98.39
2456.00,98.40
2455.00,98.39
2454.00,98.38
2453.00,98.38
2452.00,98.38
2451.00,98.38
2450.00,98.38
2449.00,98.38
2448.00,98.38
2447.00,98.38
2446.00,98.38
2445.00,98.37
2444.00,98.37
2443.00,98.37
2442.00,98.38
2441.00,98.40
2440.00,98.41
2439.00,98.41
2438.00,98.39
2437.00,98.37
2436.00,98.35
2435.00,98.35
2434.00,98.35
2433.00,98.36
2432.00,98.38
2431.00,98.39
2430.00,98.39
2429.00,98.40
2428.00,98.41
2427.00,98.42
2426.00,98.43
2425.00,98.42
2424.00,98.41
2423.00,98.39
2422.00,98.38
2421.00,98.36
2420.00,98.36
2419.00,98.36
2418.00,98.37
2417.00,98.39
2416.00,98.41
2415.00,98.41
2414.00,98.41
2413.00,98.40
2412.00,98.39
2411.00,98.39
2410.00,98.39
2409.00,98.39
2408.00,98.40
2407.00,98.40
2406.00,98.42
2405.00,98.42
2404.00,98.42
2403.00,98.42
2402.00,98.42
2401.00,98.42
2400.00,98.42
2399.00,98.42
2398.00,98.41
2397.00,98.40
2396.00,98.40
2395.00,98.41
2394.00,98.42
2393.00,98.43
2392.00,98.42
2391.00,98.41
2390.00,98.40
2389.00,98.40
2388.00,98.41
2387.00,98.43
2386.00,98.44
2385.00,98.45
2384.00,98.45
2383.00,98.45
2382.00,98.45
2381.00,98.45
2380.00,98.46
2379.00,98.47
2378.00,98.47
2377.00,98.47
2376.00,98.46
2375.00,98.46
2374.00,98.46
2373.00,98.47
2372.00,98.47
2371.00,98.48
2370.00,98.50
2369.00,98.51
2368.00,98.50
2367.00,98.46
2366.00,98.43
2365.00,98.41
2364.00,98.43
2363.00,98.47
2362.00,98.50
2361.00,98.51
2360.00,98.50
2359.00,98.49
2358.00,98.49
2357.00,98.47
2356.00,98.44
2355.00,98.40
2354.00,98.38
2353.00,98.39
2352.00,98.43
2351.00,98.47
2350.00,98.50
2349.00,98.51
2348.00,98.50
2347.00,98.50
2346.00,98.51
2345.00,98.51
2344.00,98.51
2343.00,98.49
2342.00,98.47
2341.00,98.45
2340.00,98.45
2339.00,98.45
2338.00,98.46
2337.00,98.47
2336.00,98.47
2335.00,98.47
2334.00,98.45
2333.00,98.44
2332.00,98.43
2331.00,98.42
2330.00,98.42
2329.00,98.42
2328.00,98.42
2327.00,98.41
2326.00,98.39
2325.00,98.37
2324.00,98.36
2323.00,98.34
2322.00,98.34
2321.00,98.34
2320.00,98.35
2319.00,98.36
2318.00,98.37
2317.00,98.38
2316.00,98.39
2315.00,98.40
2314.00,98.39
2313.00,98.39
2312.00,98.38
2311.00,98.36
2310.00,98.34
2309.00,98.33
2308.00,98.32
2307.00,98.32
2306.00,98.32
2305.00,98.33
2304.00,98.35
2303.00,98.35
2302.00,98.34
2301.00,98.33
2300.00,98.32
2299.00,98.32
2298.00,98.31
2297.00,98.28
2296.00,98.25
2295.00,98.25
2294.00,98.26
2293.00,98.27
2292.00,98.27
2291.00,98.25
2290.00,98.22
2289.00,98.20
2288.00,98.18
2287.00,98.16
2286.00,98.14
2285.00,98.13
2284.00,98.13
2283.00,98.14
2282.00,98.16
2281.00,98.17
2280.00,98.17
2279.00,98.17
2278.00,98.18
2277.00,98.19
2276.00,98.19
2275.00,98.19
2274.00,98.18
2273.00,98.17
2272.00,98.15
2271.00,98.14
2270.00,98.14
2269.00,98.13
2268.00,98.14
2267.00,98.15
2266.00,98.17
2265.00,98.17
2264.00,98.18
2263.00,98.17
2262.00,98.17
2261.00,98.15
2260.00,98.11
2259.00,98.08
2258.00,98.08
2257.00,98.10
2256.00,98.12
2255.00,98.11
2254.00,98.09
2253.00,98.08
2252.00,98.09
2251.00,98.11
2250.00,98.14
2249.00,98.17
2248.00,98.18
2247.00,98.18
2246.00,98.16
2245.00,98.14
2244.00,98.10
2243.00,98.05
2242.00,98.01
2241.00,97.99
2240.00,97.98
2239.00,97.99
2238.00,98.01
2237.00,98.03
2236.00,98.05
2235.00,98.07
2234.00,98.09
2233.00,98.12
2232.00,98.14
2231.00,98.15
2230.00,98.15
2229.00,98.13
2228.00,98.11
2227.00,98.09
2226.00,98.07
2225.00,98.05
2224.00,98.03
2223.00,98.04
2222.00,98.06
2221.00,98.09
2220.00,98.11
2219.00,98.12
2218.00,98.11
2217.00,98.10
2216.00,98.07
2215.00,98.04
2214.00,98.02
2213.00,98.01
2212.00,98.01
2211.00,98.01
2210.00,98.00
2209.00,97.99
2208.00,97.99
2207.00,98.00
2206.00,98.04
2205.00,98.11
2204.00,98.16
2203.00,98.16
2202.00,98.12
2201.00,98.07
2200.00,98.05
2199.00,98.07
2198.00,98.10
2197.00,98.14
2196.00,98.16
2195.00,98.16
2194.00,98.13
2193.00,98.07
2192.00,98.02
2191.00,97.99
2190.00,97.99
2189.00,98.01
2188.00,98.05
2187.00,98.08
2186.00,98.09
2185.00,98.07
2184.00,98.04
2183.00,98.00
2182.00,97.95
2181.00,97.92
2180.00,97.90
2179.00,97.90
2178.00,97.90
2177.00,97.91
2176.00,97.92
2175.00,97.93
2174.00,97.92
2173.00,97.89
2172.00,97.87
2171.00,97.86
2170.00,97.85
2169.00,97.84
2168.00,97.82
2167.00,97.80
2166.00,97.80
2165.00,97.83
2164.00,97.85
2163.00,97.86
2162.00,97.87
2161.00,97.90
2160.00,97.94
2159.00,97.98
2158.00,97.99
2157.00,97.98
2156.00,97.98
2155.00,98.01
2154.00,98.06
2153.00,98.12
2152.00,98.15
2151.00,98.15
2150.00,98.11
2149.00,98.07
2148.00,98.05
2147.00,98.04
2146.00,98.05
2145.00,98.06
2144.00,98.06
2143.00,98.05
2142.00,98.03
2141.00,98.01
2140.00,98.00
2139.00,98.02
2138.00,98.05
2137.00,98.07
2136.00,98.09
2135.00,98.10
2134.00,98.11
2133.00,98.13
2132.00,98.14
2131.00,98.15
2130.00,98.14
2129.00,98.12
2128.00,98.10
2127.00,98.09
2126.00,98.08
2125.00,98.08
2124.00,98.09
2123.00,98.11
2122.00,98.12
2121.00,98.13
2120.00,98.13
2119.00,98.12
2118.00,98.12
2117.00,98.12
2116.00,98.12
2115.00,98.12
2114.00,98.13
2113.00,98.15
2112.00,98.15
2111.00,98.13
2110.00,98.08
2109.00,98.03
2108.00,97.99
2107.00,97.99
2106.00,98.02
2105.00,98.06
2104.00,98.08
2103.00,98.09
2102.00,98.07
2101.00,98.05
2100.00,98.03
2099.00,98.02
2098.00,98.02
2097.00,98.05
2096.00,98.09
2095.00,98.13
2094.00,98.14
2093.00,98.12
2092.00,98.11
2091.00,98.10
2090.00,98.10
2089.00,98.12
2088.00,98.12
2087.00,98.12
2086.00,98.12
2085.00,98.12
2084.00,98.11
2083.00,98.09
2082.00,98.08
2081.00,98.06
2080.00,98.06
2079.00,98.08
2078.00,98.10
2077.00,98.12
2076.00,98.11
2075.00,98.08
2074.00,98.04
2073.00,98.02
2072.00,98.02
2071.00,98.03
2070.00,98.04
2069.00,98.05
2068.00,98.04
2067.00,98.05
2066.00,98.06
2065.00,98.07
2064.00,98.06
2063.00,98.05
2062.00,98.04
2061.00,98.04
2060.00,98.04
2059.00,98.04
2058.00,98.04
2057.00,98.03
2056.00,98.05
2055.00,98.08
2054.00,98.11
2053.00,98.11
2052.00,98.08
2051.00,98.03
2050.00,97.98
2049.00,97.94
2048.00,97.93
2047.00,97.94
2046.00,97.97
2045.00,97.99
2044.00,97.98
2043.00,97.97
2042.00,97.98
2041.00,98.01
2040.00,98.05
2039.00,98.06
2038.00,98.06
2037.00,98.04
2036.00,98.02
2035.00,98.01
2034.00,98.00
2033.00,98.00
2032.00,98.00
2031.00,97.98
2030.00,97.94
2029.00,97.89
2028.00,97.85
2027.00,97.84
2026.00,97.88
2025.00,97.94
2024.00,97.99
2023.00,98.02
2022.00,98.01
2021.00,97.98
2020.00,97.96
2019.00,97.96
2018.00,97.99
2017.00,98.03
2016.00,98.05
2015.00,98.06
2014.00,98.07
2013.00,98.10
2012.00,98.13
2011.00,98.18
2010.00,98.19
2009.00,98.17
2008.00,98.12
2007.00,98.06
2006.00,98.03
2005.00,98.02
2004.00,98.04
2003.00,98.06
2002.00,98.08
2001.00,98.10
2000.00,98.09
1999.00,98.08
1998.00,98.07
1997.00,98.07
1996.00,98.09
1995.00,98.11
1994.00,98.12
1993.00,98.10
1992.00,98.06
1991.00,98.01
1990.00,97.99
1989.00,97.99
1988.00,98.00
1987.00,98.02
1986.00,98.04
1985.00,98.06
1984.00,98.07
1983.00,98.07
1982.00,98.06
1981.00,98.05
1980.00,98.06
1979.00,98.07
1978.00,98.10
1977.00,98.12
1976.00,98.13
1975.00,98.13
1974.00,98.10
1973.00,98.06
1972.00,98.00
1971.00,97.97
1970.00,97.95
1969.00,97.96
1968.00,97.97
1967.00,97.97
1966.00,97.97
1965.00,98.00
1964.00,98.04
1963.00,98.07
1962.00,98.07
1961.00,98.04
1960.00,98.01
1959.00,98.00
1958.00,98.03
1957.00,98.06
1956.00,98.07
1955.00,98.03
1954.00,97.97
1953.00,97.95
1952.00,97.96
1951.00,97.99
1950.00,98.02
1949.00,98.03
1948.00,98.04
1947.00,98.06
1946.00,98.07
1945.00,98.10
1944.00,98.12
1943.00,98.14
1942.00,98.15
1941.00,98.15
1940.00,98.16
1939.00,98.18
1938.00,98.22
1937.00,98.25
1936.00,98.26
1935.00,98.24
1934.00,98.21
1933.00,98.18
1932.00,98.16
1931.00,98.16
1930.00,98.16
1929.00,98.17
1928.00,98.19
1927.00,98.21
1926.00,98.23
1925.00,98.24
1924.00,98.25
1923.00,98.26
1922.00,98.28
1921.00,98.31
1920.00,98.32
1919.00,98.32
1918.00,98.31
1917.00,98.31
1916.00,98.33
1915.00,98.36
1914.00,98.39
1913.00,98.40
1912.00,98.39
1911.00,98.37
1910.00,98.37
1909.00,98.38
1908.00,98.38
1907.00,98.38
1906.00,98.38
1905.00,98.39
1904.00,98.39
1903.00,98.39
1902.00,98.40
1901.00,98.41
1900.00,98.42
1899.00,98.43
1898.00,98.44
1897.00,98.44
1896.00,98.43
1895.00,98.43
1894.00,98.45
1893.00,98.48
1892.00,98.50
1891.00,98.50
1890.00,98.50
1889.00,98.50
1888.00,98.50
1887.00,98.49
1886.00,98.48
1885.00,98.47
1884.00,98.45
1883.00,98.44
1882.00,98.42
1881.00,98.42
1880.00,98.44
1879.00,98.46
1878.00,98.48
1877.00,98.50
1876.00,98.51
1875.00,98.52
1874.00,98.53
1873.00,98.52
1872.00,98.52
1871.00,98.52
1870.00,98.52
1869.00,98.53
1868.00,98.53
1867.00,98.54
1866.00,98.54
1865.00,98.54
1864.00,98.54
1863.00,98.55
1862.00,98.57
1861.00,98.58
1860.00,98.58
1859.00,98.57
1858.00,98.55
1857.00,98.54
1856.00,98.54
1855.00,98.55
1854.00,98.56
1853.00,98.57
1852.00,98.56
1851.00,98.56
1850.00,98.55
1849.00,98.55
1848.00,98.53
1847.00,98.52
1846.00,98.51
1845.00,98.52
1844.00,98.53
1843.00,98.54
1842.00,98.54
1841.00,98.54
1840.00,98.55
1839.00,98.55
1838.00,98.55
1837.00,98.54
1836.00,98.52
1835.00,98.51
1834.00,98.51
1833.00,98.51
1832.00,98.51
1831.00,98.51
1830.00,98.50
1829.00,98.50
1828.00,98.51
1827.00,98.50
1826.00,98.50
1825.00,98.49
1824.00,98.49
1823.00,98.48
1822.00,98.49
1821.00,98.50
1820.00,98.52
1819.00,98.53
1818.00,98.55
1817.00,98.56
1816.00,98.56
1815.00,98.57
1814.00,98.57
1813.00,98.58
1812.00,98.59
1811.00,98.61
1810.00,98.62
1809.00,98.63
1808.00,98.63
1807.00,98.63
1806.00,98.64
1805.00,98.64
1804.00,98.64
1803.00,98.64
1802.00,98.63
1801.00,98.63
1800.00,98.64
1799.00,98.65
1798.00,98.65
1797.00,98.65
1796.00,98.64
1795.00,98.65
1794.00,98.66
1793.00,98.67
1792.00,98.68
1791.00,98.68
1790.00,98.68
1789.00,98.68
1788.00,98.70
1787.00,98.72
1786.00,98.74
1785.00,98.75
1784.00,98.75
1783.00,98.75
1782.00,98.74
1781.00,98.73
1780.00,98.73
1779.00,98.74
1778.00,98.75
1777.00,98.77
1776.00,98.79
1775.00,98.79
1774.00,98.80
1773.00,98.80
1772.00,98.79
1771.00,98.80
1770.00,98.81
1769.00,98.81
1768.00,98.81
1767.00,98.81
1766.00,98.81
1765.00,98.80
1764.00,98.80
1763.00,98.78
1762.00,98.77
1761.00,98.76
1760.00,98.76
1759.00,98.76
1758.00,98.75
1757.00,98.73
1756.00,98.71
1755.00,98.68
1754.00,98.65
1753.00,98.61
1752.00,98.56
1751.00,98.47
1750.00,98.35
1749.00,98.22
1748.00,98.07
1747.00,97.91
1746.00,97.72
1745.00,97.49
1744.00,97.21
1743.00,96.90
1742.00,96.55
1741.00,96.18
1740.00,95.76
1739.00,95.34
1738.00,94.98
1737.00,94.67
1736.00,94.34
1735.00,93.90
1734.00,93.36
1733.00,92.85
1732.00,92.44
1731.00,92.05
1730.00,91.64
1729.00,91.22
1728.00,90.81
1727.00,90.40
1726.00,89.99
1725.00,89.57
1724.00,89.14
1723.00,88.72
1722.00,88.32
1721.00,87.95
1720.00,87.58
1719.00,87.16
1718.00,86.67
1717.00,86.22
1716.00,85.87
1715.00,85.60
1714.00,85.40
1713.00,85.31
1712.00,85.34
1711.00,85.47
1710.00,85.67
1709.00,85.96
1708.00,86.32
1707.00,86.77
1706.00,87.29
1705.00,87.84
1704.00,88.31
1703.00,88.69
1702.00,89.07
1701.00,89.58
1700.00,90.17
1699.00,90.63
1698.00,90.92
1697.00,91.18
1696.00,91.50
1695.00,91.84
1694.00,92.10
1693.00,92.29
1692.00,92.46
1691.00,92.64
1690.00,92.82
1689.00,92.97
1688.00,93.09
1687.00,93.18
1686.00,93.26
1685.00,93.37
1684.00,93.47
1683.00,93.56
1682.00,93.63
1681.00,93.70
1680.00,93.79
1679.00,93.88
1678.00,93.96
1677.00,94.04
1676.00,94.12
1675.00,94.21
1674.00,94.28
1673.00,94.35
1672.00,94.41
1671.00,94.48
1670.00,94.56
1669.00,94.64
1668.00,94.71
1667.00,94.76
1666.00,94.81
1665.00,94.86
1664.00,94.93
1663.00,95.01
1662.00,95.10
1661.00,95.16
1660.00,95.20
1659.00,95.24
1658.00,95.27
1657.00,95.31
1656.00,95.34
1655.00,95.36
1654.00,95.37
1653.00,95.38
1652.00,95.38
1651.00,95.40
1650.00,95.42
1649.00,95.43
1648.00,95.44
1647.00,95.45
1646.00,95.46
1645.00,95.47
1644.00,95.49
1643.00,95.53
1642.00,95.56
1641.00,95.60
1640.00,95.62
1639.00,95.63
1638.00,95.64
1637.00,95.64
1636.00,95.65
1635.00,95.68
1634.00,95.71
1633.00,95.74
1632.00,95.75
1631.00,95.77
1630.00,95.78
1629.00,95.80
1628.00,95.82
1627.00,95.84
1626.00,95.86
1625.00,95.89
1624.00,95.91
1623.00,95.93
1622.00,95.94
1621.00,95.94
1620.00,95.93
1619.00,95.92
1618.00,95.91
1617.00,95.89
1616.00,95.87
1615.00,95.86
1614.00,95.86
1613.00,95.88
1612.00,95.89
1611.00,95.92
1610.00,95.96
1609.00,96.00
1608.00,96.04
1607.00,96.08
1606.00,96.12
1605.00,96.16
1604.00,96.18
1603.00,96.21
1602.00,96.23
1601.00,96.25
1600.00,96.27
1599.00,96.29
1598.00,96.32
1597.00,96.36
1596.00,96.38
1595.00,96.41
1594.00,96.44
1593.00,96.46
1592.00,96.48
1591.00,96.50
1590.00,96.53
1589.00,96.54
1588.00,96.55
1587.00,96.54
1586.00,96.52
1585.00,96.49
1584.00,96.45
1583.00,96.41
1582.00,96.37
1581.00,96.33
1580.00,96.30
1579.00,96.28
1578.00,96.28
1577.00,96.30
1576.00,96.35
1575.00,96.41
1574.00,96.47
1573.00,96.52
1572.00,96.57
1571.00,96.62
1570.00,96.69
1569.00,96.74
1568.00,96.79
1567.00,96.82
1566.00,96.84
1565.00,96.87
1564.00,96.89
1563.00,96.92
1562.00,96.95
1561.00,96.98
1560.00,97.02
1559.00,97.04
1558.00,97.05
1557.00,97.06
1556.00,97.08
1555.00,97.11
1554.00,97.13
1553.00,97.15
1552.00,97.16
1551.00,97.17
1550.00,97.18
1549.00,97.20
1548.00,97.21
1547.00,97.23
1546.00,97.24
1545.00,97.25
1544.00,97.25
1543.00,97.26
1542.00,97.27
1541.00,97.28
1540.00,97.29
1539.00,97.30
1538.00,97.30
1537.00,97.30
1536.00,97.30
1535.00,97.31
1534.00,97.33
1533.00,97.36
1532.00,97.37
1531.00,97.38
1530.00,97.38
1529.00,97.38
1528.00,97.38
1527.00,97.39
1526.00,97.38
1525.00,97.37
1524.00,97.36
1523.00,97.37
1522.00,97.41
1521.00,97.45
1520.00,97.47
1519.00,97.48
1518.00,97.49
1517.00,97.50
1516.00,97.51
1515.00,97.52
1514.00,97.51
1513.00,97.49
1512.00,97.44
1511.00,97.37
1510.00,97.26
1509.00,97.11
1508.00,96.86
1507.00,96.54
1506.00,96.29
1505.00,96.22
1504.00,96.30
1503.00,96.45
1502.00,96.63
1501.00,96.82
1500.00,97.00
1499.00,97.15
1498.00,97.28
1497.00,97.37
1496.00,97.44
1495.00,97.48
1494.00,97.51
1493.00,97.52
1492.00,97.53
1491.00,97.52
1490.00,97.49
1489.00,97.45
1488.00,97.39
1487.00,97.32
1486.00,97.25
1485.00,97.17
1484.00,97.09
1483.00,96.99
1482.00,96.90
1481.00,96.82
1480.00,96.75
1479.00,96.68
1478.00,96.62
1477.00,96.53
1476.00,96.43
1475.00,96.30
1474.00,96.16
1473.00,96.01
1472.00,95.91
1471.00,95.89
1470.00,95.92
1469.00,95.98
1468.00,96.03
1467.00,96.06
1466.00,96.07
1465.00,96.04
1464.00,95.99
1463.00,95.94
1462.00,95.90
1461.00,95.86
1460.00,95.83
1459.00,95.79
1458.00,95.74
1457.00,95.67
1456.00,95.61
1455.00,95.58
1454.00,95.57
1453.00,95.56
1452.00,95.56
1451.00,95.55
1450.00,95.55
1449.00,95.57
1448.00,95.59
1447.00,95.61
1446.00,95.63
1445.00,95.64
1444.00,95.64
1443.00,95.65
1442.00,95.66
1441.00,95.66
1440.00,95.66
1439.00,95.65
1438.00,95.63
1437.00,95.60
1436.00,95.57
1435.00,95.55
1434.00,95.55
1433.00,95.55
1432.00,95.55
1431.00,95.55
1430.00,95.55
1429.00,95.56
1428.00,95.58
1427.00,95.60
1426.00,95.62
1425.00,95.64
1424.00,95.67
1423.00,95.69
1422.00,95.70
1421.00,95.70
1420.00,95.67
1419.00,95.59
1418.00,95.45
1417.00,95.25
1416.00,94.97
1415.00,94.63
1414.00,94.22
1413.00,93.76
1412.00,93.31
1411.00,92.91
1410.00,92.62
1409.00,92.47
1408.00,92.46
1407.00,92.59
1406.00,92.85
1405.00,93.19
1404.00,93.54
1403.00,93.87
1402.00,94.14
1401.00,94.38
1400.00,94.60
1399.00,94.80
1398.00,94.97
1397.00,95.11
1396.00,95.22
1395.00,95.32
1394.00,95.39
1393.00,95.44
1392.00,95.48
1391.00,95.50
1390.00,95.51
1389.00,95.52
1388.00,95.51
1387.00,95.48
1386.00,95.43
1385.00,95.38
1384.00,95.33
1383.00,95.28
1382.00,95.22
1381.00,95.16
1380.00,95.09
1379.00,95.02
1378.00,94.94
1377.00,94.87
1376.00,94.78
1375.00,94.68
1374.00,94.58
1373.00,94.49
1372.00,94.42
1371.00,94.38
1370.00,94.38
1369.00,94.41
1368.00,94.45
1367.00,94.52
1366.00,94.60
1365.00,94.69
1364.00,94.77
1363.00,94.84
1362.00,94.90
1361.00,94.95
1360.00,95.00
1359.00,95.04
1358.00,95.08
1357.00,95.11
1356.00,95.13
1355.00,95.13
1354.00,95.12
1353.00,95.09
1352.00,95.04
1351.00,94.95
1350.00,94.81
1349.00,94.60
1348.00,94.32
1347.00,93.95
1346.00,93.51
1345.00,93.00
1344.00,92.47
1343.00,91.94
1342.00,91.47
1341.00,91.10
1340.00,90.85
1339.00,90.77
1338.00,90.85
1337.00,91.08
1336.00,91.40
1335.00,91.81
1334.00,92.26
1333.00,92.73
1332.00,93.18
1331.00,93.59
1330.00,93.92
1329.00,94.19
1328.00,94.38
1327.00,94.50
1326.00,94.56
1325.00,94.57
1324.00,94.53
1323.00,94.47
1322.00,94.39
1321.00,94.30
1320.00,94.19
1319.00,94.08
1318.00,93.97
1317.00,93.88
1316.00,93.80
1315.00,93.75
1314.00,93.72
1313.00,93.70
1312.00,93.69
1311.00,93.69
1310.00,93.70
1309.00,93.72
1308.00,93.75
1307.00,93.78
1306.00,93.80
1305.00,93.81
1304.00,93.80
1303.00,93.78
1302.00,93.74
1301.00,93.66
1300.00,93.55
1299.00,93.42
1298.00,93.27
1297.00,93.11
1296.00,92.93
1295.00,92.75
1294.00,92.56
1293.00,92.35
1292.00,92.15
1291.00,91.95
1290.00,91.76
1289.00,91.58
1288.00,91.39
1287.00,91.19
1286.00,90.98
1285.00,90.76
1284.00,90.53
1283.00,90.31
1282.00,90.09
1281.00,89.88
1280.00,89.68
1279.00,89.50
1278.00,89.33
1277.00,89.16
1276.00,88.97
1275.00,88.77
1274.00,88.56
1273.00,88.33
1272.00,88.10
1271.00,87.85
1270.00,87.60
1269.00,87.34
1268.00,87.06
1267.00,86.78
1266.00,86.50
1265.00,86.24
1264.00,86.01
1263.00,85.80
1262.00,85.62
1261.00,85.46
1260.00,85.31
1259.00,85.20
1258.00,85.10
1257.00,85.00
1256.00,84.89
1255.00,84.77
1254.00,84.64
1253.00,84.48
1252.00,84.28
1251.00,84.06
1250.00,83.84
1249.00,83.63
1248.00,83.42
1247.00,83.24
1246.00,83.07
1245.00,82.93
1244.00,82.81
1243.00,82.72
1242.00,82.67
1241.00,82.66
1240.00,82.70
1239.00,82.78
1238.00,82.92
1237.00,83.11
1236.00,83.35
1235.00,83.65
1234.00,83.99
1233.00,84.36
1232.00,84.75
1231.00,85.14
1230.00,85.54
1229.00,85.92
1228.00,86.28
1227.00,86.63
1226.00,86.95
1225.00,87.25
1224.00,87.52
1223.00,87.78
1222.00,88.05
1221.00,88.31
1220.00,88.59
1219.00,88.87
1218.00,89.15
1217.00,89.41
1216.00,89.64
1215.00,89.85
1214.00,90.04
1213.00,90.21
1212.00,90.34
1211.00,90.44
1210.00,90.51
1209.00,90.58
1208.00,90.66
1207.00,90.77
1206.00,90.89
1205.00,91.03
1204.00,91.18
1203.00,91.33
1202.00,91.48
1201.00,91.63
1200.00,91.81
1199.00,92.01
1198.00,92.21
1197.00,92.41
1196.00,92.60
1195.00,92.79
1194.00,92.98
1193.00,93.15
1192.00,93.31
1191.00,93.47
1190.00,93.60
1189.00,93.72
1188.00,93.81
1187.00,93.90
1186.00,93.96
1185.00,94.00
1184.00,94.01
1183.00,94.00
1182.00,93.97
1181.00,93.92
1180.00,93.85
1179.00,93.78
1178.00,93.69
1177.00,93.58
1176.00,93.46
1175.00,93.32
1174.00,93.19
1173.00,93.05
1172.00,92.91
1171.00,92.77
1170.00,92.63
1169.00,92.47
1168.00,92.29
1167.00,92.09
1166.00,91.90
1165.00,91.74
1164.00,91.61
1163.00,91.52
1162.00,91.47
1161.00,91.46
1160.00,91.48
1159.00,91.54
1158.00,91.62
1157.00,91.71
1156.00,91.80
1155.00,91.88
1154.00,91.94
1153.00,91.98
1152.00,92.00
1151.00,92.02
1150.00,92.04
1149.00,92.06
1148.00,92.07
1147.00,92.07
1146.00,92.05
1145.00,92.01
1144.00,91.96
1143.00,91.88
1142.00,91.77
1141.00,91.61
1140.00,91.40
1139.00,91.13
1138.00,90.81
1137.00,90.45
1136.00,90.05
1135.00,89.63
1134.00,89.19
1133.00,88.73
1132.00,88.23
1131.00,87.69
1130.00,87.13
1129.00,86.56
1128.00,86.01
1127.00,85.49
1126.00,84.98
1125.00,84.50
1124.00,84.07
1123.00,83.70
1122.00,83.38
1121.00,83.10
1120.00,82.83
1119.00,82.58
1118.00,82.33
1117.00,82.06
1116.00,81.79
1115.00,81.51
1114.00,81.24
1113.00,80.97
1112.00,80.71
1111.00,80.50
1110.00,80.30
1109.00,80.07
1108.00,79.81
1107.00,79.52
1106.00,79.22
1105.00,78.93
1104.00,78.65
1103.00,78.43
1102.00,78.26
1101.00,78.13
1100.00,78.02
1099.00,77.94
1098.00,77.92
1097.00,77.94
1096.00,77.98
1095.00,78.07
1094.00,78.18
1093.00,78.31
1092.00,78.44
1091.00,78.58
1090.00,78.73
1089.00,78.86
1088.00,79.00
1087.00,79.15
1086.00,79.33
1085.00,79.50
1084.00,79.64
1083.00,79.77
1082.00,79.89
1081.00,80.00
1080.00,80.11
1079.00,80.25
1078.00,80.42
1077.00,80.59
1076.00,80.77
1075.00,80.93
1074.00,81.09
1073.00,81.21
1072.00,81.30
1071.00,81.37
1070.00,81.40
1069.00,81.37
1068.00,81.27
1067.00,81.15
1066.00,81.01
1065.00,80.84
1064.00,80.63
1063.00,80.40
1062.00,80.18
1061.00,79.97
1060.00,79.78
1059.00,79.65
1058.00,79.57
1057.00,79.53
1056.00,79.52
1055.00,79.55
1054.00,79.62
1053.00,79.71
1052.00,79.83
1051.00,79.99
1050.00,80.18
1049.00,80.37
1048.00,80.53
1047.00,80.70
1046.00,80.87
1045.00,81.02
1044.00,81.13
1043.00,81.20
1042.00,81.22
1041.00,81.19
1040.00,81.11
1039.00,81.00
1038.00,80.86
1037.00,80.70
1036.00,80.56
1035.00,80.45
1034.00,80.40
1033.00,80.39
1032.00,80.42
1031.00,80.49
1030.00,80.57
1029.00,80.61
1028.00,80.56
1027.00,80.38
1026.00,80.05
1025.00,79.60
1024.00,79.08
1023.00,78.57
1022.00,78.09
1021.00,77.62
1020.00,77.17
1019.00,76.78
1018.00,76.52
1017.00,76.44
1016.00,76.57
1015.00,76.92
1014.00,77.42
1013.00,78.00
1012.00,78.59
1011.00,79.13
1010.00,79.59
1009.00,79.95
1008.00,80.24
1007.00,80.49
1006.00,80.70
1005.00,80.88
1004.00,81.02
1003.00,81.13
1002.00,81.23
1001.00,81.34
1000.00,81.46
999.00,81.61
998.00,81.78
997.00,81.96
996.00,82.13
995.00,82.30
994.00,82.45
993.00,82.59
992.00,82.69
991.00,82.78
990.00,82.84
989.00,82.89
988.00,82.92
987.00,82.95
986.00,82.97
985.00,82.99
984.00,83.03
983.00,83.13
982.00,83.30
981.00,83.51
980.00,83.73
979.00,83.96
978.00,84.17
977.00,84.35
976.00,84.47
975.00,84.57
974.00,84.65
973.00,84.73
972.00,84.81
971.00,84.91
970.00,85.03
969.00,85.17
968.00,85.35
967.00,85.56
966.00,85.79
965.00,86.03
964.00,86.27
963.00,86.50
962.00,86.73
961.00,86.94
960.00,87.13
959.00,87.32
958.00,87.51
957.00,87.69
956.00,87.86
955.00,88.03
954.00,88.19
953.00,88.34
952.00,88.50
951.00,88.65
950.00,88.80
949.00,88.94
948.00,89.05
947.00,89.16
946.00,89.27
945.00,89.39
944.00,89.51
943.00,89.62
942.00,89.74
941.00,89.83
940.00,89.92
939.00,90.00
938.00,90.08
937.00,90.16
936.00,90.24
935.00,90.31
934.00,90.38
933.00,90.44
932.00,90.49
931.00,90.55
930.00,90.63
929.00,90.71
928.00,90.78
927.00,90.84
926.00,90.88
925.00,90.91
924.00,90.95
923.00,91.00
922.00,91.06
921.00,91.11
920.00,91.16
919.00,91.22
918.00,91.26
917.00,91.28
916.00,91.27
915.00,91.25
914.00,91.24
913.00,91.24
912.00,91.24
911.00,91.22
910.00,91.18
909.00,91.12
908.00,91.06
907.00,91.01
906.00,90.95
905.00,90.89
904.00,90.81
903.00,90.73
902.00,90.66
901.00,90.60
900.00,90.56
899.00,90.54
898.00,90.52
897.00,90.52
896.00,90.54
895.00,90.58
894.00,90.64
893.00,90.70
892.00,90.75
891.00,90.80
890.00,90.85
889.00,90.92
888.00,91.00
887.00,91.07
886.00,91.10
885.00,91.10
884.00,91.05
883.00,90.97
882.00,90.86
881.00,90.72
880.00,90.56
879.00,90.38
878.00,90.14
877.00,89.81
876.00,89.35
875.00,88.78
874.00,88.17
873.00,87.66
872.00,87.43
871.00,87.57
870.00,88.00
869.00,88.55
868.00,89.08
867.00,89.50
866.00,89.84
865.00,90.10
864.00,90.30
863.00,90.44
862.00,90.53
861.00,90.57
860.00,90.58
859.00,90.58
858.00,90.57
857.00,90.56
856.00,90.53
855.00,90.48
854.00,90.43
853.00,90.34
852.00,90.23
851.00,90.07
850.00,89.91
849.00,89.76
848.00,89.65
847.00,89.61
846.00,89.64
845.00,89.73
844.00,89.86
843.00,90.00
842.00,90.16
841.00,90.30
840.00,90.42
839.00,90.53
838.00,90.62
837.00,90.69
836.00,90.75
835.00,90.84
834.00,90.95
833.00,91.08
832.00,91.19
831.00,91.29
830.00,91.36
829.00,91.42
828.00,91.47
827.00,91.52
826.00,91.56
825.00,91.60
824.00,91.63
823.00,91.67
822.00,91.71
821.00,91.75
820.00,91.77
819.00,91.77
818.00,91.78
817.00,91.80
816.00,91.82
815.00,91.84
814.00,91.87
813.00,91.90
812.00,91.94
811.00,91.98
810.00,91.99
809.00,91.98
808.00,91.95
807.00,91.94
806.00,91.95
805.00,91.99
804.00,92.03
803.00,92.06
802.00,92.08
801.00,92.10
800.00,92.09
799.00,92.06
798.00,91.98
797.00,91.85
796.00,91.71
795.00,91.58
794.00,91.48
793.00,91.42
792.00,91.40
791.00,91.44
790.00,91.53
789.00,91.63
788.00,91.71
787.00,91.79
786.00,91.87
785.00,91.96
784.00,92.05
783.00,92.12
782.00,92.18
781.00,92.23
780.00,92.28
779.00,92.33
778.00,92.39
777.00,92.43
776.00,92.48
775.00,92.52
774.00,92.58
773.00,92.62
772.00,92.64
771.00,92.65
770.00,92.69
769.00,92.74
768.00,92.80
767.00,92.86
766.00,92.91
765.00,92.96
764.00,92.99
763.00,93.03
762.00,93.06
761.00,93.09
760.00,93.11
759.00,93.12
758.00,93.13
757.00,93.16
756.00,93.20
755.00,93.25
754.00,93.32
753.00,93.39
752.00,93.44
751.00,93.48
750.00,93.51
749.00,93.53
748.00,93.53
747.00,93.52
746.00,93.50
745.00,93.45
744.00,93.37
743.00,93.23
742.00,93.01
741.00,92.69
740.00,92.26
739.00,91.70
738.00,91.01
737.00,90.19
736.00,89.24
735.00,88.18
734.00,87.02
733.00,85.79
732.00,84.51
731.00,83.22
730.00,81.94
729.00,80.64
728.00,79.32
727.00,78.00
726.00,76.74
725.00,75.65
724.00,74.85
723.00,74.44
722.00,74.42
721.00,74.75
720.00,75.33
719.00,76.06
718.00,76.85
717.00,77.64
716.00,78.38
715.00,79.02
714.00,79.57
713.00,80.03
712.00,80.42
711.00,80.78
710.00,81.11
709.00,81.41
708.00,81.69
707.00,81.95
706.00,82.20
705.00,82.41
704.00,82.58
703.00,82.73
702.00,82.91
701.00,83.12
700.00,83.36
699.00,83.60
698.00,83.84
697.00,84.05
696.00,84.23
695.00,84.42
694.00,84.59
693.00,84.75
692.00,84.86
691.00,84.95
690.00,85.03
689.00,85.11
688.00,85.20
687.00,85.29
686.00,85.37
685.00,85.40
684.00,85.38
683.00,85.35
682.00,85.31
681.00,85.26
680.00,85.17
679.00,85.09
678.00,85.03
677.00,84.97
676.00,84.89
675.00,84.80
674.00,84.72
673.00,84.66
672.00,84.61
671.00,84.54
670.00,84.45
669.00,84.33
668.00,84.18
667.00,84.08
666.00,84.06
665.00,84.06
664.00,84.05
663.00,84.05
662.00,84.09
661.00,84.16
660.00,84.26
659.00,84.40
658.00,84.59
657.00,84.79
656.00,84.97
655.00,85.14
654.00,85.28
653.00,85.39
652.00,85.43
651.00,85.41
650.00,85.36
649.00,85.31
648.00,85.27
647.00,85.26
646.00,85.31
645.00,85.39
644.00,85.47
643.00,85.49
642.00,85.42
641.00,85.31
640.00,85.22
639.00,85.22
638.00,85.25
637.00,85.23
636.00,85.11
635.00,84.90
634.00,84.68
633.00,84.51
632.00,84.38
631.00,84.30
630.00,84.26
629.00,84.26
628.00,84.31
627.00,84.43
626.00,84.58
625.00,84.64
624.00,84.52
623.00,84.30
622.00,84.09
621.00,83.89
620.00,83.68
619.00,83.47
618.00,83.41
617.00,83.57
616.00,83.84
615.00,84.04
614.00,84.02
613.00,83.83
612.00,83.64
611.00,83.59
610.00,83.66
609.00,83.69
608.00,83.60
607.00,83.47
606.00,83.39
605.00,83.40
604.00,83.49
603.00,83.64
602.00,83.81
601.00,83.95
600.00,84.01
599.00,84.02
598.00,84.02
597.00,84.02
596.00,83.97
595.00,83.87
594.00,83.71
593.00,83.56
592.00,83.52
591.00,83.62
590.00,83.78
589.00,83.91
588.00,84.02
587.00,84.18
586.00,84.32
585.00,84.27
584.00,84.06
583.00,83.94
582.00,84.11
581.00,84.47
580.00,84.80
579.00,84.95
578.00,84.90
577.00,84.66
576.00,84.30
575.00,83.98
574.00,83.78
573.00,83.67
572.00,83.63
571.00,83.71
570.00,83.84
569.00,83.83
568.00,83.59
567.00,83.30
566.00,83.09
565.00,82.96
564.00,82.88
563.00,82.95
562.00,83.16
561.00,83.33
560.00,83.33
559.00,83.18
558.00,82.88
557.00,82.36
556.00,81.73
555.00,81.32
554.00,81.32
553.00,81.59
552.00,81.93
551.00,82.36
550.00,82.89
