Created as New Dataset,6.2 Natural brown fiber
cm-1,%T
4000.00,97.71
3999.00,97.70
3998.00,97.69
3997.00,97.69
3996.00,97.68
3995.00,97.68
3994.00,97.68
3993.00,97.69
3992.00,97.70
3991.00,97.70
3990.00,97.70
3989.00,97.69
3988.00,97.68
3987.00,97.67
3986.00,97.66
3985.00,97.66
3984.00,97.67
3983.00,97.67
3982.00,97.68
3981.00,97.68
3980.00,97.67
3979.00,97.67
3978.00,97.67
3977.00,97.67
3976.00,97.68
3975.00,97.68
3974.00,97.69
3973.00,97.68
3972.00,97.68
3971.00,97.68
3970.00,97.68
3969.00,97.68
3968.00,97.68
3967.00,97.68
3966.00,97.69
3965.00,97.69
3964.00,97.70
3963.00,97.70
3962.00,97.71
3961.00,97.71
3960.00,97.72
3959.00,97.72
3958.00,97.71
3957.00,97.71
3956.00,97.71
3955.00,97.71
3954.00,97.72
3953.00,97.72
3952.00,97.72
3951.00,97.73
3950.00,97.72
3949.00,97.72
3948.00,97.72
3947.00,97.72
3946.00,97.72
3945.00,97.72
3944.00,97.73
3943.00,97.73
3942.00,97.73
3941.00,97.73
3940.00,97.72
3939.00,97.72
3938.00,97.72
3937.00,97.72
3936.00,97.72
3935.00,97.71
3934.00,97.71
3933.00,97.71
3932.00,97.70
3931.00,97.70
3930.00,97.71
3929.00,97.71
3928.00,97.71
3927.00,97.70
3926.00,97.70
3925.00,97.70
3924.00,97.70
3923.00,97.70
3922.00,97.70
3921.00,97.70
3920.00,97.70
3919.00,97.70
3918.00,97.71
3917.00,97.71
3916.00,97.72
3915.00,97.72
3914.00,97.72
3913.00,97.72
3912.00,97.72
3911.00,97.72
3910.00,97.73
3909.00,97.72
3908.00,97.72
3907.00,97.71
3906.00,97.70
3905.00,97.70
3904.00,97.70
3903.00,97.69
3902.00,97.68
3901.00,97.68
3900.00,97.68
3899.00,97.70
3898.00,97.71
3897.00,97.72
3896.00,97.72
3895.00,97.73
3894.00,97.73
3893.00,97.74
3892.00,97.75
3891.00,97.75
3890.00,97.75
3889.00,97.73
3888.00,97.71
3887.00,97.70
3886.00,97.71
3885.00,97.71
3884.00,97.70
3883.00,97.69
3882.00,97.69
3881.00,97.70
3880.00,97.71
3879.00,97.72
3878.00,97.71
3877.00,97.71
3876.00,97.71
3875.00,97.72
3874.00,97.72
3873.00,97.71
3872.00,97.71
3871.00,97.71
3870.00,97.71
3869.00,97.72
3868.00,97.71
3867.00,97.70
3866.00,97.70
3865.00,97.71
3864.00,97.71
3863.00,97.72
3862.00,97.73
3861.00,97.74
3860.00,97.75
3859.00,97.75
3858.00,97.74
3857.00,97.72
3856.00,97.71
3855.00,97.72
3854.00,97.73
3853.00,97.73
3852.00,97.72
3851.00,97.72
3850.00,97.73
3849.00,97.74
3848.00,97.76
3847.00,97.77
3846.00,97.78
3845.00,97.78
3844.00,97.79
3843.00,97.78
3842.00,97.77
3841.00,97.76
3840.00,97.75
3839.00,97.74
3838.00,97.73
3837.00,97.72
3836.00,97.71
3835.00,97.71
3834.00,97.71
3833.00,97.72
3832.00,97.74
3831.00,97.75
3830.00,97.74
3829.00,97.74
3828.00,97.74
3827.00,97.74
3826.00,97.74
3825.00,97.72
3824.00,97.69
3823.00,97.68
3822.00,97.69
3821.00,97.70
3820.00,97.70
3819.00,97.68
3818.00,97.66
3817.00,97.66
3816.00,97.67
3815.00,97.68
3814.00,97.69
3813.00,97.69
3812.00,97.70
3811.00,97.71
3810.00,97.71
3809.00,97.70
3808.00,97.70
3807.00,97.70
3806.00,97.70
3805.00,97.69
3804.00,97.68
3803.00,97.68
3802.00,97.69
3801.00,97.70
3800.00,97.70
3799.00,97.70
3798.00,97.71
3797.00,97.72
3796.00,97.74
3795.00,97.74
3794.00,97.74
3793.00,97.75
3792.00,97.76
3791.00,97.76
3790.00,97.76
3789.00,97.76
3788.00,97.75
3787.00,97.75
3786.00,97.75
3785.00,97.75
3784.00,97.75
3783.00,97.75
3782.00,97.74
3781.00,97.74
3780.00,97.74
3779.00,97.74
3778.00,97.73
3777.00,97.72
3776.00,97.72
3775.00,97.72
3774.00,97.71
3773.00,97.70
3772.00,97.70
3771.00,97.70
3770.00,97.71
3769.00,97.72
3768.00,97.71
3767.00,97.70
3766.00,97.70
3765.00,97.71
3764.00,97.71
3763.00,97.70
3762.00,97.69
3761.00,97.68
3760.00,97.68
3759.00,97.67
3758.00,97.67
3757.00,97.67
3756.00,97.66
3755.00,97.66
3754.00,97.65
3753.00,97.64
3752.00,97.63
3751.00,97.62
3750.00,97.61
3749.00,97.61
3748.00,97.61
3747.00,97.59
3746.00,97.59
3745.00,97.61
3744.00,97.62
3743.00,97.62
3742.00,97.63
3741.00,97.63
3740.00,97.65
3739.00,97.66
3738.00,97.66
3737.00,97.66
3736.00,97.65
3735.00,97.64
3734.00,97.63
3733.00,97.64
3732.00,97.66
3731.00,97.67
3730.00,97.68
3729.00,97.67
3728.00,97.68
3727.00,97.68
3726.00,97.69
3725.00,97.69
3724.00,97.68
3723.00,97.68
3722.00,97.67
3721.00,97.66
3720.00,97.65
3719.00,97.64
3718.00,97.64
3717.00,97.63
3716.00,97.62
3715.00,97.61
3714.00,97.60
3713.00,97.61
3712.00,97.61
3711.00,97.61
3710.00,97.60
3709.00,97.61
3708.00,97.62
3707.00,97.63
3706.00,97.64
3705.00,97.64
3704.00,97.64
3703.00,97.65
3702.00,97.65
3701.00,97.66
3700.00,97.66
3699.00,97.66
3698.00,97.65
3697.00,97.65
3696.00,97.65
3695.00,97.64
3694.00,97.63
3693.00,97.62
3692.00,97.61
3691.00,97.59
3690.00,97.58
3689.00,97.56
3688.00,97.56
3687.00,97.56
3686.00,97.56
3685.00,97.57
3684.00,97.58
3683.00,97.58
3682.00,97.58
3681.00,97.58
3680.00,97.57
3679.00,97.55
3678.00,97.52
3677.00,97.51
3676.00,97.50
3675.00,97.49
3674.00,97.48
3673.00,97.47
3672.00,97.46
3671.00,97.47
3670.00,97.48
3669.00,97.47
3668.00,97.46
3667.00,97.45
3666.00,97.45
3665.00,97.44
3664.00,97.44
3663.00,97.43
3662.00,97.42
3661.00,97.40
3660.00,97.39
3659.00,97.38
3658.00,97.37
3657.00,97.36
3656.00,97.33
3655.00,97.30
3654.00,97.26
3653.00,97.24
3652.00,97.23
3651.00,97.23
3650.00,97.21
3649.00,97.17
3648.00,97.14
3647.00,97.13
3646.00,97.12
3645.00,97.12
3644.00,97.12
3643.00,97.12
3642.00,97.12
3641.00,97.12
3640.00,97.10
3639.00,97.08
3638.00,97.06
3637.00,97.04
3636.00,97.03
3635.00,97.01
3634.00,96.99
3633.00,96.96
3632.00,96.92
3631.00,96.89
3630.00,96.86
3629.00,96.85
3628.00,96.83
3627.00,96.82
3626.00,96.81
3625.00,96.80
3624.00,96.78
3623.00,96.74
3622.00,96.71
3621.00,96.67
3620.00,96.64
3619.00,96.61
3618.00,96.59
3617.00,96.56
3616.00,96.54
3615.00,96.52
3614.00,96.49
3613.00,96.46
3612.00,96.42
3611.00,96.40
3610.00,96.38
3609.00,96.37
3608.00,96.36
3607.00,96.34
3606.00,96.33
3605.00,96.31
3604.00,96.30
3603.00,96.28
3602.00,96.26
3601.00,96.23
3600.00,96.20
3599.00,96.16
3598.00,96.11
3597.00,96.08
3596.00,96.05
3595.00,96.02
3594.00,96.00
3593.00,95.97
3592.00,95.94
3591.00,95.92
3590.00,95.89
3589.00,95.86
3588.00,95.82
3587.00,95.77
3586.00,95.73
3585.00,95.71
3584.00,95.69
3583.00,95.68
3582.00,95.66
3581.00,95.64
3580.00,95.61
3579.00,95.57
3578.00,95.54
3577.00,95.51
3576.00,95.47
3575.00,95.44
3574.00,95.40
3573.00,95.37
3572.00,95.34
3571.00,95.31
3570.00,95.27
3569.00,95.23
3568.00,95.18
3567.00,95.13
3566.00,95.09
3565.00,95.05
3564.00,95.02
3563.00,95.00
3562.00,94.98
3561.00,94.94
3560.00,94.91
3559.00,94.87
3558.00,94.84
3557.00,94.80
3556.00,94.77
3555.00,94.74
3554.00,94.70
3553.00,94.67
3552.00,94.63
3551.00,94.58
3550.00,94.55
3549.00,94.51
3548.00,94.47
3547.00,94.43
3546.00,94.37
3545.00,94.32
3544.00,94.28
3543.00,94.25
3542.00,94.22
3541.00,94.20
3540.00,94.16
3539.00,94.12
3538.00,94.08
3537.00,94.04
3536.00,94.01
3535.00,93.98
3534.00,93.94
3533.00,93.91
3532.00,93.87
3531.00,93.83
3530.00,93.77
3529.00,93.72
3528.00,93.66
3527.00,93.61
3526.00,93.57
3525.00,93.52
3524.00,93.49
3523.00,93.45
3522.00,93.42
3521.00,93.39
3520.00,93.35
3519.00,93.31
3518.00,93.26
3517.00,93.21
3516.00,93.17
3515.00,93.12
3514.00,93.09
3513.00,93.05
3512.00,93.01
3511.00,92.96
3510.00,92.91
3509.00,92.85
3508.00,92.80
3507.00,92.76
3506.00,92.72
3505.00,92.68
3504.00,92.63
3503.00,92.57
3502.00,92.50
3501.00,92.45
3500.00,92.40
3499.00,92.35
3498.00,92.30
3497.00,92.25
3496.00,92.20
3495.00,92.15
3494.00,92.09
3493.00,92.04
3492.00,91.99
3491.00,91.94
3490.00,91.89
3489.00,91.84
3488.00,91.79
3487.00,91.74
3486.00,91.69
3485.00,91.63
3484.00,91.58
3483.00,91.52
3482.00,91.46
3481.00,91.40
3480.00,91.34
3479.00,91.27
3478.00,91.20
3477.00,91.14
3476.00,91.07
3475.00,91.01
3474.00,90.95
3473.00,90.89
3472.00,90.83
3471.00,90.77
3470.00,90.71
3469.00,90.65
3468.00,90.59
3467.00,90.53
3466.00,90.47
3465.00,90.42
3464.00,90.36
3463.00,90.29
3462.00,90.22
3461.00,90.15
3460.00,90.09
3459.00,90.02
3458.00,89.94
3457.00,89.87
3456.00,89.80
3455.00,89.73
3454.00,89.67
3453.00,89.61
3452.00,89.53
3451.00,89.46
3450.00,89.38
3449.00,89.31
3448.00,89.25
3447.00,89.19
3446.00,89.14
3445.00,89.07
3444.00,89.00
3443.00,88.93
3442.00,88.86
3441.00,88.79
3440.00,88.73
3439.00,88.66
3438.00,88.59
3437.00,88.52
3436.00,88.46
3435.00,88.40
3434.00,88.34
3433.00,88.27
3432.00,88.20
3431.00,88.12
3430.00,88.05
3429.00,87.97
3428.00,87.90
3427.00,87.82
3426.00,87.74
3425.00,87.66
3424.00,87.58
3423.00,87.49
3422.00,87.41
3421.00,87.34
3420.00,87.26
3419.00,87.19
3418.00,87.12
3417.00,87.04
3416.00,86.97
3415.00,86.89
3414.00,86.81
3413.00,86.74
3412.00,86.67
3411.00,86.59
3410.00,86.52
3409.00,86.45
3408.00,86.37
3407.00,86.29
3406.00,86.22
3405.00,86.15
3404.00,86.09
3403.00,86.03
3402.00,85.98
3401.00,85.92
3400.00,85.87
3399.00,85.82
3398.00,85.76
3397.00,85.71
3396.00,85.66
3395.00,85.61
3394.00,85.56
3393.00,85.50
3392.00,85.45
3391.00,85.40
3390.00,85.34
3389.00,85.29
3388.00,85.23
3387.00,85.16
3386.00,85.10
3385.00,85.03
3384.00,84.97
3383.00,84.91
3382.00,84.84
3381.00,84.77
3380.00,84.70
3379.00,84.62
3378.00,84.55
3377.00,84.48
3376.00,84.41
3375.00,84.34
3374.00,84.26
3373.00,84.19
3372.00,84.12
3371.00,84.04
3370.00,83.97
3369.00,83.90
3368.00,83.82
3367.00,83.74
3366.00,83.66
3365.00,83.57
3364.00,83.49
3363.00,83.40
3362.00,83.31
3361.00,83.22
3360.00,83.13
3359.00,83.04
3358.00,82.94
3357.00,82.85
3356.00,82.75
3355.00,82.66
3354.00,82.56
3353.00,82.46
3352.00,82.37
3351.00,82.27
3350.00,82.17
3349.00,82.06
3348.00,81.97
3347.00,81.87
3346.00,81.78
3345.00,81.69
3344.00,81.60
3343.00,81.52
3342.00,81.44
3341.00,81.37
3340.00,81.31
3339.00,81.25
3338.00,81.20
3337.00,81.15
3336.00,81.12
3335.00,81.09
3334.00,81.07
3333.00,81.05
3332.00,81.03
3331.00,81.02
3330.00,81.02
3329.00,81.03
3328.00,81.05
3327.00,81.08
3326.00,81.11
3325.00,81.15
3324.00,81.19
3323.00,81.23
3322.00,81.27
3321.00,81.31
3320.00,81.34
3319.00,81.38
3318.00,81.41
3317.00,81.43
3316.00,81.46
3315.00,81.49
3314.00,81.51
3313.00,81.54
3312.00,81.55
3311.00,81.57
3310.00,81.58
3309.00,81.58
3308.00,81.58
3307.00,81.58
3306.00,81.57
3305.00,81.56
3304.00,81.54
3303.00,81.53
3302.00,81.53
3301.00,81.53
3300.00,81.53
3299.00,81.53
3298.00,81.52
3297.00,81.50
3296.00,81.49
3295.00,81.49
3294.00,81.48
3293.00,81.48
3292.00,81.47
3291.00,81.46
3290.00,81.46
3289.00,81.46
3288.00,81.47
3287.00,81.48
3286.00,81.49
3285.00,81.50
3284.00,81.50
3283.00,81.51
3282.00,81.52
3281.00,81.54
3280.00,81.56
3279.00,81.57
3278.00,81.58
3277.00,81.59
3276.00,81.61
3275.00,81.63
3274.00,81.65
3273.00,81.68
3272.00,81.70
3271.00,81.74
3270.00,81.78
3269.00,81.82
3268.00,81.87
3267.00,81.92
3266.00,81.98
3265.00,82.05
3264.00,82.12
3263.00,82.19
3262.00,82.27
3261.00,82.35
3260.00,82.42
3259.00,82.50
3258.00,82.57
3257.00,82.66
3256.00,82.75
3255.00,82.84
3254.00,82.93
3253.00,83.01
3252.00,83.09
3251.00,83.17
3250.00,83.24
3249.00,83.32
3248.00,83.40
3247.00,83.48
3246.00,83.55
3245.00,83.62
3244.00,83.70
3243.00,83.77
3242.00,83.85
3241.00,83.92
3240.00,83.99
3239.00,84.06
3238.00,84.12
3237.00,84.19
3236.00,84.25
3235.00,84.31
3234.00,84.38
3233.00,84.45
3232.00,84.52
3231.00,84.59
3230.00,84.65
3229.00,84.72
3228.00,84.78
3227.00,84.84
3226.00,84.90
3225.00,84.96
3224.00,85.03
3223.00,85.10
3222.00,85.17
3221.00,85.24
3220.00,85.31
3219.00,85.37
3218.00,85.44
3217.00,85.51
3216.00,85.57
3215.00,85.63
3214.00,85.69
3213.00,85.75
3212.00,85.82
3211.00,85.89
3210.00,85.95
3209.00,86.02
3208.00,86.08
3207.00,86.13
3206.00,86.19
3205.00,86.25
3204.00,86.31
3203.00,86.37
3202.00,86.43
3201.00,86.48
3200.00,86.54
3199.00,86.60
3198.00,86.65
3197.00,86.70
3196.00,86.75
3195.00,86.81
3194.00,86.87
3193.00,86.92
3192.00,86.97
3191.00,87.03
3190.00,87.08
3189.00,87.14
3188.00,87.20
3187.00,87.25
3186.00,87.30
3185.00,87.34
3184.00,87.40
3183.00,87.45
3182.00,87.51
3181.00,87.56
3180.00,87.61
3179.00,87.66
3178.00,87.70
3177.00,87.74
3176.00,87.79
3175.00,87.84
3174.00,87.89
3173.00,87.94
3172.00,87.99
3171.00,88.04
3170.00,88.09
3169.00,88.13
3168.00,88.18
3167.00,88.23
3166.00,88.28
3165.00,88.32
3164.00,88.36
3163.00,88.41
3162.00,88.45
3161.00,88.50
3160.00,88.55
3159.00,88.60
3158.00,88.65
3157.00,88.69
3156.00,88.73
3155.00,88.77
3154.00,88.81
3153.00,88.84
3152.00,88.88
3151.00,88.93
3150.00,88.97
3149.00,89.02
3148.00,89.07
3147.00,89.11
3146.00,89.14
3145.00,89.18
3144.00,89.21
3143.00,89.25
3142.00,89.30
3141.00,89.34
3140.00,89.37
3139.00,89.41
3138.00,89.45
3137.00,89.49
3136.00,89.53
3135.00,89.56
3134.00,89.59
3133.00,89.63
3132.00,89.68
3131.00,89.72
3130.00,89.76
3129.00,89.79
3128.00,89.82
3127.00,89.85
3126.00,89.89
3125.00,89.92
3124.00,89.96
3123.00,89.99
3122.00,90.03
3121.00,90.07
3120.00,90.10
3119.00,90.14
3118.00,90.17
3117.00,90.21
3116.00,90.24
3115.00,90.27
3114.00,90.30
3113.00,90.33
3112.00,90.36
3111.00,90.40
3110.00,90.43
3109.00,90.45
3108.00,90.48
3107.00,90.51
3106.00,90.55
3105.00,90.59
3104.00,90.62
3103.00,90.65
3102.00,90.68
3101.00,90.70
3100.00,90.74
3099.00,90.77
3098.00,90.81
3097.00,90.84
3096.00,90.87
3095.00,90.90
3094.00,90.93
3093.00,90.96
3092.00,90.99
3091.00,91.02
3090.00,91.05
3089.00,91.08
3088.00,91.10
3087.00,91.13
3086.00,91.16
3085.00,91.19
3084.00,91.21
3083.00,91.23
3082.00,91.26
3081.00,91.29
3080.00,91.31
3079.00,91.34
3078.00,91.37
3077.00,91.40
3076.00,91.43
3075.00,91.45
3074.00,91.48
3073.00,91.50
3072.00,91.53
3071.00,91.55
3070.00,91.58
3069.00,91.61
3068.00,91.63
3067.00,91.65
3066.00,91.68
3065.00,91.71
3064.00,91.73
3063.00,91.76
3062.00,91.79
3061.00,91.81
3060.00,91.84
3059.00,91.86
3058.00,91.89
3057.00,91.92
3056.00,91.95
3055.00,91.98
3054.00,91.99
3053.00,92.01
3052.00,92.03
3051.00,92.06
3050.00,92.09
3049.00,92.11
3048.00,92.14
3047.00,92.17
3046.00,92.20
3045.00,92.23
3044.00,92.25
3043.00,92.27
3042.00,92.29
3041.00,92.30
3040.00,92.32
3039.00,92.34
3038.00,92.36
3037.00,92.39
3036.00,92.41
3035.00,92.43
3034.00,92.44
3033.00,92.46
3032.00,92.49
3031.00,92.51
3030.00,92.54
3029.00,92.56
3028.00,92.58
3027.00,92.60
3026.00,92.62
3025.00,92.64
3024.00,92.66
3023.00,92.68
3022.00,92.69
3021.00,92.71
3020.00,92.73
3019.00,92.74
3018.00,92.76
3017.00,92.78
3016.00,92.81
3015.00,92.83
3014.00,92.84
3013.00,92.85
3012.00,92.86
3011.00,92.87
3010.00,92.89
3009.00,92.91
3008.00,92.93
3007.00,92.95
3006.00,92.96
3005.00,92.97
3004.00,92.98
3003.00,92.99
3002.00,93.00
3001.00,93.01
3000.00,93.02
2999.00,93.03
2998.00,93.04
2997.00,93.06
2996.00,93.07
2995.00,93.07
2994.00,93.08
2993.00,93.09
2992.00,93.10
2991.00,93.11
2990.00,93.11
2989.00,93.11
2988.00,93.12
2987.00,93.12
2986.00,93.12
2985.00,93.11
2984.00,93.10
2983.00,93.09
2982.00,93.08
2981.00,93.05
2980.00,93.03
2979.00,93.00
2978.00,92.97
2977.00,92.93
2976.00,92.88
2975.00,92.83
2974.00,92.78
2973.00,92.73
2972.00,92.67
2971.00,92.61
2970.00,92.56
2969.00,92.52
2968.00,92.49
2967.00,92.47
2966.00,92.46
2965.00,92.45
2964.00,92.43
2963.00,92.42
2962.00,92.40
2961.00,92.38
2960.00,92.36
2959.00,92.33
2958.00,92.30
2957.00,92.26
2956.00,92.22
2955.00,92.18
2954.00,92.14
2953.00,92.10
2952.00,92.05
2951.00,92.00
2950.00,91.93
2949.00,91.87
2948.00,91.80
2947.00,91.75
2946.00,91.71
2945.00,91.68
2944.00,91.65
2943.00,91.61
2942.00,91.58
2941.00,91.55
2940.00,91.52
2939.00,91.49
2938.00,91.46
2937.00,91.42
2936.00,91.38
2935.00,91.33
2934.00,91.28
2933.00,91.23
2932.00,91.16
2931.00,91.09
2930.00,91.01
2929.00,90.92
2928.00,90.82
2927.00,90.70
2926.00,90.57
2925.00,90.43
2924.00,90.29
2923.00,90.13
2922.00,89.98
2921.00,89.82
2920.00,89.66
2919.00,89.54
2918.00,89.45
2917.00,89.40
2916.00,89.41
2915.00,89.45
2914.00,89.50
2913.00,89.56
2912.00,89.60
2911.00,89.62
2910.00,89.63
2909.00,89.62
2908.00,89.61
2907.00,89.58
2906.00,89.56
2905.00,89.53
2904.00,89.50
2903.00,89.47
2902.00,89.44
2901.00,89.43
2900.00,89.42
2899.00,89.42
2898.00,89.43
2897.00,89.44
2896.00,89.47
2895.00,89.49
2894.00,89.52
2893.00,89.55
2892.00,89.59
2891.00,89.63
2890.00,89.67
2889.00,89.72
2888.00,89.77
2887.00,89.82
2886.00,89.87
2885.00,89.92
2884.00,89.96
2883.00,90.00
2882.00,90.03
2881.00,90.07
2880.00,90.10
2879.00,90.13
2878.00,90.16
2877.00,90.18
2876.00,90.20
2875.00,90.22
2874.00,90.23
2873.00,90.24
2872.00,90.24
2871.00,90.25
2870.00,90.27
2869.00,90.30
2868.00,90.33
2867.00,90.37
2866.00,90.40
2865.00,90.43
2864.00,90.45
2863.00,90.48
2862.00,90.49
2861.00,90.51
2860.00,90.51
2859.00,90.52
2858.00,90.51
2857.00,90.49
2856.00,90.45
2855.00,90.40
2854.00,90.34
2853.00,90.26
2852.00,90.19
2851.00,90.15
2850.00,90.17
2849.00,90.25
2848.00,90.40
2847.00,90.58
2846.00,90.78
2845.00,90.96
2844.00,91.12
2843.00,91.25
2842.00,91.37
2841.00,91.47
2840.00,91.55
2839.00,91.62
2838.00,91.69
2837.00,91.74
2836.00,91.80
2835.00,91.86
2834.00,91.91
2833.00,91.96
2832.00,92.01
2831.00,92.05
2830.00,92.09
2829.00,92.13
2828.00,92.16
2827.00,92.20
2826.00,92.23
2825.00,92.27
2824.00,92.30
2823.00,92.33
2822.00,92.36
2821.00,92.39
2820.00,92.42
2819.00,92.45
2818.00,92.48
2817.00,92.51
2816.00,92.54
2815.00,92.57
2814.00,92.59
2813.00,92.62
2812.00,92.65
2811.00,92.67
2810.00,92.69
2809.00,92.72
2808.00,92.74
2807.00,92.76
2806.00,92.78
2805.00,92.80
2804.00,92.82
2803.00,92.85
2802.00,92.87
2801.00,92.89
2800.00,92.91
2799.00,92.93
2798.00,92.94
2797.00,92.96
2796.00,92.97
2795.00,92.99
2794.00,93.01
2793.00,93.03
2792.00,93.05
2791.00,93.06
2790.00,93.07
2789.00,93.08
2788.00,93.09
2787.00,93.10
2786.00,93.11
2785.00,93.13
2784.00,93.14
2783.00,93.15
2782.00,93.17
2781.00,93.18
2780.00,93.18
2779.00,93.19
2778.00,93.19
2777.00,93.20
2776.00,93.20
2775.00,93.21
2774.00,93.23
2773.00,93.24
2772.00,93.24
2771.00,93.25
2770.00,93.27
2769.00,93.28
2768.00,93.29
2767.00,93.30
2766.00,93.30
2765.00,93.30
2764.00,93.31
2763.00,93.31
2762.00,93.32
2761.00,93.33
2760.00,93.33
2759.00,93.34
2758.00,93.34
2757.00,93.35
2756.00,93.35
2755.00,93.35
2754.00,93.35
2753.00,93.36
2752.00,93.36
2751.00,93.36
2750.00,93.36
2749.00,93.36
2748.00,93.36
2747.00,93.37
2746.00,93.37
2745.00,93.37
2744.00,93.37
2743.00,93.37
2742.00,93.37
2741.00,93.37
2740.00,93.38
2739.00,93.38
2738.00,93.38
2737.00,93.39
2736.00,93.39
2735.00,93.40
2734.00,93.39
2733.00,93.39
2732.00,93.39
2731.00,93.40
2730.00,93.41
2729.00,93.42
2728.00,93.43
2727.00,93.44
2726.00,93.44
2725.00,93.45
2724.00,93.45
2723.00,93.46
2722.00,93.47
2721.00,93.47
2720.00,93.47
2719.00,93.47
2718.00,93.48
2717.00,93.48
2716.00,93.49
2715.00,93.50
2714.00,93.50
2713.00,93.51
2712.00,93.52
2711.00,93.53
2710.00,93.55
2709.00,93.56
2708.00,93.56
2707.00,93.56
2706.00,93.57
2705.00,93.58
2704.00,93.59
2703.00,93.60
2702.00,93.61
2701.00,93.63
2700.00,93.63
2699.00,93.64
2698.00,93.65
2697.00,93.65
2696.00,93.66
2695.00,93.67
2694.00,93.68
2693.00,93.69
2692.00,93.70
2691.00,93.71
2690.00,93.72
2689.00,93.73
2688.00,93.74
2687.00,93.74
2686.00,93.75
2685.00,93.75
2684.00,93.76
2683.00,93.77
2682.00,93.79
2681.00,93.80
2680.00,93.80
2679.00,93.81
2678.00,93.82
2677.00,93.83
2676.00,93.84
2675.00,93.84
2674.00,93.84
2673.00,93.84
2672.00,93.85
2671.00,93.86
2670.00,93.87
2669.00,93.87
2668.00,93.87
2667.00,93.87
2666.00,93.87
2665.00,93.87
2664.00,93.87
2663.00,93.87
2662.00,93.87
2661.00,93.87
2660.00,93.87
2659.00,93.87
2658.00,93.87
2657.00,93.87
2656.00,93.87
2655.00,93.86
2654.00,93.86
2653.00,93.85
2652.00,93.85
2651.00,93.85
2650.00,93.85
2649.00,93.85
2648.00,93.84
2647.00,93.84
2646.00,93.84
2645.00,93.84
2644.00,93.83
2643.00,93.81
2642.00,93.81
2641.00,93.80
2640.00,93.80
2639.00,93.80
2638.00,93.81
2637.00,93.81
2636.00,93.81
2635.00,93.81
2634.00,93.80
2633.00,93.80
2632.00,93.80
2631.00,93.80
2630.00,93.80
2629.00,93.80
2628.00,93.80
2627.00,93.79
2626.00,93.78
2625.00,93.77
2624.00,93.77
2623.00,93.78
2622.00,93.79
2621.00,93.79
2620.00,93.79
2619.00,93.79
2618.00,93.79
2617.00,93.80
2616.00,93.80
2615.00,93.80
2614.00,93.80
2613.00,93.80
2612.00,93.79
2611.00,93.79
2610.00,93.80
2609.00,93.80
2608.00,93.80
2607.00,93.80
2606.00,93.80
2605.00,93.80
2604.00,93.79
2603.00,93.79
2602.00,93.79
2601.00,93.79
2600.00,93.80
2599.00,93.80
2598.00,93.80
2597.00,93.80
2596.00,93.80
2595.00,93.80
2594.00,93.80
2593.00,93.79
2592.00,93.79
2591.00,93.78
2590.00,93.78
2589.00,93.78
2588.00,93.78
2587.00,93.78
2586.00,93.78
2585.00,93.79
2584.00,93.79
2583.00,93.80
2582.00,93.79
2581.00,93.79
2580.00,93.79
2579.00,93.79
2578.00,93.78
2577.00,93.78
2576.00,93.78
2575.00,93.79
2574.00,93.80
2573.00,93.80
2572.00,93.80
2571.00,93.80
2570.00,93.79
2569.00,93.79
2568.00,93.80
2567.00,93.80
2566.00,93.80
2565.00,93.79
2564.00,93.78
2563.00,93.77
2562.00,93.77
2561.00,93.77
2560.00,93.77
2559.00,93.78
2558.00,93.78
2557.00,93.78
2556.00,93.79
2555.00,93.79
2554.00,93.80
2553.00,93.79
2552.00,93.79
2551.00,93.79
2550.00,93.80
2549.00,93.80
2548.00,93.79
2547.00,93.79
2546.00,93.80
2545.00,93.80
2544.00,93.81
2543.00,93.81
2542.00,93.81
2541.00,93.81
2540.00,93.80
2539.00,93.79
2538.00,93.78
2537.00,93.77
2536.00,93.77
2535.00,93.77
2534.00,93.78
2533.00,93.78
2532.00,93.79
2531.00,93.79
2530.00,93.79
2529.00,93.80
2528.00,93.80
2527.00,93.81
2526.00,93.82
2525.00,93.82
2524.00,93.82
2523.00,93.82
2522.00,93.82
2521.00,93.82
2520.00,93.81
2519.00,93.81
2518.00,93.81
2517.00,93.82
2516.00,93.82
2515.00,93.82
2514.00,93.82
2513.00,93.83
2512.00,93.83
2511.00,93.83
2510.00,93.84
2509.00,93.86
2508.00,93.87
2507.00,93.88
2506.00,93.89
2505.00,93.90
2504.00,93.91
2503.00,93.91
2502.00,93.92
2501.00,93.93
2500.00,93.93
2499.00,93.94
2498.00,93.95
2497.00,93.95
2496.00,93.95
2495.00,93.95
2494.00,93.96
2493.00,93.97
2492.00,93.98
2491.00,93.98
2490.00,93.98
2489.00,93.97
2488.00,93.97
2487.00,93.98
2486.00,93.99
2485.00,94.00
2484.00,94.00
2483.00,94.00
2482.00,94.01
2481.00,94.01
2480.00,94.02
2479.00,94.02
2478.00,94.03
2477.00,94.03
2476.00,94.03
2475.00,94.04
2474.00,94.05
2473.00,94.05
2472.00,94.05
2471.00,94.05
2470.00,94.05
2469.00,94.05
2468.00,94.07
2467.00,94.08
2466.00,94.09
2465.00,94.09
2464.00,94.09
2463.00,94.09
2462.00,94.10
2461.00,94.10
2460.00,94.10
2459.00,94.09
2458.00,94.09
2457.00,94.08
2456.00,94.08
2455.00,94.09
2454.00,94.10
2453.00,94.11
2452.00,94.12
2451.00,94.12
2450.00,94.12
2449.00,94.11
2448.00,94.11
2447.00,94.11
2446.00,94.11
2445.00,94.12
2444.00,94.13
2443.00,94.14
2442.00,94.14
2441.00,94.14
2440.00,94.14
2439.00,94.15
2438.00,94.17
2437.00,94.18
2436.00,94.19
2435.00,94.20
2434.00,94.21
2433.00,94.21
2432.00,94.21
2431.00,94.22
2430.00,94.22
2429.00,94.22
2428.00,94.22
2427.00,94.23
2426.00,94.24
2425.00,94.25
2424.00,94.26
2423.00,94.27
2422.00,94.28
2421.00,94.29
2420.00,94.29
2419.00,94.29
2418.00,94.29
2417.00,94.29
2416.00,94.30
2415.00,94.32
2414.00,94.33
2413.00,94.33
2412.00,94.33
2411.00,94.34
2410.00,94.34
2409.00,94.35
2408.00,94.37
2407.00,94.39
2406.00,94.41
2405.00,94.42
2404.00,94.43
2403.00,94.43
2402.00,94.43
2401.00,94.43
2400.00,94.43
2399.00,94.45
2398.00,94.47
2397.00,94.49
2396.00,94.51
2395.00,94.52
2394.00,94.52
2393.00,94.53
2392.00,94.54
2391.00,94.54
2390.00,94.55
2389.00,94.56
2388.00,94.58
2387.00,94.59
2386.00,94.62
2385.00,94.65
2384.00,94.68
2383.00,94.71
2382.00,94.74
2381.00,94.78
2380.00,94.82
2379.00,94.86
2378.00,94.88
2377.00,94.89
2376.00,94.88
2375.00,94.86
2374.00,94.86
2373.00,94.86
2372.00,94.87
2371.00,94.88
2370.00,94.90
2369.00,94.92
2368.00,94.94
2367.00,94.96
2366.00,94.98
2365.00,94.98
2364.00,94.98
2363.00,94.98
2362.00,94.99
2361.00,95.00
2360.00,95.01
2359.00,95.01
2358.00,95.01
2357.00,95.01
2356.00,95.01
2355.00,95.02
2354.00,95.03
2353.00,95.03
2352.00,95.04
2351.00,95.05
2350.00,95.08
2349.00,95.11
2348.00,95.13
2347.00,95.15
2346.00,95.14
2345.00,95.11
2344.00,95.07
2343.00,95.05
2342.00,95.03
2341.00,95.02
2340.00,95.01
2339.00,95.01
2338.00,95.00
2337.00,94.99
2336.00,94.99
2335.00,94.99
2334.00,95.01
2333.00,95.02
2332.00,95.03
2331.00,95.02
2330.00,95.01
2329.00,94.98
2328.00,94.94
2327.00,94.90
2326.00,94.86
2325.00,94.82
2324.00,94.80
2323.00,94.79
2322.00,94.78
2321.00,94.78
2320.00,94.77
2319.00,94.75
2318.00,94.74
2317.00,94.73
2316.00,94.72
2315.00,94.72
2314.00,94.71
2313.00,94.71
2312.00,94.71
2311.00,94.71
2310.00,94.70
2309.00,94.68
2308.00,94.65
2307.00,94.63
2306.00,94.61
2305.00,94.58
2304.00,94.56
2303.00,94.54
2302.00,94.53
2301.00,94.52
2300.00,94.50
2299.00,94.49
2298.00,94.48
2297.00,94.46
2296.00,94.44
2295.00,94.42
2294.00,94.40
2293.00,94.37
2292.00,94.34
2291.00,94.32
2290.00,94.29
2289.00,94.27
2288.00,94.24
2287.00,94.22
2286.00,94.20
2285.00,94.18
2284.00,94.17
2283.00,94.16
2282.00,94.15
2281.00,94.15
2280.00,94.14
2279.00,94.14
2278.00,94.13
2277.00,94.11
2276.00,94.09
2275.00,94.07
2274.00,94.05
2273.00,94.04
2272.00,94.03
2271.00,94.02
2270.00,94.01
2269.00,94.01
2268.00,93.99
2267.00,93.97
2266.00,93.96
2265.00,93.95
2264.00,93.94
2263.00,93.93
2262.00,93.92
2261.00,93.90
2260.00,93.88
2259.00,93.85
2258.00,93.82
2257.00,93.80
2256.00,93.79
2255.00,93.79
2254.00,93.80
2253.00,93.80
2252.00,93.79
2251.00,93.78
2250.00,93.76
2249.00,93.75
2248.00,93.74
2247.00,93.74
2246.00,93.73
2245.00,93.71
2244.00,93.70
2243.00,93.69
2242.00,93.68
2241.00,93.66
2240.00,93.64
2239.00,93.63
2238.00,93.63
2237.00,93.63
2236.00,93.63
2235.00,93.62
2234.00,93.62
2233.00,93.61
2232.00,93.60
2231.00,93.59
2230.00,93.58
2229.00,93.56
2228.00,93.55
2227.00,93.55
2226.00,93.54
2225.00,93.52
2224.00,93.50
2223.00,93.48
2222.00,93.47
2221.00,93.48
2220.00,93.49
2219.00,93.48
2218.00,93.46
2217.00,93.44
2216.00,93.43
2215.00,93.43
2214.00,93.44
2213.00,93.43
2212.00,93.42
2211.00,93.40
2210.00,93.37
2209.00,93.36
2208.00,93.34
2207.00,93.34
2206.00,93.35
2205.00,93.35
2204.00,93.35
2203.00,93.33
2202.00,93.31
2201.00,93.27
2200.00,93.25
2199.00,93.23
2198.00,93.22
2197.00,93.21
2196.00,93.20
2195.00,93.19
2194.00,93.18
2193.00,93.16
2192.00,93.14
2191.00,93.12
2190.00,93.11
2189.00,93.10
2188.00,93.08
2187.00,93.05
2186.00,93.03
2185.00,93.02
2184.00,93.02
2183.00,93.03
2182.00,93.04
2181.00,93.05
2180.00,93.04
2179.00,93.03
2178.00,93.02
2177.00,93.02
2176.00,93.02
2175.00,93.02
2174.00,93.01
2173.00,92.98
2172.00,92.94
2171.00,92.89
2170.00,92.85
2169.00,92.82
2168.00,92.77
2167.00,92.72
2166.00,92.67
2165.00,92.62
2164.00,92.57
2163.00,92.52
2162.00,92.49
2161.00,92.50
2160.00,92.55
2159.00,92.65
2158.00,92.78
2157.00,92.90
2156.00,93.00
2155.00,93.07
2154.00,93.11
2153.00,93.13
2152.00,93.14
2151.00,93.16
2150.00,93.18
2149.00,93.20
2148.00,93.22
2147.00,93.23
2146.00,93.25
2145.00,93.27
2144.00,93.30
2143.00,93.33
2142.00,93.38
2141.00,93.42
2140.00,93.46
2139.00,93.49
2138.00,93.52
2137.00,93.56
2136.00,93.60
2135.00,93.66
2134.00,93.72
2133.00,93.78
2132.00,93.81
2131.00,93.82
2130.00,93.82
2129.00,93.83
2128.00,93.84
2127.00,93.86
2126.00,93.88
2125.00,93.89
2124.00,93.89
2123.00,93.90
2122.00,93.91
2121.00,93.91
2120.00,93.91
2119.00,93.90
2118.00,93.89
2117.00,93.87
2116.00,93.85
2115.00,93.83
2114.00,93.82
2113.00,93.82
2112.00,93.83
2111.00,93.84
2110.00,93.85
2109.00,93.85
2108.00,93.86
2107.00,93.86
2106.00,93.86
2105.00,93.86
2104.00,93.85
2103.00,93.84
2102.00,93.83
2101.00,93.83
2100.00,93.84
2099.00,93.85
2098.00,93.86
2097.00,93.87
2096.00,93.88
2095.00,93.91
2094.00,93.93
2093.00,93.94
2092.00,93.94
2091.00,93.93
2090.00,93.91
2089.00,93.90
2088.00,93.90
2087.00,93.89
2086.00,93.88
2085.00,93.87
2084.00,93.85
2083.00,93.83
2082.00,93.81
2081.00,93.81
2080.00,93.81
2079.00,93.83
2078.00,93.84
2077.00,93.85
2076.00,93.84
2075.00,93.81
2074.00,93.78
2073.00,93.75
2072.00,93.73
2071.00,93.72
2070.00,93.72
2069.00,93.72
2068.00,93.72
2067.00,93.71
2066.00,93.69
2065.00,93.67
2064.00,93.68
2063.00,93.69
2062.00,93.70
2061.00,93.69
2060.00,93.66
2059.00,93.64
2058.00,93.62
2057.00,93.62
2056.00,93.62
2055.00,93.62
2054.00,93.59
2053.00,93.52
2052.00,93.43
2051.00,93.35
2050.00,93.31
2049.00,93.30
2048.00,93.31
2047.00,93.32
2046.00,93.32
2045.00,93.29
2044.00,93.26
2043.00,93.22
2042.00,93.19
2041.00,93.16
2040.00,93.14
2039.00,93.12
2038.00,93.09
2037.00,93.05
2036.00,93.03
2035.00,93.02
2034.00,93.03
2033.00,93.06
2032.00,93.08
2031.00,93.10
2030.00,93.10
2029.00,93.11
2028.00,93.12
2027.00,93.13
2026.00,93.15
2025.00,93.18
2024.00,93.19
2023.00,93.20
2022.00,93.19
2021.00,93.19
2020.00,93.19
2019.00,93.20
2018.00,93.21
2017.00,93.23
2016.00,93.24
2015.00,93.26
2014.00,93.27
2013.00,93.28
2012.00,93.28
2011.00,93.29
2010.00,93.31
2009.00,93.33
2008.00,93.37
2007.00,93.42
2006.00,93.46
2005.00,93.49
2004.00,93.50
2003.00,93.50
2002.00,93.51
2001.00,93.52
2000.00,93.52
1999.00,93.51
1998.00,93.50
1997.00,93.49
1996.00,93.50
1995.00,93.52
1994.00,93.54
1993.00,93.55
1992.00,93.55
1991.00,93.54
1990.00,93.54
1989.00,93.54
1988.00,93.55
1987.00,93.54
1986.00,93.52
1985.00,93.48
1984.00,93.44
1983.00,93.40
1982.00,93.35
1981.00,93.29
1980.00,93.23
1979.00,93.21
1978.00,93.22
1977.00,93.26
1976.00,93.31
1975.00,93.36
1974.00,93.40
1973.00,93.45
1972.00,93.48
1971.00,93.50
1970.00,93.52
1969.00,93.55
1968.00,93.59
1967.00,93.64
1966.00,93.66
1965.00,93.68
1964.00,93.70
1963.00,93.72
1962.00,93.76
1961.00,93.80
1960.00,93.84
1959.00,93.88
1958.00,93.91
1957.00,93.93
1956.00,93.94
1955.00,93.95
1954.00,93.97
1953.00,94.00
1952.00,94.01
1951.00,94.03
1950.00,94.04
1949.00,94.07
1948.00,94.11
1947.00,94.14
1946.00,94.16
1945.00,94.17
1944.00,94.18
1943.00,94.19
1942.00,94.21
1941.00,94.23
1940.00,94.25
1939.00,94.28
1938.00,94.31
1937.00,94.32
1936.00,94.34
1935.00,94.35
1934.00,94.37
1933.00,94.40
1932.00,94.42
1931.00,94.44
1930.00,94.45
1929.00,94.46
1928.00,94.46
1927.00,94.48
1926.00,94.49
1925.00,94.51
1924.00,94.51
1923.00,94.52
1922.00,94.52
1921.00,94.52
1920.00,94.53
1919.00,94.55
1918.00,94.57
1917.00,94.58
1916.00,94.59
1915.00,94.60
1914.00,94.62
1913.00,94.64
1912.00,94.65
1911.00,94.66
1910.00,94.67
1909.00,94.67
1908.00,94.68
1907.00,94.70
1906.00,94.72
1905.00,94.73
1904.00,94.75
1903.00,94.76
1902.00,94.76
1901.00,94.77
1900.00,94.77
1899.00,94.78
1898.00,94.78
1897.00,94.79
1896.00,94.80
1895.00,94.82
1894.00,94.83
1893.00,94.84
1892.00,94.84
1891.00,94.85
1890.00,94.86
1889.00,94.86
1888.00,94.87
1887.00,94.87
1886.00,94.88
1885.00,94.89
1884.00,94.90
1883.00,94.90
1882.00,94.91
1881.00,94.92
1880.00,94.93
1879.00,94.94
1878.00,94.95
1877.00,94.96
1876.00,94.97
1875.00,94.98
1874.00,94.99
1873.00,94.99
1872.00,94.98
1871.00,94.98
1870.00,94.97
1869.00,94.97
1868.00,94.98
1867.00,95.00
1866.00,95.02
1865.00,95.03
1864.00,95.04
1863.00,95.05
1862.00,95.06
1861.00,95.07
1860.00,95.06
1859.00,95.06
1858.00,95.06
1857.00,95.06
1856.00,95.07
1855.00,95.08
1854.00,95.09
1853.00,95.10
1852.00,95.10
1851.00,95.11
1850.00,95.12
1849.00,95.13
1848.00,95.13
1847.00,95.13
1846.00,95.12
1845.00,95.12
1844.00,95.13
1843.00,95.15
1842.00,95.16
1841.00,95.17
1840.00,95.18
1839.00,95.19
1838.00,95.21
1837.00,95.22
1836.00,95.22
1835.00,95.22
1834.00,95.21
1833.00,95.21
1832.00,95.20
1831.00,95.21
1830.00,95.22
1829.00,95.23
1828.00,95.23
1827.00,95.23
1826.00,95.24
1825.00,95.25
1824.00,95.26
1823.00,95.26
1822.00,95.26
1821.00,95.26
1820.00,95.27
1819.00,95.29
1818.00,95.31
1817.00,95.33
1816.00,95.33
1815.00,95.34
1814.00,95.34
1813.00,95.34
1812.00,95.35
1811.00,95.35
1810.00,95.35
1809.00,95.35
1808.00,95.34
1807.00,95.35
1806.00,95.35
1805.00,95.35
1804.00,95.35
1803.00,95.35
1802.00,95.35
1801.00,95.34
1800.00,95.34
1799.00,95.34
1798.00,95.34
1797.00,95.34
1796.00,95.33
1795.00,95.32
1794.00,95.32
1793.00,95.32
1792.00,95.32
1791.00,95.32
1790.00,95.33
1789.00,95.33
1788.00,95.32
1787.00,95.32
1786.00,95.31
1785.00,95.31
1784.00,95.30
1783.00,95.29
1782.00,95.28
1781.00,95.28
1780.00,95.28
1779.00,95.28
1778.00,95.28
1777.00,95.27
1776.00,95.25
1775.00,95.23
1774.00,95.22
1773.00,95.21
1772.00,95.20
1771.00,95.20
1770.00,95.19
1769.00,95.17
1768.00,95.16
1767.00,95.15
1766.00,95.14
1765.00,95.12
1764.00,95.09
1763.00,95.07
1762.00,95.06
1761.00,95.05
1760.00,95.03
1759.00,95.02
1758.00,95.01
1757.00,94.99
1756.00,94.97
1755.00,94.94
1754.00,94.92
1753.00,94.89
1752.00,94.86
1751.00,94.84
1750.00,94.81
1749.00,94.79
1748.00,94.76
1747.00,94.73
1746.00,94.70
1745.00,94.66
1744.00,94.63
1743.00,94.59
1742.00,94.56
1741.00,94.53
1740.00,94.49
1739.00,94.46
1738.00,94.43
1737.00,94.39
1736.00,94.35
1735.00,94.33
1734.00,94.31
1733.00,94.30
1732.00,94.29
1731.00,94.27
1730.00,94.26
1729.00,94.25
1728.00,94.23
1727.00,94.21
1726.00,94.19
1725.00,94.18
1724.00,94.16
1723.00,94.14
1722.00,94.11
1721.00,94.08
1720.00,94.05
1719.00,94.03
1718.00,94.03
1717.00,94.02
1716.00,94.00
1715.00,93.99
1714.00,93.98
1713.00,93.97
1712.00,93.96
1711.00,93.95
1710.00,93.94
1709.00,93.93
1708.00,93.91
1707.00,93.90
1706.00,93.89
1705.00,93.88
1704.00,93.87
1703.00,93.85
1702.00,93.83
1701.00,93.82
1700.00,93.80
1699.00,93.79
1698.00,93.77
1697.00,93.75
1696.00,93.74
1695.00,93.73
1694.00,93.72
1693.00,93.69
1692.00,93.66
1691.00,93.63
1690.00,93.60
1689.00,93.56
1688.00,93.52
1687.00,93.48
1686.00,93.44
1685.00,93.40
1684.00,93.35
1683.00,93.30
1682.00,93.26
1681.00,93.22
1680.00,93.17
1679.00,93.12
1678.00,93.06
1677.00,93.01
1676.00,92.94
1675.00,92.87
1674.00,92.80
1673.00,92.75
1672.00,92.69
1671.00,92.63
1670.00,92.57
1669.00,92.50
1668.00,92.43
1667.00,92.37
1666.00,92.31
1665.00,92.24
1664.00,92.17
1663.00,92.10
1662.00,92.03
1661.00,91.96
1660.00,91.90
1659.00,91.83
1658.00,91.77
1657.00,91.71
1656.00,91.64
1655.00,91.56
1654.00,91.49
1653.00,91.39
1652.00,91.30
1651.00,91.25
1650.00,91.20
1649.00,91.15
1648.00,91.08
1647.00,91.01
1646.00,90.93
1645.00,90.87
1644.00,90.81
1643.00,90.77
1642.00,90.72
1641.00,90.67
1640.00,90.60
1639.00,90.53
1638.00,90.47
1637.00,90.39
1636.00,90.30
1635.00,90.23
1634.00,90.18
1633.00,90.14
1632.00,90.09
1631.00,90.04
1630.00,89.99
1629.00,89.94
1628.00,89.88
1627.00,89.83
1626.00,89.78
1625.00,89.74
1624.00,89.69
1623.00,89.65
1622.00,89.61
1621.00,89.59
1620.00,89.55
1619.00,89.52
1618.00,89.50
1617.00,89.47
1616.00,89.45
1615.00,89.44
1614.00,89.44
1613.00,89.44
1612.00,89.45
1611.00,89.46
1610.00,89.47
1609.00,89.50
1608.00,89.53
1607.00,89.55
1606.00,89.58
1605.00,89.62
1604.00,89.66
1603.00,89.70
1602.00,89.75
1601.00,89.81
1600.00,89.86
1599.00,89.92
1598.00,89.98
1597.00,90.05
1596.00,90.12
1595.00,90.19
1594.00,90.26
1593.00,90.34
1592.00,90.41
1591.00,90.48
1590.00,90.56
1589.00,90.63
1588.00,90.70
1587.00,90.77
1586.00,90.84
1585.00,90.91
1584.00,90.97
1583.00,91.03
1582.00,91.09
1581.00,91.15
1580.00,91.20
1579.00,91.24
1578.00,91.30
1577.00,91.38
1576.00,91.47
1575.00,91.56
1574.00,91.62
1573.00,91.68
1572.00,91.73
1571.00,91.80
1570.00,91.87
1569.00,91.96
1568.00,92.02
1567.00,92.07
1566.00,92.11
1565.00,92.16
1564.00,92.21
1563.00,92.24
1562.00,92.26
1561.00,92.28
1560.00,92.33
1559.00,92.40
1558.00,92.46
1557.00,92.51
1556.00,92.54
1555.00,92.57
1554.00,92.61
1553.00,92.64
1552.00,92.66
1551.00,92.68
1550.00,92.70
1549.00,92.72
1548.00,92.73
1547.00,92.74
1546.00,92.75
1545.00,92.74
1544.00,92.73
1543.00,92.72
1542.00,92.72
1541.00,92.73
1540.00,92.77
1539.00,92.83
1538.00,92.88
1537.00,92.91
1536.00,92.94
1535.00,92.96
1534.00,93.01
1533.00,93.06
1532.00,93.10
1531.00,93.14
1530.00,93.16
1529.00,93.19
1528.00,93.21
1527.00,93.23
1526.00,93.25
1525.00,93.27
1524.00,93.28
1523.00,93.30
1522.00,93.33
1521.00,93.36
1520.00,93.38
1519.00,93.40
1518.00,93.42
1517.00,93.44
1516.00,93.46
1515.00,93.47
1514.00,93.49
1513.00,93.50
1512.00,93.52
1511.00,93.54
1510.00,93.56
1509.00,93.57
1508.00,93.57
1507.00,93.60
1506.00,93.64
1505.00,93.67
1504.00,93.69
1503.00,93.70
1502.00,93.72
1501.00,93.72
1500.00,93.72
1499.00,93.72
1498.00,93.73
1497.00,93.74
1496.00,93.73
1495.00,93.73
1494.00,93.71
1493.00,93.69
1492.00,93.66
1491.00,93.62
1490.00,93.56
1489.00,93.49
1488.00,93.41
1487.00,93.32
1486.00,93.22
1485.00,93.12
1484.00,93.00
1483.00,92.89
1482.00,92.80
1481.00,92.72
1480.00,92.66
1479.00,92.61
1478.00,92.55
1477.00,92.48
1476.00,92.38
1475.00,92.27
1474.00,92.15
1473.00,92.02
1472.00,91.90
1471.00,91.80
1470.00,91.72
1469.00,91.62
1468.00,91.51
1467.00,91.39
1466.00,91.25
1465.00,91.09
1464.00,90.92
1463.00,90.78
1462.00,90.66
1461.00,90.55
1460.00,90.42
1459.00,90.29
1458.00,90.13
1457.00,89.95
1456.00,89.79
1455.00,89.69
1454.00,89.61
1453.00,89.54
1452.00,89.47
1451.00,89.41
1450.00,89.36
1449.00,89.30
1448.00,89.25
1447.00,89.21
1446.00,89.17
1445.00,89.13
1444.00,89.09
1443.00,89.04
1442.00,88.98
1441.00,88.90
1440.00,88.82
1439.00,88.73
1438.00,88.60
1437.00,88.42
1436.00,88.21
1435.00,88.01
1434.00,87.84
1433.00,87.67
1432.00,87.50
1431.00,87.34
1430.00,87.22
1429.00,87.12
1428.00,87.07
1427.00,87.05
1426.00,87.06
1425.00,87.10
1424.00,87.16
1423.00,87.25
1422.00,87.36
1421.00,87.49
1420.00,87.67
1419.00,87.89
1418.00,88.09
1417.00,88.27
1416.00,88.41
1415.00,88.56
1414.00,88.69
1413.00,88.81
1412.00,88.91
1411.00,88.99
1410.00,89.06
1409.00,89.11
1408.00,89.16
1407.00,89.20
1406.00,89.25
1405.00,89.29
1404.00,89.33
1403.00,89.36
1402.00,89.38
1401.00,89.41
1400.00,89.44
1399.00,89.48
1398.00,89.51
1397.00,89.54
1396.00,89.57
1395.00,89.59
1394.00,89.60
1393.00,89.61
1392.00,89.60
1391.00,89.59
1390.00,89.55
1389.00,89.50
1388.00,89.42
1387.00,89.31
1386.00,89.17
1385.00,89.02
1384.00,88.84
1383.00,88.65
1382.00,88.43
1381.00,88.20
1380.00,87.96
1379.00,87.71
1378.00,87.46
1377.00,87.22
1376.00,86.97
1375.00,86.70
1374.00,86.42
1373.00,86.17
1372.00,85.96
1371.00,85.82
1370.00,85.74
1369.00,85.71
1368.00,85.72
1367.00,85.74
1366.00,85.77
1365.00,85.78
1364.00,85.77
1363.00,85.74
1362.00,85.72
1361.00,85.72
1360.00,85.74
1359.00,85.77
1358.00,85.81
1357.00,85.84
1356.00,85.88
1355.00,85.95
1354.00,86.04
1353.00,86.15
1352.00,86.27
1351.00,86.38
1350.00,86.46
1349.00,86.50
1348.00,86.49
1347.00,86.43
1346.00,86.32
1345.00,86.16
1344.00,85.97
1343.00,85.77
1342.00,85.57
1341.00,85.36
1340.00,85.16
1339.00,84.97
1338.00,84.80
1337.00,84.66
1336.00,84.56
1335.00,84.52
1334.00,84.53
1333.00,84.59
1332.00,84.69
1331.00,84.81
1330.00,84.93
1329.00,85.03
1328.00,85.09
1327.00,85.10
1326.00,85.05
1325.00,84.95
1324.00,84.80
1323.00,84.61
1322.00,84.39
1321.00,84.14
1320.00,83.87
1319.00,83.60
1318.00,83.36
1317.00,83.16
1316.00,83.03
1315.00,82.98
1314.00,83.02
1313.00,83.13
1312.00,83.30
1311.00,83.52
1310.00,83.78
1309.00,84.07
1308.00,84.38
1307.00,84.69
1306.00,85.01
1305.00,85.32
1304.00,85.62
1303.00,85.90
1302.00,86.18
1301.00,86.43
1300.00,86.66
1299.00,86.88
1298.00,87.06
1297.00,87.20
1296.00,87.32
1295.00,87.40
1294.00,87.46
1293.00,87.51
1292.00,87.55
1291.00,87.58
1290.00,87.61
1289.00,87.63
1288.00,87.62
1287.00,87.58
1286.00,87.53
1285.00,87.44
1284.00,87.34
1283.00,87.24
1282.00,87.15
1281.00,87.10
1280.00,87.10
1279.00,87.14
1278.00,87.22
1277.00,87.31
1276.00,87.40
1275.00,87.49
1274.00,87.59
1273.00,87.69
1272.00,87.80
1271.00,87.90
1270.00,88.00
1269.00,88.09
1268.00,88.15
1267.00,88.21
1266.00,88.26
1265.00,88.30
1264.00,88.34
1263.00,88.38
1262.00,88.42
1261.00,88.46
1260.00,88.50
1259.00,88.56
1258.00,88.60
1257.00,88.64
1256.00,88.67
1255.00,88.68
1254.00,88.68
1253.00,88.67
1252.00,88.65
1251.00,88.62
1250.00,88.59
1249.00,88.56
1248.00,88.55
1247.00,88.56
1246.00,88.59
1245.00,88.65
1244.00,88.71
1243.00,88.78
1242.00,88.84
1241.00,88.88
1240.00,88.91
1239.00,88.91
1238.00,88.89
1237.00,88.86
1236.00,88.85
1235.00,88.87
1234.00,88.93
1233.00,89.01
1232.00,89.13
1231.00,89.26
1230.00,89.40
1229.00,89.55
1228.00,89.69
1227.00,89.84
1226.00,89.99
1225.00,90.13
1224.00,90.27
1223.00,90.40
1222.00,90.52
1221.00,90.64
1220.00,90.75
1219.00,90.85
1218.00,90.92
1217.00,90.98
1216.00,91.00
1215.00,91.00
1214.00,90.96
1213.00,90.87
1212.00,90.72
1211.00,90.50
1210.00,90.24
1209.00,89.96
1208.00,89.70
1207.00,89.49
1206.00,89.34
1205.00,89.24
1204.00,89.20
1203.00,89.19
1202.00,89.21
1201.00,89.27
1200.00,89.36
1199.00,89.48
1198.00,89.62
1197.00,89.77
1196.00,89.92
1195.00,90.09
1194.00,90.25
1193.00,90.41
1192.00,90.57
1191.00,90.71
1190.00,90.84
1189.00,90.93
1188.00,91.00
1187.00,91.05
1186.00,91.06
1185.00,91.05
1184.00,91.00
1183.00,90.92
1182.00,90.81
1181.00,90.67
1180.00,90.50
1179.00,90.30
1178.00,90.07
1177.00,89.80
1176.00,89.49
1175.00,89.12
1174.00,88.69
1173.00,88.20
1172.00,87.64
1171.00,87.02
1170.00,86.32
1169.00,85.57
1168.00,84.79
1167.00,83.99
1166.00,83.22
1165.00,82.50
1164.00,81.85
1163.00,81.31
1162.00,80.90
1161.00,80.60
1160.00,80.42
1159.00,80.35
1158.00,80.37
1157.00,80.45
1156.00,80.56
1155.00,80.69
1154.00,80.86
1153.00,81.04
1152.00,81.23
1151.00,81.43
1150.00,81.65
1149.00,81.87
1148.00,82.11
1147.00,82.38
1146.00,82.67
1145.00,83.00
1144.00,83.34
1143.00,83.69
1142.00,84.03
1141.00,84.31
1140.00,84.54
1139.00,84.69
1138.00,84.77
1137.00,84.75
1136.00,84.66
1135.00,84.50
1134.00,84.30
1133.00,84.06
1132.00,83.80
1131.00,83.49
1130.00,83.13
1129.00,82.69
1128.00,82.20
1127.00,81.66
1126.00,81.11
1125.00,80.58
1124.00,80.08
1123.00,79.60
1122.00,79.14
1121.00,78.66
1120.00,78.12
1119.00,77.52
1118.00,76.84
1117.00,76.06
1116.00,75.20
1115.00,74.32
1114.00,73.46
1113.00,72.69
1112.00,72.03
1111.00,71.52
1110.00,71.15
1109.00,70.90
1108.00,70.73
1107.00,70.63
1106.00,70.59
1105.00,70.58
1104.00,70.61
1103.00,70.72
1102.00,70.90
1101.00,71.15
1100.00,71.45
1099.00,71.79
1098.00,72.16
1097.00,72.55
1096.00,72.93
1095.00,73.30
1094.00,73.67
1093.00,74.00
1092.00,74.28
1091.00,74.53
1090.00,74.74
1089.00,74.90
1088.00,75.03
1087.00,75.13
1086.00,75.21
1085.00,75.24
1084.00,75.22
1083.00,75.15
1082.00,75.01
1081.00,74.78
1080.00,74.47
1079.00,74.11
1078.00,73.73
1077.00,73.34
1076.00,72.95
1075.00,72.58
1074.00,72.21
1073.00,71.81
1072.00,71.35
1071.00,70.85
1070.00,70.29
1069.00,69.64
1068.00,68.89
1067.00,68.05
1066.00,67.13
1065.00,66.11
1064.00,65.00
1063.00,63.87
1062.00,62.73
1061.00,61.64
1060.00,60.64
1059.00,59.78
1058.00,59.09
1057.00,58.52
1056.00,58.05
1055.00,57.70
1054.00,57.47
1053.00,57.35
1052.00,57.35
1051.00,57.47
1050.00,57.70
1049.00,58.00
1048.00,58.36
1047.00,58.77
1046.00,59.22
1045.00,59.63
1044.00,59.96
1043.00,60.19
1042.00,60.28
1041.00,60.21
1040.00,59.95
1039.00,59.54
1038.00,59.01
1037.00,58.40
1036.00,57.75
1035.00,57.14
1034.00,56.60
1033.00,56.14
1032.00,55.77
1031.00,55.51
1030.00,55.38
1029.00,55.33
1028.00,55.35
1027.00,55.44
1026.00,55.59
1025.00,55.77
1024.00,55.96
1023.00,56.18
1022.00,56.41
1021.00,56.63
1020.00,56.83
1019.00,57.03
1018.00,57.21
1017.00,57.35
1016.00,57.45
1015.00,57.53
1014.00,57.60
1013.00,57.66
1012.00,57.71
1011.00,57.76
1010.00,57.82
1009.00,57.86
1008.00,57.88
1007.00,57.89
1006.00,57.92
1005.00,57.93
1004.00,57.93
1003.00,57.94
1002.00,57.97
1001.00,58.01
1000.00,58.07
999.00,58.17
998.00,58.32
997.00,58.48
996.00,58.65
995.00,58.84
994.00,59.04
993.00,59.21
992.00,59.34
991.00,59.44
990.00,59.50
989.00,59.50
988.00,59.45
987.00,59.40
986.00,59.37
985.00,59.40
984.00,59.53
983.00,59.81
982.00,60.26
981.00,60.84
980.00,61.52
979.00,62.26
978.00,63.03
977.00,63.79
976.00,64.51
975.00,65.21
974.00,65.86
973.00,66.46
972.00,67.01
971.00,67.53
970.00,68.01
969.00,68.45
968.00,68.85
967.00,69.24
966.00,69.62
965.00,69.99
964.00,70.34
963.00,70.69
962.00,71.04
961.00,71.38
960.00,71.72
959.00,72.05
958.00,72.38
957.00,72.71
956.00,73.03
955.00,73.36
954.00,73.69
953.00,74.01
952.00,74.32
951.00,74.63
950.00,74.93
949.00,75.22
948.00,75.51
947.00,75.79
946.00,76.08
945.00,76.36
944.00,76.62
943.00,76.87
942.00,77.10
941.00,77.32
940.00,77.52
939.00,77.71
938.00,77.89
937.00,78.07
936.00,78.24
935.00,78.40
934.00,78.56
933.00,78.70
932.00,78.84
931.00,78.98
930.00,79.13
929.00,79.27
928.00,79.42
927.00,79.57
926.00,79.72
925.00,79.86
924.00,80.00
923.00,80.14
922.00,80.28
921.00,80.40
920.00,80.51
919.00,80.60
918.00,80.67
917.00,80.73
916.00,80.78
915.00,80.82
914.00,80.84
913.00,80.84
912.00,80.82
911.00,80.80
910.00,80.78
909.00,80.75
908.00,80.71
907.00,80.66
906.00,80.61
905.00,80.55
904.00,80.48
903.00,80.40
902.00,80.32
901.00,80.25
900.00,80.19
899.00,80.14
898.00,80.10
897.00,80.08
896.00,80.09
895.00,80.12
894.00,80.19
893.00,80.28
892.00,80.39
891.00,80.52
890.00,80.67
889.00,80.83
888.00,80.99
887.00,81.17
886.00,81.36
885.00,81.55
884.00,81.73
883.00,81.90
882.00,82.08
881.00,82.24
880.00,82.40
879.00,82.55
878.00,82.70
877.00,82.84
876.00,82.97
875.00,83.09
874.00,83.22
873.00,83.33
872.00,83.42
871.00,83.52
870.00,83.62
869.00,83.72
868.00,83.82
867.00,83.91
866.00,83.99
865.00,84.07
864.00,84.14
863.00,84.21
862.00,84.27
861.00,84.31
860.00,84.35
859.00,84.38
858.00,84.42
857.00,84.46
856.00,84.49
855.00,84.53
854.00,84.56
853.00,84.59
852.00,84.61
851.00,84.63
850.00,84.65
849.00,84.67
848.00,84.68
847.00,84.69
846.00,84.71
845.00,84.73
844.00,84.75
843.00,84.77
842.00,84.78
841.00,84.78
840.00,84.77
839.00,84.75
838.00,84.74
837.00,84.74
836.00,84.75
835.00,84.77
834.00,84.79
833.00,84.80
832.00,84.80
831.00,84.79
830.00,84.79
829.00,84.79
828.00,84.79
827.00,84.80
826.00,84.80
825.00,84.80
824.00,84.81
823.00,84.82
822.00,84.83
821.00,84.84
820.00,84.85
819.00,84.86
818.00,84.88
817.00,84.89
816.00,84.91
815.00,84.92
814.00,84.94
813.00,84.95
812.00,84.95
811.00,84.95
810.00,84.96
809.00,84.96
808.00,84.95
807.00,84.95
806.00,84.96
805.00,84.96
804.00,84.96
803.00,84.95
802.00,84.94
801.00,84.94
800.00,84.93
799.00,84.92
798.00,84.92
797.00,84.92
796.00,84.91
795.00,84.90
794.00,84.89
793.00,84.87
792.00,84.84
791.00,84.81
790.00,84.79
789.00,84.77
788.00,84.73
787.00,84.69
786.00,84.66
785.00,84.64
784.00,84.61
783.00,84.59
782.00,84.56
781.00,84.54
780.00,84.50
779.00,84.47
778.00,84.45
777.00,84.42
776.00,84.38
775.00,84.34
774.00,84.31
773.00,84.27
772.00,84.23
771.00,84.19
770.00,84.16
769.00,84.13
768.00,84.08
767.00,84.03
766.00,83.97
765.00,83.92
764.00,83.88
763.00,83.84
762.00,83.79
761.00,83.74
760.00,83.68
759.00,83.62
758.00,83.55
757.00,83.48
756.00,83.41
755.00,83.35
754.00,83.31
753.00,83.26
752.00,83.21
751.00,83.14
750.00,83.07
749.00,82.99
748.00,82.91
747.00,82.84
746.00,82.77
745.00,82.71
744.00,82.63
743.00,82.56
742.00,82.48
741.00,82.39
740.00,82.28
739.00,82.18
738.00,82.07
737.00,81.96
736.00,81.84
735.00,81.72
734.00,81.60
733.00,81.48
732.00,81.34
731.00,81.17
730.00,80.99
729.00,80.80
728.00,80.59
727.00,80.37
726.00,80.14
725.00,79.90
724.00,79.65
723.00,79.39
722.00,79.13
721.00,78.87
720.00,78.59
719.00,78.33
718.00,78.09
717.00,77.85
716.00,77.61
715.00,77.37
714.00,77.16
713.00,76.96
712.00,76.77
711.00,76.60
710.00,76.44
709.00,76.29
708.00,76.13
707.00,76.00
706.00,75.90
705.00,75.83
704.00,75.75
703.00,75.68
702.00,75.61
701.00,75.55
700.00,75.48
699.00,75.42
698.00,75.38
697.00,75.35
696.00,75.32
695.00,75.30
694.00,75.29
693.00,75.26
692.00,75.22
691.00,75.20
690.00,75.20
689.00,75.19
688.00,75.15
687.00,75.09
686.00,75.02
685.00,74.95
684.00,74.84
683.00,74.72
682.00,74.56
681.00,74.36
680.00,74.11
679.00,73.82
678.00,73.50
677.00,73.14
676.00,72.75
675.00,72.35
674.00,71.95
673.00,71.55
672.00,71.18
671.00,70.88
670.00,70.62
669.00,70.25
668.00,69.68
667.00,69.17
666.00,68.96
665.00,68.88
664.00,68.81
663.00,68.76
662.00,68.76
661.00,68.81
660.00,68.88
659.00,69.02
658.00,69.24
657.00,69.52
656.00,69.79
655.00,70.05
654.00,70.27
653.00,70.43
652.00,70.52
651.00,70.59
650.00,70.64
649.00,70.66
648.00,70.64
647.00,70.62
646.00,70.59
645.00,70.52
644.00,70.41
643.00,70.31
642.00,70.25
641.00,70.19
640.00,70.08
639.00,69.93
638.00,69.75
637.00,69.51
636.00,69.25
635.00,69.03
634.00,68.84
633.00,68.61
632.00,68.33
631.00,68.07
630.00,67.88
629.00,67.71
628.00,67.52
627.00,67.34
626.00,67.20
625.00,67.03
624.00,66.78
623.00,66.51
622.00,66.26
621.00,65.97
620.00,65.62
619.00,65.29
618.00,65.02
617.00,64.71
616.00,64.33
615.00,64.04
614.00,63.90
613.00,63.80
612.00,63.67
611.00,63.62
610.00,63.66
609.00,63.65
608.00,63.60
607.00,63.64
606.00,63.80
605.00,63.93
604.00,63.93
603.00,63.90
602.00,63.89
601.00,63.87
600.00,63.80
599.00,63.80
598.00,63.85
597.00,63.81
596.00,63.64
595.00,63.50
594.00,63.46
593.00,63.40
592.00,63.23
591.00,63.11
590.00,63.15
589.00,63.22
588.00,63.22
587.00,63.27
586.00,63.43
585.00,63.53
584.00,63.46
583.00,63.35
582.00,63.36
581.00,63.37
580.00,63.31
579.00,63.37
578.00,63.57
577.00,63.66
576.00,63.55
575.00,63.47
574.00,63.49
573.00,63.32
572.00,62.86
571.00,62.51
570.00,62.48
569.00,62.47
568.00,62.22
567.00,61.89
566.00,61.66
565.00,61.32
564.00,60.71
563.00,60.02
562.00,59.43
561.00,58.83
560.00,58.24
559.00,58.02
558.00,58.23
557.00,58.44
556.00,58.45
555.00,58.58
554.00,58.92
553.00,59.10
552.00,58.93
551.00,58.83
550.00,59.02
