Created as New Dataset,
cm-1,%T
4000.00,100.45
3999.00,100.47
3998.00,100.48
3997.00,100.49
3996.00,100.48
3995.00,100.47
3994.00,100.46
3993.00,100.45
3992.00,100.45
3991.00,100.46
3990.00,100.46
3989.00,100.46
3988.00,100.45
3987.00,100.44
3986.00,100.43
3985.00,100.42
3984.00,100.42
3983.00,100.43
3982.00,100.45
3981.00,100.46
3980.00,100.47
3979.00,100.47
3978.00,100.45
3977.00,100.43
3976.00,100.43
3975.00,100.44
3974.00,100.45
3973.00,100.45
3972.00,100.45
3971.00,100.44
3970.00,100.42
3969.00,100.42
3968.00,100.43
3967.00,100.46
3966.00,100.49
3965.00,100.50
3964.00,100.50
3963.00,100.47
3962.00,100.45
3961.00,100.42
3960.00,100.41
3959.00,100.40
3958.00,100.41
3957.00,100.42
3956.00,100.44
3955.00,100.47
3954.00,100.50
3953.00,100.52
3952.00,100.51
3951.00,100.50
3950.00,100.48
3949.00,100.47
3948.00,100.46
3947.00,100.45
3946.00,100.45
3945.00,100.44
3944.00,100.45
3943.00,100.47
3942.00,100.49
3941.00,100.52
3940.00,100.52
3939.00,100.52
3938.00,100.51
3937.00,100.50
3936.00,100.49
3935.00,100.49
3934.00,100.49
3933.00,100.48
3932.00,100.48
3931.00,100.48
3930.00,100.48
3929.00,100.47
3928.00,100.45
3927.00,100.45
3926.00,100.45
3925.00,100.47
3924.00,100.48
3923.00,100.49
3922.00,100.48
3921.00,100.47
3920.00,100.46
3919.00,100.47
3918.00,100.49
3917.00,100.49
3916.00,100.49
3915.00,100.47
3914.00,100.45
3913.00,100.44
3912.00,100.43
3911.00,100.43
3910.00,100.44
3909.00,100.45
3908.00,100.46
3907.00,100.46
3906.00,100.45
3905.00,100.43
3904.00,100.42
3903.00,100.43
3902.00,100.44
3901.00,100.44
3900.00,100.45
3899.00,100.46
3898.00,100.47
3897.00,100.47
3896.00,100.47
3895.00,100.48
3894.00,100.49
3893.00,100.51
3892.00,100.52
3891.00,100.51
3890.00,100.50
3889.00,100.48
3888.00,100.47
3887.00,100.46
3886.00,100.43
3885.00,100.41
3884.00,100.39
3883.00,100.38
3882.00,100.39
3881.00,100.41
3880.00,100.42
3879.00,100.43
3878.00,100.45
3877.00,100.46
3876.00,100.47
3875.00,100.46
3874.00,100.44
3873.00,100.42
3872.00,100.42
3871.00,100.42
3870.00,100.41
3869.00,100.41
3868.00,100.40
3867.00,100.41
3866.00,100.42
3865.00,100.44
3864.00,100.44
3863.00,100.45
3862.00,100.46
3861.00,100.47
3860.00,100.48
3859.00,100.48
3858.00,100.47
3857.00,100.46
3856.00,100.46
3855.00,100.45
3854.00,100.44
3853.00,100.42
3852.00,100.41
3851.00,100.41
3850.00,100.41
3849.00,100.42
3848.00,100.42
3847.00,100.42
3846.00,100.44
3845.00,100.46
3844.00,100.48
3843.00,100.49
3842.00,100.50
3841.00,100.50
3840.00,100.50
3839.00,100.50
3838.00,100.49
3837.00,100.48
3836.00,100.46
3835.00,100.44
3834.00,100.44
3833.00,100.44
3832.00,100.46
3831.00,100.47
3830.00,100.47
3829.00,100.46
3828.00,100.45
3827.00,100.43
3826.00,100.42
3825.00,100.42
3824.00,100.45
3823.00,100.48
3822.00,100.52
3821.00,100.53
3820.00,100.53
3819.00,100.53
3818.00,100.51
3817.00,100.49
3816.00,100.46
3815.00,100.44
3814.00,100.43
3813.00,100.43
3812.00,100.44
3811.00,100.46
3810.00,100.47
3809.00,100.48
3808.00,100.48
3807.00,100.47
3806.00,100.47
3805.00,100.48
3804.00,100.48
3803.00,100.47
3802.00,100.45
3801.00,100.42
3800.00,100.40
3799.00,100.39
3798.00,100.40
3797.00,100.41
3796.00,100.42
3795.00,100.43
3794.00,100.44
3793.00,100.45
3792.00,100.46
3791.00,100.46
3790.00,100.46
3789.00,100.46
3788.00,100.46
3787.00,100.44
3786.00,100.42
3785.00,100.40
3784.00,100.39
3783.00,100.40
3782.00,100.42
3781.00,100.44
3780.00,100.44
3779.00,100.43
3778.00,100.41
3777.00,100.41
3776.00,100.41
3775.00,100.43
3774.00,100.44
3773.00,100.45
3772.00,100.45
3771.00,100.43
3770.00,100.39
3769.00,100.35
3768.00,100.33
3767.00,100.33
3766.00,100.35
3765.00,100.38
3764.00,100.40
3763.00,100.41
3762.00,100.42
3761.00,100.41
3760.00,100.40
3759.00,100.38
3758.00,100.38
3757.00,100.39
3756.00,100.42
3755.00,100.44
3754.00,100.44
3753.00,100.43
3752.00,100.42
3751.00,100.42
3750.00,100.43
3749.00,100.43
3748.00,100.42
3747.00,100.41
3746.00,100.40
3745.00,100.41
3744.00,100.42
3743.00,100.44
3742.00,100.45
3741.00,100.45
3740.00,100.44
3739.00,100.42
3738.00,100.40
3737.00,100.37
3736.00,100.34
3735.00,100.31
3734.00,100.29
3733.00,100.26
3732.00,100.25
3731.00,100.25
3730.00,100.27
3729.00,100.30
3728.00,100.33
3727.00,100.33
3726.00,100.31
3725.00,100.29
3724.00,100.28
3723.00,100.29
3722.00,100.29
3721.00,100.28
3720.00,100.26
3719.00,100.25
3718.00,100.26
3717.00,100.27
3716.00,100.30
3715.00,100.34
3714.00,100.37
3713.00,100.38
3712.00,100.36
3711.00,100.32
3710.00,100.30
3709.00,100.29
3708.00,100.30
3707.00,100.31
3706.00,100.32
3705.00,100.34
3704.00,100.34
3703.00,100.33
3702.00,100.31
3701.00,100.30
3700.00,100.30
3699.00,100.33
3698.00,100.36
3697.00,100.40
3696.00,100.42
3695.00,100.43
3694.00,100.44
3693.00,100.44
3692.00,100.44
3691.00,100.43
3690.00,100.43
3689.00,100.41
3688.00,100.38
3687.00,100.36
3686.00,100.35
3685.00,100.34
3684.00,100.33
3683.00,100.32
3682.00,100.31
3681.00,100.31
3680.00,100.33
3679.00,100.34
3678.00,100.36
3677.00,100.37
3676.00,100.36
3675.00,100.33
3674.00,100.30
3673.00,100.27
3672.00,100.25
3671.00,100.24
3670.00,100.24
3669.00,100.26
3668.00,100.29
3667.00,100.30
3666.00,100.31
3665.00,100.30
3664.00,100.29
3663.00,100.28
3662.00,100.26
3661.00,100.24
3660.00,100.23
3659.00,100.22
3658.00,100.22
3657.00,100.21
3656.00,100.20
3655.00,100.20
3654.00,100.19
3653.00,100.18
3652.00,100.17
3651.00,100.14
3650.00,100.12
3649.00,100.11
3648.00,100.12
3647.00,100.13
3646.00,100.12
3645.00,100.11
3644.00,100.11
3643.00,100.12
3642.00,100.14
3641.00,100.14
3640.00,100.13
3639.00,100.10
3638.00,100.08
3637.00,100.06
3636.00,100.07
3635.00,100.07
3634.00,100.08
3633.00,100.08
3632.00,100.08
3631.00,100.06
3630.00,100.02
3629.00,99.96
3628.00,99.92
3627.00,99.93
3626.00,99.96
3625.00,99.98
3624.00,99.97
3623.00,99.95
3622.00,99.92
3621.00,99.91
3620.00,99.90
3619.00,99.90
3618.00,99.89
3617.00,99.89
3616.00,99.88
3615.00,99.86
3614.00,99.83
3613.00,99.80
3612.00,99.77
3611.00,99.76
3610.00,99.78
3609.00,99.80
3608.00,99.81
3607.00,99.80
3606.00,99.78
3605.00,99.76
3604.00,99.74
3603.00,99.75
3602.00,99.76
3601.00,99.78
3600.00,99.80
3599.00,99.81
3598.00,99.81
3597.00,99.79
3596.00,99.74
3595.00,99.69
3594.00,99.64
3593.00,99.61
3592.00,99.60
3591.00,99.60
3590.00,99.61
3589.00,99.60
3588.00,99.59
3587.00,99.58
3586.00,99.59
3585.00,99.59
3584.00,99.58
3583.00,99.57
3582.00,99.56
3581.00,99.56
3580.00,99.56
3579.00,99.57
3578.00,99.56
3577.00,99.54
3576.00,99.51
3575.00,99.47
3574.00,99.42
3573.00,99.37
3572.00,99.33
3571.00,99.32
3570.00,99.34
3569.00,99.36
3568.00,99.35
3567.00,99.32
3566.00,99.28
3565.00,99.26
3564.00,99.24
3563.00,99.24
3562.00,99.24
3561.00,99.22
3560.00,99.19
3559.00,99.16
3558.00,99.14
3557.00,99.14
3556.00,99.14
3555.00,99.14
3554.00,99.14
3553.00,99.12
3552.00,99.10
3551.00,99.09
3550.00,99.08
3549.00,99.08
3548.00,99.06
3547.00,99.03
3546.00,98.98
3545.00,98.94
3544.00,98.93
3543.00,98.94
3542.00,98.96
3541.00,98.96
3540.00,98.95
3539.00,98.92
3538.00,98.88
3537.00,98.85
3536.00,98.82
3535.00,98.80
3534.00,98.77
3533.00,98.74
3532.00,98.72
3531.00,98.70
3530.00,98.68
3529.00,98.66
3528.00,98.65
3527.00,98.65
3526.00,98.64
3525.00,98.63
3524.00,98.61
3523.00,98.60
3522.00,98.60
3521.00,98.60
3520.00,98.60
3519.00,98.60
3518.00,98.60
3517.00,98.60
3516.00,98.60
3515.00,98.60
3514.00,98.60
3513.00,98.58
3512.00,98.54
3511.00,98.48
3510.00,98.43
3509.00,98.37
3508.00,98.33
3507.00,98.29
3506.00,98.25
3505.00,98.22
3504.00,98.20
3503.00,98.19
3502.00,98.18
3501.00,98.18
3500.00,98.16
3499.00,98.15
3498.00,98.12
3497.00,98.09
3496.00,98.06
3495.00,98.02
3494.00,98.00
3493.00,98.00
3492.00,98.00
3491.00,97.99
3490.00,97.97
3489.00,97.94
3488.00,97.88
3487.00,97.82
3486.00,97.78
3485.00,97.75
3484.00,97.74
3483.00,97.75
3482.00,97.76
3481.00,97.75
3480.00,97.72
3479.00,97.67
3478.00,97.63
3477.00,97.59
3476.00,97.55
3475.00,97.50
3474.00,97.45
3473.00,97.41
3472.00,97.39
3471.00,97.38
3470.00,97.38
3469.00,97.37
3468.00,97.36
3467.00,97.34
3466.00,97.31
3465.00,97.28
3464.00,97.25
3463.00,97.23
3462.00,97.21
3461.00,97.18
3460.00,97.15
3459.00,97.12
3458.00,97.08
3457.00,97.05
3456.00,97.02
3455.00,96.98
3454.00,96.96
3453.00,96.94
3452.00,96.92
3451.00,96.90
3450.00,96.86
3449.00,96.83
3448.00,96.79
3447.00,96.75
3446.00,96.72
3445.00,96.69
3444.00,96.67
3443.00,96.67
3442.00,96.67
3441.00,96.67
3440.00,96.66
3439.00,96.63
3438.00,96.58
3437.00,96.53
3436.00,96.48
3435.00,96.46
3434.00,96.43
3433.00,96.41
3432.00,96.38
3431.00,96.34
3430.00,96.31
3429.00,96.28
3428.00,96.26
3427.00,96.24
3426.00,96.21
3425.00,96.17
3424.00,96.13
3423.00,96.10
3422.00,96.08
3421.00,96.05
3420.00,96.02
3419.00,95.98
3418.00,95.93
3417.00,95.89
3416.00,95.85
3415.00,95.83
3414.00,95.82
3413.00,95.80
3412.00,95.78
3411.00,95.75
3410.00,95.71
3409.00,95.65
3408.00,95.60
3407.00,95.57
3406.00,95.56
3405.00,95.56
3404.00,95.55
3403.00,95.53
3402.00,95.50
3401.00,95.45
3400.00,95.41
3399.00,95.39
3398.00,95.37
3397.00,95.36
3396.00,95.34
3395.00,95.32
3394.00,95.31
3393.00,95.29
3392.00,95.27
3391.00,95.26
3390.00,95.25
3389.00,95.23
3388.00,95.21
3387.00,95.18
3386.00,95.16
3385.00,95.13
3384.00,95.10
3383.00,95.08
3382.00,95.06
3381.00,95.04
3380.00,95.02
3379.00,94.99
3378.00,94.95
3377.00,94.91
3376.00,94.85
3375.00,94.80
3374.00,94.76
3373.00,94.73
3372.00,94.72
3371.00,94.70
3370.00,94.68
3369.00,94.66
3368.00,94.63
3367.00,94.60
3366.00,94.58
3365.00,94.57
3364.00,94.56
3363.00,94.54
3362.00,94.51
3361.00,94.48
3360.00,94.44
3359.00,94.39
3358.00,94.33
3357.00,94.28
3356.00,94.24
3355.00,94.21
3354.00,94.18
3353.00,94.14
3352.00,94.10
3351.00,94.05
3350.00,94.01
3349.00,93.97
3348.00,93.93
3347.00,93.90
3346.00,93.86
3345.00,93.83
3344.00,93.79
3343.00,93.77
3342.00,93.74
3341.00,93.72
3340.00,93.70
3339.00,93.68
3338.00,93.66
3337.00,93.64
3336.00,93.62
3335.00,93.61
3334.00,93.60
3333.00,93.60
3332.00,93.61
3331.00,93.61
3330.00,93.60
3329.00,93.58
3328.00,93.58
3327.00,93.59
3326.00,93.62
3325.00,93.66
3324.00,93.70
3323.00,93.72
3322.00,93.74
3321.00,93.74
3320.00,93.74
3319.00,93.75
3318.00,93.76
3317.00,93.78
3316.00,93.78
3315.00,93.78
3314.00,93.78
3313.00,93.78
3312.00,93.78
3311.00,93.78
3310.00,93.77
3309.00,93.77
3308.00,93.77
3307.00,93.79
3306.00,93.81
3305.00,93.82
3304.00,93.81
3303.00,93.79
3302.00,93.77
3301.00,93.75
3300.00,93.73
3299.00,93.72
3298.00,93.72
3297.00,93.73
3296.00,93.74
3295.00,93.75
3294.00,93.76
3293.00,93.76
3292.00,93.75
3291.00,93.73
3290.00,93.72
3289.00,93.72
3288.00,93.72
3287.00,93.74
3286.00,93.75
3285.00,93.76
3284.00,93.77
3283.00,93.79
3282.00,93.81
3281.00,93.82
3280.00,93.81
3279.00,93.80
3278.00,93.78
3277.00,93.77
3276.00,93.78
3275.00,93.80
3274.00,93.83
3273.00,93.85
3272.00,93.87
3271.00,93.90
3270.00,93.93
3269.00,93.95
3268.00,93.97
3267.00,93.98
3266.00,93.98
3265.00,93.99
3264.00,94.01
3263.00,94.05
3262.00,94.09
3261.00,94.12
3260.00,94.15
3259.00,94.18
3258.00,94.22
3257.00,94.27
3256.00,94.31
3255.00,94.34
3254.00,94.36
3253.00,94.38
3252.00,94.41
3251.00,94.45
3250.00,94.50
3249.00,94.56
3248.00,94.61
3247.00,94.64
3246.00,94.67
3245.00,94.68
3244.00,94.69
3243.00,94.70
3242.00,94.72
3241.00,94.75
3240.00,94.77
3239.00,94.79
3238.00,94.82
3237.00,94.86
3236.00,94.90
3235.00,94.94
3234.00,94.98
3233.00,95.02
3232.00,95.06
3231.00,95.09
3230.00,95.12
3229.00,95.13
3228.00,95.14
3227.00,95.16
3226.00,95.18
3225.00,95.20
3224.00,95.23
3223.00,95.26
3222.00,95.30
3221.00,95.33
3220.00,95.36
3219.00,95.39
3218.00,95.42
3217.00,95.45
3216.00,95.48
3215.00,95.50
3214.00,95.52
3213.00,95.55
3212.00,95.59
3211.00,95.62
3210.00,95.65
3209.00,95.67
3208.00,95.69
3207.00,95.71
3206.00,95.74
3205.00,95.77
3204.00,95.79
3203.00,95.81
3202.00,95.82
3201.00,95.83
3200.00,95.84
3199.00,95.86
3198.00,95.89
3197.00,95.92
3196.00,95.95
3195.00,95.99
3194.00,96.01
3193.00,96.04
3192.00,96.07
3191.00,96.10
3190.00,96.14
3189.00,96.17
3188.00,96.20
3187.00,96.22
3186.00,96.22
3185.00,96.20
3184.00,96.20
3183.00,96.21
3182.00,96.24
3181.00,96.30
3180.00,96.34
3179.00,96.38
3178.00,96.40
3177.00,96.41
3176.00,96.42
3175.00,96.44
3174.00,96.45
3173.00,96.46
3172.00,96.47
3171.00,96.49
3170.00,96.50
3169.00,96.51
3168.00,96.54
3167.00,96.57
3166.00,96.61
3165.00,96.65
3164.00,96.69
3163.00,96.72
3162.00,96.74
3161.00,96.76
3160.00,96.76
3159.00,96.75
3158.00,96.75
3157.00,96.76
3156.00,96.77
3155.00,96.80
3154.00,96.83
3153.00,96.86
3152.00,96.88
3151.00,96.90
3150.00,96.91
3149.00,96.92
3148.00,96.94
3147.00,96.95
3146.00,96.96
3145.00,96.97
3144.00,96.99
3143.00,97.02
3142.00,97.05
3141.00,97.08
3140.00,97.10
3139.00,97.12
3138.00,97.14
3137.00,97.16
3136.00,97.18
3135.00,97.19
3134.00,97.19
3133.00,97.20
3132.00,97.21
3131.00,97.22
3130.00,97.23
3129.00,97.24
3128.00,97.24
3127.00,97.26
3126.00,97.27
3125.00,97.29
3124.00,97.32
3123.00,97.33
3122.00,97.35
3121.00,97.35
3120.00,97.35
3119.00,97.36
3118.00,97.36
3117.00,97.38
3116.00,97.40
3115.00,97.43
3114.00,97.47
3113.00,97.49
3112.00,97.50
3111.00,97.50
3110.00,97.50
3109.00,97.49
3108.00,97.50
3107.00,97.51
3106.00,97.53
3105.00,97.56
3104.00,97.58
3103.00,97.59
3102.00,97.60
3101.00,97.61
3100.00,97.63
3099.00,97.64
3098.00,97.66
3097.00,97.68
3096.00,97.70
3095.00,97.72
3094.00,97.74
3093.00,97.75
3092.00,97.76
3091.00,97.78
3090.00,97.80
3089.00,97.82
3088.00,97.84
3087.00,97.84
3086.00,97.85
3085.00,97.85
3084.00,97.86
3083.00,97.87
3082.00,97.88
3081.00,97.90
3080.00,97.92
3079.00,97.95
3078.00,97.97
3077.00,97.99
3076.00,97.99
3075.00,97.99
3074.00,98.00
3073.00,98.01
3072.00,98.02
3071.00,98.03
3070.00,98.03
3069.00,98.02
3068.00,98.03
3067.00,98.04
3066.00,98.05
3065.00,98.07
3064.00,98.09
3063.00,98.11
3062.00,98.13
3061.00,98.14
3060.00,98.15
3059.00,98.15
3058.00,98.16
3057.00,98.18
3056.00,98.20
3055.00,98.21
3054.00,98.21
3053.00,98.21
3052.00,98.21
3051.00,98.22
3050.00,98.23
3049.00,98.24
3048.00,98.25
3047.00,98.26
3046.00,98.28
3045.00,98.30
3044.00,98.32
3043.00,98.32
3042.00,98.32
3041.00,98.31
3040.00,98.30
3039.00,98.29
3038.00,98.30
3037.00,98.32
3036.00,98.35
3035.00,98.36
3034.00,98.36
3033.00,98.35
3032.00,98.35
3031.00,98.36
3030.00,98.38
3029.00,98.41
3028.00,98.43
3027.00,98.44
3026.00,98.45
3025.00,98.46
3024.00,98.47
3023.00,98.46
3022.00,98.45
3021.00,98.43
3020.00,98.41
3019.00,98.42
3018.00,98.43
3017.00,98.47
3016.00,98.51
3015.00,98.55
3014.00,98.58
3013.00,98.58
3012.00,98.57
3011.00,98.54
3010.00,98.53
3009.00,98.52
3008.00,98.53
3007.00,98.53
3006.00,98.53
3005.00,98.52
3004.00,98.53
3003.00,98.54
3002.00,98.56
3001.00,98.57
3000.00,98.57
2999.00,98.58
2998.00,98.58
2997.00,98.59
2996.00,98.59
2995.00,98.60
2994.00,98.60
2993.00,98.60
2992.00,98.60
2991.00,98.61
2990.00,98.61
2989.00,98.62
2988.00,98.62
2987.00,98.62
2986.00,98.62
2985.00,98.61
2984.00,98.60
2983.00,98.59
2982.00,98.59
2981.00,98.59
2980.00,98.58
2979.00,98.56
2978.00,98.55
2977.00,98.54
2976.00,98.53
2975.00,98.50
2974.00,98.47
2973.00,98.44
2972.00,98.42
2971.00,98.39
2970.00,98.37
2969.00,98.36
2968.00,98.36
2967.00,98.37
2966.00,98.38
2965.00,98.38
2964.00,98.37
2963.00,98.35
2962.00,98.33
2961.00,98.31
2960.00,98.29
2959.00,98.28
2958.00,98.27
2957.00,98.25
2956.00,98.23
2955.00,98.20
2954.00,98.18
2953.00,98.16
2952.00,98.14
2951.00,98.11
2950.00,98.09
2949.00,98.06
2948.00,98.02
2947.00,97.99
2946.00,97.96
2945.00,97.93
2944.00,97.92
2943.00,97.90
2942.00,97.89
2941.00,97.89
2940.00,97.90
2939.00,97.91
2938.00,97.89
2937.00,97.85
2936.00,97.79
2935.00,97.75
2934.00,97.73
2933.00,97.73
2932.00,97.74
2931.00,97.73
2930.00,97.71
2929.00,97.68
2928.00,97.65
2927.00,97.60
2926.00,97.54
2925.00,97.47
2924.00,97.39
2923.00,97.31
2922.00,97.24
2921.00,97.17
2920.00,97.11
2919.00,97.05
2918.00,96.99
2917.00,96.96
2916.00,96.95
2915.00,96.96
2914.00,96.98
2913.00,96.99
2912.00,97.00
2911.00,97.01
2910.00,97.01
2909.00,97.00
2908.00,96.99
2907.00,96.98
2906.00,96.98
2905.00,96.98
2904.00,96.97
2903.00,96.95
2902.00,96.94
2901.00,96.94
2900.00,96.94
2899.00,96.94
2898.00,96.94
2897.00,96.94
2896.00,96.93
2895.00,96.93
2894.00,96.92
2893.00,96.92
2892.00,96.93
2891.00,96.96
2890.00,96.98
2889.00,97.00
2888.00,97.01
2887.00,97.03
2886.00,97.04
2885.00,97.06
2884.00,97.07
2883.00,97.08
2882.00,97.08
2881.00,97.10
2880.00,97.11
2879.00,97.13
2878.00,97.15
2877.00,97.17
2876.00,97.17
2875.00,97.17
2874.00,97.18
2873.00,97.19
2872.00,97.20
2871.00,97.21
2870.00,97.22
2869.00,97.24
2868.00,97.25
2867.00,97.27
2866.00,97.28
2865.00,97.29
2864.00,97.31
2863.00,97.33
2862.00,97.34
2861.00,97.35
2860.00,97.36
2859.00,97.38
2858.00,97.40
2857.00,97.40
2856.00,97.38
2855.00,97.37
2854.00,97.35
2853.00,97.33
2852.00,97.31
2851.00,97.29
2850.00,97.29
2849.00,97.32
2848.00,97.37
2847.00,97.45
2846.00,97.53
2845.00,97.61
2844.00,97.68
2843.00,97.73
2842.00,97.77
2841.00,97.80
2840.00,97.83
2839.00,97.85
2838.00,97.86
2837.00,97.88
2836.00,97.90
2835.00,97.94
2834.00,97.98
2833.00,98.01
2832.00,98.03
2831.00,98.04
2830.00,98.05
2829.00,98.06
2828.00,98.07
2827.00,98.08
2826.00,98.09
2825.00,98.09
2824.00,98.10
2823.00,98.10
2822.00,98.11
2821.00,98.12
2820.00,98.14
2819.00,98.16
2818.00,98.19
2817.00,98.21
2816.00,98.23
2815.00,98.24
2814.00,98.24
2813.00,98.25
2812.00,98.27
2811.00,98.28
2810.00,98.30
2809.00,98.31
2808.00,98.33
2807.00,98.33
2806.00,98.34
2805.00,98.34
2804.00,98.35
2803.00,98.36
2802.00,98.37
2801.00,98.39
2800.00,98.40
2799.00,98.40
2798.00,98.39
2797.00,98.38
2796.00,98.38
2795.00,98.39
2794.00,98.42
2793.00,98.44
2792.00,98.46
2791.00,98.47
2790.00,98.47
2789.00,98.46
2788.00,98.46
2787.00,98.46
2786.00,98.46
2785.00,98.47
2784.00,98.48
2783.00,98.48
2782.00,98.48
2781.00,98.47
2780.00,98.47
2779.00,98.48
2778.00,98.49
2777.00,98.49
2776.00,98.50
2775.00,98.50
2774.00,98.51
2773.00,98.52
2772.00,98.53
2771.00,98.54
2770.00,98.54
2769.00,98.53
2768.00,98.53
2767.00,98.53
2766.00,98.54
2765.00,98.54
2764.00,98.54
2763.00,98.53
2762.00,98.52
2761.00,98.51
2760.00,98.50
2759.00,98.50
2758.00,98.51
2757.00,98.53
2756.00,98.55
2755.00,98.58
2754.00,98.60
2753.00,98.59
2752.00,98.58
2751.00,98.56
2750.00,98.55
2749.00,98.55
2748.00,98.57
2747.00,98.57
2746.00,98.58
2745.00,98.58
2744.00,98.58
2743.00,98.57
2742.00,98.57
2741.00,98.57
2740.00,98.58
2739.00,98.58
2738.00,98.58
2737.00,98.57
2736.00,98.57
2735.00,98.56
2734.00,98.56
2733.00,98.57
2732.00,98.58
2731.00,98.58
2730.00,98.58
2729.00,98.57
2728.00,98.57
2727.00,98.57
2726.00,98.57
2725.00,98.58
2724.00,98.59
2723.00,98.60
2722.00,98.60
2721.00,98.60
2720.00,98.60
2719.00,98.61
2718.00,98.63
2717.00,98.64
2716.00,98.65
2715.00,98.66
2714.00,98.66
2713.00,98.65
2712.00,98.65
2711.00,98.64
2710.00,98.64
2709.00,98.64
2708.00,98.64
2707.00,98.65
2706.00,98.66
2705.00,98.67
2704.00,98.67
2703.00,98.66
2702.00,98.66
2701.00,98.68
2700.00,98.70
2699.00,98.72
2698.00,98.73
2697.00,98.73
2696.00,98.72
2695.00,98.72
2694.00,98.72
2693.00,98.72
2692.00,98.71
2691.00,98.70
2690.00,98.70
2689.00,98.70
2688.00,98.70
2687.00,98.70
2686.00,98.71
2685.00,98.71
2684.00,98.72
2683.00,98.72
2682.00,98.72
2681.00,98.71
2680.00,98.71
2679.00,98.72
2678.00,98.73
2677.00,98.74
2676.00,98.74
2675.00,98.74
2674.00,98.73
2673.00,98.73
2672.00,98.74
2671.00,98.77
2670.00,98.79
2669.00,98.80
2668.00,98.79
2667.00,98.77
2666.00,98.75
2665.00,98.74
2664.00,98.73
2663.00,98.73
2662.00,98.73
2661.00,98.73
2660.00,98.72
2659.00,98.72
2658.00,98.72
2657.00,98.72
2656.00,98.74
2655.00,98.75
2654.00,98.77
2653.00,98.76
2652.00,98.74
2651.00,98.72
2650.00,98.71
2649.00,98.71
2648.00,98.71
2647.00,98.70
2646.00,98.70
2645.00,98.70
2644.00,98.71
2643.00,98.71
2642.00,98.70
2641.00,98.69
2640.00,98.68
2639.00,98.67
2638.00,98.68
2637.00,98.69
2636.00,98.70
2635.00,98.70
2634.00,98.69
2633.00,98.68
2632.00,98.66
2631.00,98.65
2630.00,98.64
2629.00,98.64
2628.00,98.65
2627.00,98.66
2626.00,98.66
2625.00,98.66
2624.00,98.66
2623.00,98.66
2622.00,98.66
2621.00,98.66
2620.00,98.66
2619.00,98.66
2618.00,98.66
2617.00,98.66
2616.00,98.66
2615.00,98.65
2614.00,98.64
2613.00,98.64
2612.00,98.64
2611.00,98.64
2610.00,98.65
2609.00,98.65
2608.00,98.64
2607.00,98.63
2606.00,98.63
2605.00,98.63
2604.00,98.63
2603.00,98.65
2602.00,98.67
2601.00,98.69
2600.00,98.69
2599.00,98.67
2598.00,98.63
2597.00,98.60
2596.00,98.58
2595.00,98.57
2594.00,98.57
2593.00,98.58
2592.00,98.58
2591.00,98.58
2590.00,98.58
2589.00,98.58
2588.00,98.57
2587.00,98.57
2586.00,98.58
2585.00,98.60
2584.00,98.62
2583.00,98.61
2582.00,98.58
2581.00,98.55
2580.00,98.54
2579.00,98.54
2578.00,98.54
2577.00,98.54
2576.00,98.53
2575.00,98.52
2574.00,98.52
2573.00,98.52
2572.00,98.52
2571.00,98.53
2570.00,98.54
2569.00,98.56
2568.00,98.57
2567.00,98.58
2566.00,98.57
2565.00,98.56
2564.00,98.56
2563.00,98.56
2562.00,98.57
2561.00,98.60
2560.00,98.61
2559.00,98.61
2558.00,98.59
2557.00,98.58
2556.00,98.58
2555.00,98.58
2554.00,98.59
2553.00,98.61
2552.00,98.62
2551.00,98.63
2550.00,98.62
2549.00,98.59
2548.00,98.56
2547.00,98.53
2546.00,98.53
2545.00,98.54
2544.00,98.57
2543.00,98.59
2542.00,98.60
2541.00,98.60
2540.00,98.61
2539.00,98.62
2538.00,98.62
2537.00,98.62
2536.00,98.62
2535.00,98.61
2534.00,98.61
2533.00,98.60
2532.00,98.60
2531.00,98.59
2530.00,98.59
2529.00,98.60
2528.00,98.60
2527.00,98.59
2526.00,98.58
2525.00,98.57
2524.00,98.58
2523.00,98.59
2522.00,98.60
2521.00,98.59
2520.00,98.58
2519.00,98.57
2518.00,98.57
2517.00,98.57
2516.00,98.56
2515.00,98.55
2514.00,98.54
2513.00,98.54
2512.00,98.54
2511.00,98.54
2510.00,98.55
2509.00,98.56
2508.00,98.58
2507.00,98.59
2506.00,98.60
2505.00,98.60
2504.00,98.60
2503.00,98.62
2502.00,98.63
2501.00,98.64
2500.00,98.63
2499.00,98.61
2498.00,98.58
2497.00,98.55
2496.00,98.54
2495.00,98.55
2494.00,98.57
2493.00,98.58
2492.00,98.57
2491.00,98.56
2490.00,98.54
2489.00,98.54
2488.00,98.55
2487.00,98.58
2486.00,98.60
2485.00,98.60
2484.00,98.59
2483.00,98.58
2482.00,98.58
2481.00,98.59
2480.00,98.60
2479.00,98.60
2478.00,98.60
2477.00,98.61
2476.00,98.63
2475.00,98.65
2474.00,98.66
2473.00,98.66
2472.00,98.65
2471.00,98.65
2470.00,98.65
2469.00,98.65
2468.00,98.65
2467.00,98.64
2466.00,98.63
2465.00,98.62
2464.00,98.62
2463.00,98.62
2462.00,98.63
2461.00,98.63
2460.00,98.64
2459.00,98.64
2458.00,98.63
2457.00,98.60
2456.00,98.57
2455.00,98.56
2454.00,98.56
2453.00,98.58
2452.00,98.61
2451.00,98.64
2450.00,98.66
2449.00,98.67
2448.00,98.67
2447.00,98.66
2446.00,98.65
2445.00,98.64
2444.00,98.64
2443.00,98.64
2442.00,98.64
2441.00,98.64
2440.00,98.64
2439.00,98.64
2438.00,98.64
2437.00,98.64
2436.00,98.64
2435.00,98.63
2434.00,98.64
2433.00,98.66
2432.00,98.68
2431.00,98.69
2430.00,98.69
2429.00,98.70
2428.00,98.70
2427.00,98.70
2426.00,98.70
2425.00,98.70
2424.00,98.71
2423.00,98.72
2422.00,98.72
2421.00,98.70
2420.00,98.68
2419.00,98.67
2418.00,98.68
2417.00,98.68
2416.00,98.69
2415.00,98.68
2414.00,98.69
2413.00,98.69
2412.00,98.70
2411.00,98.71
2410.00,98.72
2409.00,98.71
2408.00,98.71
2407.00,98.70
2406.00,98.70
2405.00,98.72
2404.00,98.74
2403.00,98.75
2402.00,98.76
2401.00,98.76
2400.00,98.77
2399.00,98.77
2398.00,98.77
2397.00,98.78
2396.00,98.80
2395.00,98.81
2394.00,98.82
2393.00,98.83
2392.00,98.84
2391.00,98.86
2390.00,98.87
2389.00,98.87
2388.00,98.87
2387.00,98.87
2386.00,98.88
2385.00,98.89
2384.00,98.89
2383.00,98.90
2382.00,98.90
2381.00,98.92
2380.00,98.94
2379.00,98.96
2378.00,98.97
2377.00,98.97
2376.00,98.97
2375.00,99.00
2374.00,99.03
2373.00,99.05
2372.00,99.03
2371.00,98.98
2370.00,98.92
2369.00,98.87
2368.00,98.84
2367.00,98.83
2366.00,98.84
2365.00,98.84
2364.00,98.86
2363.00,98.88
2362.00,98.90
2361.00,98.94
2360.00,98.97
2359.00,98.99
2358.00,99.00
2357.00,99.00
2356.00,98.99
2355.00,98.98
2354.00,98.97
2353.00,98.96
2352.00,98.95
2351.00,98.96
2350.00,98.96
2349.00,98.96
2348.00,98.96
2347.00,98.96
2346.00,98.96
2345.00,98.94
2344.00,98.91
2343.00,98.90
2342.00,98.91
2341.00,98.93
2340.00,98.96
2339.00,98.97
2338.00,98.96
2337.00,98.95
2336.00,98.94
2335.00,98.94
2334.00,98.95
2333.00,98.97
2332.00,98.97
2331.00,98.97
2330.00,98.96
2329.00,98.94
2328.00,98.92
2327.00,98.90
2326.00,98.87
2325.00,98.85
2324.00,98.84
2323.00,98.83
2322.00,98.81
2321.00,98.80
2320.00,98.80
2319.00,98.81
2318.00,98.82
2317.00,98.82
2316.00,98.81
2315.00,98.78
2314.00,98.74
2313.00,98.70
2312.00,98.66
2311.00,98.65
2310.00,98.67
2309.00,98.70
2308.00,98.71
2307.00,98.72
2306.00,98.72
2305.00,98.73
2304.00,98.74
2303.00,98.73
2302.00,98.72
2301.00,98.70
2300.00,98.69
2299.00,98.68
2298.00,98.68
2297.00,98.68
2296.00,98.65
2295.00,98.62
2294.00,98.59
2293.00,98.57
2292.00,98.56
2291.00,98.56
2290.00,98.54
2289.00,98.52
2288.00,98.51
2287.00,98.51
2286.00,98.50
2285.00,98.48
2284.00,98.47
2283.00,98.46
2282.00,98.47
2281.00,98.48
2280.00,98.49
2279.00,98.48
2278.00,98.46
2277.00,98.43
2276.00,98.41
2275.00,98.38
2274.00,98.36
2273.00,98.34
2272.00,98.32
2271.00,98.32
2270.00,98.34
2269.00,98.37
2268.00,98.38
2267.00,98.37
2266.00,98.34
2265.00,98.30
2264.00,98.27
2263.00,98.26
2262.00,98.27
2261.00,98.29
2260.00,98.33
2259.00,98.36
2258.00,98.36
2257.00,98.33
2256.00,98.28
2255.00,98.25
2254.00,98.22
2253.00,98.21
2252.00,98.19
2251.00,98.20
2250.00,98.23
2249.00,98.26
2248.00,98.28
2247.00,98.27
2246.00,98.24
2245.00,98.20
2244.00,98.17
2243.00,98.15
2242.00,98.14
2241.00,98.13
2240.00,98.11
2239.00,98.09
2238.00,98.07
2237.00,98.09
2236.00,98.13
2235.00,98.16
2234.00,98.15
2233.00,98.10
2232.00,98.03
2231.00,97.98
2230.00,97.97
2229.00,97.99
2228.00,98.02
2227.00,98.02
2226.00,97.99
2225.00,97.97
2224.00,97.97
2223.00,97.99
2222.00,98.01
2221.00,98.01
2220.00,97.99
2219.00,97.98
2218.00,97.99
2217.00,98.01
2216.00,98.01
2215.00,98.00
2214.00,97.97
2213.00,97.95
2212.00,97.94
2211.00,97.93
2210.00,97.93
2209.00,97.93
2208.00,97.92
2207.00,97.91
2206.00,97.89
2205.00,97.89
2204.00,97.91
2203.00,97.91
2202.00,97.87
2201.00,97.81
2200.00,97.73
2199.00,97.67
2198.00,97.65
2197.00,97.68
2196.00,97.74
2195.00,97.81
2194.00,97.86
2193.00,97.86
2192.00,97.80
2191.00,97.73
2190.00,97.66
2189.00,97.64
2188.00,97.65
2187.00,97.67
2186.00,97.69
2185.00,97.71
2184.00,97.75
2183.00,97.78
2182.00,97.79
2181.00,97.76
2180.00,97.71
2179.00,97.66
2178.00,97.62
2177.00,97.64
2176.00,97.68
2175.00,97.71
2174.00,97.69
2173.00,97.62
2172.00,97.54
2171.00,97.48
2170.00,97.45
2169.00,97.45
2168.00,97.46
2167.00,97.45
2166.00,97.41
2165.00,97.33
2164.00,97.23
2163.00,97.16
2162.00,97.14
2161.00,97.20
2160.00,97.31
2159.00,97.42
2158.00,97.49
2157.00,97.53
2156.00,97.57
2155.00,97.61
2154.00,97.62
2153.00,97.60
2152.00,97.57
2151.00,97.57
2150.00,97.61
2149.00,97.67
2148.00,97.74
2147.00,97.80
2146.00,97.84
2145.00,97.85
2144.00,97.87
2143.00,97.91
2142.00,97.95
2141.00,97.97
2140.00,97.96
2139.00,97.93
2138.00,97.92
2137.00,97.93
2136.00,97.99
2135.00,98.05
2134.00,98.11
2133.00,98.13
2132.00,98.14
2131.00,98.14
2130.00,98.13
2129.00,98.13
2128.00,98.15
2127.00,98.17
2126.00,98.18
2125.00,98.18
2124.00,98.17
2123.00,98.16
2122.00,98.16
2121.00,98.18
2120.00,98.20
2119.00,98.22
2118.00,98.23
2117.00,98.24
2116.00,98.23
2115.00,98.20
2114.00,98.18
2113.00,98.16
2112.00,98.17
2111.00,98.19
2110.00,98.22
2109.00,98.21
2108.00,98.18
2107.00,98.15
2106.00,98.13
2105.00,98.13
2104.00,98.13
2103.00,98.12
2102.00,98.09
2101.00,98.06
2100.00,98.06
2099.00,98.08
2098.00,98.12
2097.00,98.16
2096.00,98.18
2095.00,98.19
2094.00,98.18
2093.00,98.16
2092.00,98.14
2091.00,98.13
2090.00,98.13
2089.00,98.14
2088.00,98.13
2087.00,98.11
2086.00,98.09
2085.00,98.10
2084.00,98.12
2083.00,98.14
2082.00,98.14
2081.00,98.13
2080.00,98.12
2079.00,98.11
2078.00,98.09
2077.00,98.05
2076.00,98.02
2075.00,98.00
2074.00,97.99
2073.00,98.01
2072.00,98.04
2071.00,98.07
2070.00,98.10
2069.00,98.11
2068.00,98.08
2067.00,98.02
2066.00,97.95
2065.00,97.90
2064.00,97.89
2063.00,97.92
2062.00,97.97
2061.00,97.99
2060.00,97.99
2059.00,97.97
2058.00,97.95
2057.00,97.95
2056.00,97.96
2055.00,97.94
2054.00,97.91
2053.00,97.86
2052.00,97.80
2051.00,97.74
2050.00,97.70
2049.00,97.70
2048.00,97.74
2047.00,97.79
2046.00,97.81
2045.00,97.77
2044.00,97.69
2043.00,97.62
2042.00,97.58
2041.00,97.56
2040.00,97.56
2039.00,97.55
2038.00,97.57
2037.00,97.61
2036.00,97.66
2035.00,97.69
2034.00,97.68
2033.00,97.62
2032.00,97.53
2031.00,97.44
2030.00,97.37
2029.00,97.36
2028.00,97.39
2027.00,97.44
2026.00,97.50
2025.00,97.56
2024.00,97.59
2023.00,97.59
2022.00,97.58
2021.00,97.58
2020.00,97.59
2019.00,97.58
2018.00,97.53
2017.00,97.50
2016.00,97.53
2015.00,97.60
2014.00,97.66
2013.00,97.68
2012.00,97.66
2011.00,97.66
2010.00,97.69
2009.00,97.78
2008.00,97.88
2007.00,97.95
2006.00,97.96
2005.00,97.93
2004.00,97.88
2003.00,97.85
2002.00,97.84
2001.00,97.84
2000.00,97.83
1999.00,97.81
1998.00,97.78
1997.00,97.75
1996.00,97.73
1995.00,97.69
1994.00,97.65
1993.00,97.65
1992.00,97.70
1991.00,97.77
1990.00,97.83
1989.00,97.85
1988.00,97.82
1987.00,97.77
1986.00,97.72
1985.00,97.68
1984.00,97.64
1983.00,97.62
1982.00,97.59
1981.00,97.58
1980.00,97.59
1979.00,97.62
1978.00,97.66
1977.00,97.70
1976.00,97.72
1975.00,97.71
1974.00,97.67
1973.00,97.63
1972.00,97.61
1971.00,97.61
1970.00,97.63
1969.00,97.65
1968.00,97.68
1967.00,97.72
1966.00,97.77
1965.00,97.80
1964.00,97.83
1963.00,97.85
1962.00,97.89
1961.00,97.93
1960.00,97.97
1959.00,98.01
1958.00,98.03
1957.00,98.06
1956.00,98.09
1955.00,98.12
1954.00,98.12
1953.00,98.09
1952.00,98.06
1951.00,98.03
1950.00,98.04
1949.00,98.06
1948.00,98.11
1947.00,98.15
1946.00,98.20
1945.00,98.23
1944.00,98.25
1943.00,98.25
1942.00,98.23
1941.00,98.21
1940.00,98.21
1939.00,98.24
1938.00,98.27
1937.00,98.30
1936.00,98.32
1935.00,98.33
1934.00,98.35
1933.00,98.35
1932.00,98.34
1931.00,98.32
1930.00,98.31
1929.00,98.32
1928.00,98.34
1927.00,98.37
1926.00,98.39
1925.00,98.41
1924.00,98.44
1923.00,98.45
1922.00,98.44
1921.00,98.41
1920.00,98.38
1919.00,98.37
1918.00,98.40
1917.00,98.44
1916.00,98.47
1915.00,98.49
1914.00,98.48
1913.00,98.45
1912.00,98.43
1911.00,98.42
1910.00,98.43
1909.00,98.46
1908.00,98.49
1907.00,98.51
1906.00,98.52
1905.00,98.54
1904.00,98.55
1903.00,98.55
1902.00,98.54
1901.00,98.52
1900.00,98.50
1899.00,98.50
1898.00,98.53
1897.00,98.54
1896.00,98.54
1895.00,98.52
1894.00,98.51
1893.00,98.52
1892.00,98.56
1891.00,98.59
1890.00,98.61
1889.00,98.62
1888.00,98.62
1887.00,98.61
1886.00,98.60
1885.00,98.58
1884.00,98.57
1883.00,98.57
1882.00,98.58
1881.00,98.60
1880.00,98.64
1879.00,98.67
1878.00,98.68
1877.00,98.67
1876.00,98.65
1875.00,98.64
1874.00,98.65
1873.00,98.67
1872.00,98.68
1871.00,98.70
1870.00,98.71
1869.00,98.70
1868.00,98.69
1867.00,98.69
1866.00,98.68
1865.00,98.68
1864.00,98.67
1863.00,98.66
1862.00,98.65
1861.00,98.66
1860.00,98.66
1859.00,98.66
1858.00,98.64
1857.00,98.63
1856.00,98.63
1855.00,98.64
1854.00,98.66
1853.00,98.68
1852.00,98.69
1851.00,98.69
1850.00,98.67
1849.00,98.66
1848.00,98.66
1847.00,98.65
1846.00,98.66
1845.00,98.68
1844.00,98.70
1843.00,98.72
1842.00,98.73
1841.00,98.72
1840.00,98.71
1839.00,98.71
1838.00,98.71
1837.00,98.70
1836.00,98.71
1835.00,98.72
1834.00,98.72
1833.00,98.72
1832.00,98.72
1831.00,98.73
1830.00,98.76
1829.00,98.78
1828.00,98.77
1827.00,98.75
1826.00,98.73
1825.00,98.73
1824.00,98.75
1823.00,98.78
1822.00,98.80
1821.00,98.80
1820.00,98.80
1819.00,98.79
1818.00,98.80
1817.00,98.81
1816.00,98.83
1815.00,98.85
1814.00,98.87
1813.00,98.89
1812.00,98.89
1811.00,98.88
1810.00,98.85
1809.00,98.83
1808.00,98.81
1807.00,98.82
1806.00,98.83
1805.00,98.84
1804.00,98.84
1803.00,98.83
1802.00,98.81
1801.00,98.80
1800.00,98.80
1799.00,98.81
1798.00,98.82
1797.00,98.83
1796.00,98.82
1795.00,98.80
1794.00,98.80
1793.00,98.81
1792.00,98.82
1791.00,98.83
1790.00,98.83
1789.00,98.83
1788.00,98.82
1787.00,98.81
1786.00,98.81
1785.00,98.83
1784.00,98.85
1783.00,98.86
1782.00,98.85
1781.00,98.84
1780.00,98.82
1779.00,98.81
1778.00,98.81
1777.00,98.82
1776.00,98.84
1775.00,98.85
1774.00,98.85
1773.00,98.85
1772.00,98.82
1771.00,98.79
1770.00,98.77
1769.00,98.76
1768.00,98.77
1767.00,98.77
1766.00,98.77
1765.00,98.77
1764.00,98.76
1763.00,98.75
1762.00,98.74
1761.00,98.75
1760.00,98.76
1759.00,98.77
1758.00,98.76
1757.00,98.76
1756.00,98.75
1755.00,98.75
1754.00,98.75
1753.00,98.75
1752.00,98.73
1751.00,98.72
1750.00,98.70
1749.00,98.69
1748.00,98.68
1747.00,98.67
1746.00,98.67
1745.00,98.68
1744.00,98.69
1743.00,98.69
1742.00,98.67
1741.00,98.64
1740.00,98.61
1739.00,98.59
1738.00,98.59
1737.00,98.60
1736.00,98.61
1735.00,98.62
1734.00,98.61
1733.00,98.61
1732.00,98.61
1731.00,98.62
1730.00,98.64
1729.00,98.66
1728.00,98.67
1727.00,98.66
1726.00,98.65
1725.00,98.64
1724.00,98.63
1723.00,98.63
1722.00,98.64
1721.00,98.64
1720.00,98.63
1719.00,98.63
1718.00,98.62
1717.00,98.61
1716.00,98.60
1715.00,98.60
1714.00,98.60
1713.00,98.60
1712.00,98.59
1711.00,98.59
1710.00,98.58
1709.00,98.57
1708.00,98.56
1707.00,98.56
1706.00,98.56
1705.00,98.56
1704.00,98.57
1703.00,98.56
1702.00,98.57
1701.00,98.58
1700.00,98.58
1699.00,98.56
1698.00,98.53
1697.00,98.50
1696.00,98.49
1695.00,98.50
1694.00,98.51
1693.00,98.52
1692.00,98.52
1691.00,98.52
1690.00,98.51
1689.00,98.49
1688.00,98.47
1687.00,98.45
1686.00,98.44
1685.00,98.41
1684.00,98.37
1683.00,98.33
1682.00,98.31
1681.00,98.30
1680.00,98.28
1679.00,98.25
1678.00,98.22
1677.00,98.18
1676.00,98.16
1675.00,98.14
1674.00,98.12
1673.00,98.10
1672.00,98.07
1671.00,98.04
1670.00,98.01
1669.00,98.00
1668.00,97.98
1667.00,97.96
1666.00,97.95
1665.00,97.93
1664.00,97.91
1663.00,97.89
1662.00,97.87
1661.00,97.85
1660.00,97.84
1659.00,97.83
1658.00,97.81
1657.00,97.80
1656.00,97.76
1655.00,97.72
1654.00,97.67
1653.00,97.61
1652.00,97.58
1651.00,97.58
1650.00,97.59
1649.00,97.59
1648.00,97.57
1647.00,97.55
1646.00,97.52
1645.00,97.50
1644.00,97.48
1643.00,97.47
1642.00,97.45
1641.00,97.43
1640.00,97.43
1639.00,97.43
1638.00,97.43
1637.00,97.42
1636.00,97.39
1635.00,97.35
1634.00,97.33
1633.00,97.31
1632.00,97.31
1631.00,97.30
1630.00,97.31
1629.00,97.32
1628.00,97.34
1627.00,97.35
1626.00,97.36
1625.00,97.36
1624.00,97.35
1623.00,97.35
1622.00,97.35
1621.00,97.36
1620.00,97.36
1619.00,97.36
1618.00,97.37
1617.00,97.37
1616.00,97.36
1615.00,97.36
1614.00,97.36
1613.00,97.36
1612.00,97.37
1611.00,97.37
1610.00,97.37
1609.00,97.35
1608.00,97.34
1607.00,97.34
1606.00,97.37
1605.00,97.40
1604.00,97.43
1603.00,97.45
1602.00,97.46
1601.00,97.47
1600.00,97.47
1599.00,97.48
1598.00,97.49
1597.00,97.50
1596.00,97.50
1595.00,97.50
1594.00,97.50
1593.00,97.51
1592.00,97.52
1591.00,97.53
1590.00,97.55
1589.00,97.58
1588.00,97.61
1587.00,97.63
1586.00,97.66
1585.00,97.68
1584.00,97.71
1583.00,97.74
1582.00,97.77
1581.00,97.80
1580.00,97.83
1579.00,97.85
1578.00,97.87
1577.00,97.88
1576.00,97.88
1575.00,97.88
1574.00,97.89
1573.00,97.90
1572.00,97.91
1571.00,97.94
1570.00,97.98
1569.00,98.02
1568.00,98.05
1567.00,98.07
1566.00,98.09
1565.00,98.10
1564.00,98.10
1563.00,98.09
1562.00,98.08
1561.00,98.08
1560.00,98.09
1559.00,98.11
1558.00,98.15
1557.00,98.19
1556.00,98.22
1555.00,98.24
1554.00,98.25
1553.00,98.25
1552.00,98.25
1551.00,98.25
1550.00,98.27
1549.00,98.28
1548.00,98.28
1547.00,98.28
1546.00,98.28
1545.00,98.29
1544.00,98.29
1543.00,98.29
1542.00,98.29
1541.00,98.30
1540.00,98.30
1539.00,98.30
1538.00,98.31
1537.00,98.32
1536.00,98.33
1535.00,98.34
1534.00,98.35
1533.00,98.37
1532.00,98.38
1531.00,98.40
1530.00,98.41
1529.00,98.43
1528.00,98.44
1527.00,98.45
1526.00,98.45
1525.00,98.46
1524.00,98.47
1523.00,98.48
1522.00,98.48
1521.00,98.48
1520.00,98.47
1519.00,98.47
1518.00,98.48
1517.00,98.47
1516.00,98.46
1515.00,98.45
1514.00,98.46
1513.00,98.47
1512.00,98.48
1511.00,98.49
1510.00,98.49
1509.00,98.49
1508.00,98.49
1507.00,98.49
1506.00,98.49
1505.00,98.50
1504.00,98.50
1503.00,98.49
1502.00,98.49
1501.00,98.50
1500.00,98.51
1499.00,98.53
1498.00,98.54
1497.00,98.53
1496.00,98.50
1495.00,98.47
1494.00,98.44
1493.00,98.42
1492.00,98.40
1491.00,98.39
1490.00,98.36
1489.00,98.33
1488.00,98.30
1487.00,98.27
1486.00,98.24
1485.00,98.19
1484.00,98.13
1483.00,98.08
1482.00,98.02
1481.00,97.98
1480.00,97.95
1479.00,97.94
1478.00,97.92
1477.00,97.90
1476.00,97.86
1475.00,97.82
1474.00,97.77
1473.00,97.72
1472.00,97.67
1471.00,97.63
1470.00,97.58
1469.00,97.53
1468.00,97.48
1467.00,97.43
1466.00,97.37
1465.00,97.28
1464.00,97.21
1463.00,97.16
1462.00,97.13
1461.00,97.11
1460.00,97.09
1459.00,97.05
1458.00,97.00
1457.00,96.91
1456.00,96.82
1455.00,96.76
1454.00,96.73
1453.00,96.70
1452.00,96.68
1451.00,96.67
1450.00,96.65
1449.00,96.62
1448.00,96.59
1447.00,96.56
1446.00,96.54
1445.00,96.52
1444.00,96.49
1443.00,96.46
1442.00,96.44
1441.00,96.40
1440.00,96.36
1439.00,96.32
1438.00,96.26
1437.00,96.18
1436.00,96.08
1435.00,95.98
1434.00,95.89
1433.00,95.80
1432.00,95.71
1431.00,95.64
1430.00,95.59
1429.00,95.55
1428.00,95.54
1427.00,95.54
1426.00,95.55
1425.00,95.57
1424.00,95.60
1423.00,95.64
1422.00,95.69
1421.00,95.76
1420.00,95.84
1419.00,95.92
1418.00,96.00
1417.00,96.06
1416.00,96.13
1415.00,96.19
1414.00,96.24
1413.00,96.29
1412.00,96.32
1411.00,96.35
1410.00,96.38
1409.00,96.41
1408.00,96.45
1407.00,96.49
1406.00,96.53
1405.00,96.55
1404.00,96.57
1403.00,96.59
1402.00,96.60
1401.00,96.61
1400.00,96.63
1399.00,96.64
1398.00,96.65
1397.00,96.65
1396.00,96.67
1395.00,96.69
1394.00,96.71
1393.00,96.72
1392.00,96.73
1391.00,96.73
1390.00,96.72
1389.00,96.70
1388.00,96.66
1387.00,96.59
1386.00,96.52
1385.00,96.45
1384.00,96.37
1383.00,96.29
1382.00,96.19
1381.00,96.08
1380.00,95.96
1379.00,95.84
1378.00,95.73
1377.00,95.63
1376.00,95.52
1375.00,95.40
1374.00,95.26
1373.00,95.13
1372.00,95.03
1371.00,94.97
1370.00,94.93
1369.00,94.91
1368.00,94.90
1367.00,94.90
1366.00,94.91
1365.00,94.90
1364.00,94.88
1363.00,94.85
1362.00,94.85
1361.00,94.86
1360.00,94.90
1359.00,94.93
1358.00,94.96
1357.00,94.99
1356.00,95.01
1355.00,95.05
1354.00,95.09
1353.00,95.14
1352.00,95.20
1351.00,95.25
1350.00,95.28
1349.00,95.28
1348.00,95.26
1347.00,95.23
1346.00,95.18
1345.00,95.12
1344.00,95.03
1343.00,94.94
1342.00,94.84
1341.00,94.73
1340.00,94.62
1339.00,94.53
1338.00,94.46
1337.00,94.42
1336.00,94.38
1335.00,94.35
1334.00,94.34
1333.00,94.37
1332.00,94.41
1331.00,94.47
1330.00,94.53
1329.00,94.57
1328.00,94.58
1327.00,94.56
1326.00,94.52
1325.00,94.46
1324.00,94.38
1323.00,94.28
1322.00,94.17
1321.00,94.05
1320.00,93.93
1319.00,93.80
1318.00,93.70
1317.00,93.61
1316.00,93.54
1315.00,93.51
1314.00,93.51
1313.00,93.55
1312.00,93.62
1311.00,93.73
1310.00,93.85
1309.00,93.99
1308.00,94.13
1307.00,94.28
1306.00,94.41
1305.00,94.55
1304.00,94.68
1303.00,94.81
1302.00,94.96
1301.00,95.09
1300.00,95.21
1299.00,95.31
1298.00,95.40
1297.00,95.47
1296.00,95.53
1295.00,95.57
1294.00,95.61
1293.00,95.64
1292.00,95.66
1291.00,95.68
1290.00,95.70
1289.00,95.71
1288.00,95.72
1287.00,95.72
1286.00,95.71
1285.00,95.68
1284.00,95.62
1283.00,95.56
1282.00,95.50
1281.00,95.46
1280.00,95.46
1279.00,95.48
1278.00,95.52
1277.00,95.55
1276.00,95.58
1275.00,95.60
1274.00,95.63
1273.00,95.66
1272.00,95.70
1271.00,95.75
1270.00,95.80
1269.00,95.84
1268.00,95.87
1267.00,95.88
1266.00,95.91
1265.00,95.94
1264.00,95.98
1263.00,96.01
1262.00,96.03
1261.00,96.04
1260.00,96.06
1259.00,96.09
1258.00,96.11
1257.00,96.13
1256.00,96.14
1255.00,96.14
1254.00,96.14
1253.00,96.14
1252.00,96.13
1251.00,96.11
1250.00,96.09
1249.00,96.07
1248.00,96.06
1247.00,96.06
1246.00,96.08
1245.00,96.11
1244.00,96.14
1243.00,96.17
1242.00,96.21
1241.00,96.24
1240.00,96.26
1239.00,96.26
1238.00,96.25
1237.00,96.24
1236.00,96.24
1235.00,96.26
1234.00,96.30
1233.00,96.35
1232.00,96.41
1231.00,96.47
1230.00,96.54
1229.00,96.60
1228.00,96.67
1227.00,96.74
1226.00,96.81
1225.00,96.88
1224.00,96.94
1223.00,96.99
1222.00,97.04
1221.00,97.08
1220.00,97.14
1219.00,97.20
1218.00,97.26
1217.00,97.30
1216.00,97.32
1215.00,97.31
1214.00,97.27
1213.00,97.23
1212.00,97.18
1211.00,97.11
1210.00,96.99
1209.00,96.85
1208.00,96.70
1207.00,96.58
1206.00,96.49
1205.00,96.44
1204.00,96.41
1203.00,96.41
1202.00,96.43
1201.00,96.46
1200.00,96.51
1199.00,96.56
1198.00,96.62
1197.00,96.67
1196.00,96.73
1195.00,96.79
1194.00,96.88
1193.00,96.98
1192.00,97.07
1191.00,97.14
1190.00,97.17
1189.00,97.19
1188.00,97.21
1187.00,97.23
1186.00,97.25
1185.00,97.25
1184.00,97.23
1183.00,97.17
1182.00,97.10
1181.00,97.02
1180.00,96.93
1179.00,96.83
1178.00,96.69
1177.00,96.52
1176.00,96.33
1175.00,96.12
1174.00,95.90
1173.00,95.65
1172.00,95.37
1171.00,95.05
1170.00,94.71
1169.00,94.33
1168.00,93.96
1167.00,93.60
1166.00,93.27
1165.00,92.98
1164.00,92.74
1163.00,92.56
1162.00,92.44
1161.00,92.37
1160.00,92.34
1159.00,92.36
1158.00,92.40
1157.00,92.45
1156.00,92.52
1155.00,92.60
1154.00,92.69
1153.00,92.78
1152.00,92.87
1151.00,92.99
1150.00,93.13
1149.00,93.27
1148.00,93.40
1147.00,93.53
1146.00,93.66
1145.00,93.80
1144.00,93.95
1143.00,94.10
1142.00,94.22
1141.00,94.33
1140.00,94.41
1139.00,94.48
1138.00,94.51
1137.00,94.48
1136.00,94.39
1135.00,94.26
1134.00,94.12
1133.00,93.99
1132.00,93.85
1131.00,93.70
1130.00,93.51
1129.00,93.28
1128.00,93.02
1127.00,92.75
1126.00,92.50
1125.00,92.25
1124.00,92.02
1123.00,91.80
1122.00,91.60
1121.00,91.39
1120.00,91.13
1119.00,90.84
1118.00,90.52
1117.00,90.17
1116.00,89.79
1115.00,89.40
1114.00,89.03
1113.00,88.69
1112.00,88.43
1111.00,88.25
1110.00,88.13
1109.00,88.02
1108.00,87.91
1107.00,87.81
1106.00,87.71
1105.00,87.63
1104.00,87.58
1103.00,87.59
1102.00,87.64
1101.00,87.72
1100.00,87.84
1099.00,87.99
1098.00,88.17
1097.00,88.35
1096.00,88.50
1095.00,88.62
1094.00,88.73
1093.00,88.82
1092.00,88.93
1091.00,89.05
1090.00,89.19
1089.00,89.29
1088.00,89.33
1087.00,89.33
1086.00,89.32
1085.00,89.29
1084.00,89.27
1083.00,89.23
1082.00,89.17
1081.00,89.07
1080.00,88.92
1079.00,88.76
1078.00,88.58
1077.00,88.38
1076.00,88.18
1075.00,87.99
1074.00,87.80
1073.00,87.61
1072.00,87.38
1071.00,87.13
1070.00,86.86
1069.00,86.55
1068.00,86.20
1067.00,85.83
1066.00,85.41
1065.00,84.93
1064.00,84.39
1063.00,83.84
1062.00,83.33
1061.00,82.89
1060.00,82.51
1059.00,82.19
1058.00,81.91
1057.00,81.67
1056.00,81.48
1055.00,81.35
1054.00,81.29
1053.00,81.24
1052.00,81.23
1051.00,81.26
1050.00,81.34
1049.00,81.45
1048.00,81.57
1047.00,81.72
1046.00,81.88
1045.00,82.05
1044.00,82.19
1043.00,82.31
1042.00,82.35
1041.00,82.30
1040.00,82.15
1039.00,81.92
1038.00,81.65
1037.00,81.35
1036.00,81.06
1035.00,80.80
1034.00,80.57
1033.00,80.37
1032.00,80.20
1031.00,80.06
1030.00,79.97
1029.00,79.93
1028.00,79.92
1027.00,79.95
1026.00,80.00
1025.00,80.06
1024.00,80.12
1023.00,80.19
1022.00,80.28
1021.00,80.36
1020.00,80.44
1019.00,80.52
1018.00,80.61
1017.00,80.69
1016.00,80.76
1015.00,80.80
1014.00,80.84
1013.00,80.89
1012.00,80.93
1011.00,80.99
1010.00,81.03
1009.00,81.05
1008.00,81.04
1007.00,81.03
1006.00,81.03
1005.00,81.03
1004.00,81.01
1003.00,81.00
1002.00,81.00
1001.00,81.00
1000.00,81.02
999.00,81.05
998.00,81.09
997.00,81.15
996.00,81.22
995.00,81.30
994.00,81.38
993.00,81.45
992.00,81.49
991.00,81.52
990.00,81.54
989.00,81.52
988.00,81.47
987.00,81.40
986.00,81.34
985.00,81.30
984.00,81.31
983.00,81.41
982.00,81.59
981.00,81.85
980.00,82.16
979.00,82.52
978.00,82.89
977.00,83.26
976.00,83.60
975.00,83.93
974.00,84.24
973.00,84.53
972.00,84.82
971.00,85.08
970.00,85.33
969.00,85.54
968.00,85.72
967.00,85.90
966.00,86.07
965.00,86.23
964.00,86.39
963.00,86.57
962.00,86.78
961.00,86.98
960.00,87.17
959.00,87.34
958.00,87.48
957.00,87.62
956.00,87.76
955.00,87.91
954.00,88.06
953.00,88.21
952.00,88.33
951.00,88.44
950.00,88.56
949.00,88.69
948.00,88.83
947.00,88.96
946.00,89.08
945.00,89.22
944.00,89.36
943.00,89.50
942.00,89.63
941.00,89.74
940.00,89.84
939.00,89.93
938.00,90.01
937.00,90.08
936.00,90.16
935.00,90.23
934.00,90.29
933.00,90.34
932.00,90.39
931.00,90.45
930.00,90.52
929.00,90.60
928.00,90.67
927.00,90.73
926.00,90.78
925.00,90.84
924.00,90.91
923.00,90.98
922.00,91.05
921.00,91.10
920.00,91.15
919.00,91.21
918.00,91.27
917.00,91.33
916.00,91.36
915.00,91.35
914.00,91.31
913.00,91.26
912.00,91.23
911.00,91.22
910.00,91.22
909.00,91.21
908.00,91.19
907.00,91.15
906.00,91.12
905.00,91.09
904.00,91.05
903.00,91.02
902.00,90.98
901.00,90.93
900.00,90.86
899.00,90.80
898.00,90.76
897.00,90.74
896.00,90.73
895.00,90.75
894.00,90.80
893.00,90.86
892.00,90.92
891.00,90.98
890.00,91.04
889.00,91.11
888.00,91.20
887.00,91.31
886.00,91.41
885.00,91.50
884.00,91.58
883.00,91.65
882.00,91.73
881.00,91.82
880.00,91.91
879.00,92.02
878.00,92.12
877.00,92.20
876.00,92.26
875.00,92.29
874.00,92.32
873.00,92.35
872.00,92.39
871.00,92.44
870.00,92.50
869.00,92.56
868.00,92.61
867.00,92.66
866.00,92.70
865.00,92.72
864.00,92.74
863.00,92.78
862.00,92.83
861.00,92.89
860.00,92.92
859.00,92.92
858.00,92.93
857.00,92.96
856.00,93.01
855.00,93.04
854.00,93.05
853.00,93.04
852.00,93.03
851.00,93.03
850.00,93.04
849.00,93.05
848.00,93.07
847.00,93.10
846.00,93.13
845.00,93.15
844.00,93.15
843.00,93.15
842.00,93.16
841.00,93.17
840.00,93.18
839.00,93.18
838.00,93.17
837.00,93.18
836.00,93.21
835.00,93.24
834.00,93.26
833.00,93.27
832.00,93.25
831.00,93.23
830.00,93.22
829.00,93.22
828.00,93.23
827.00,93.23
826.00,93.23
825.00,93.25
824.00,93.27
823.00,93.28
822.00,93.29
821.00,93.28
820.00,93.28
819.00,93.30
818.00,93.34
817.00,93.36
816.00,93.34
815.00,93.31
814.00,93.27
813.00,93.24
812.00,93.23
811.00,93.24
810.00,93.29
809.00,93.35
808.00,93.38
807.00,93.37
806.00,93.33
805.00,93.27
804.00,93.23
803.00,93.23
802.00,93.27
801.00,93.33
800.00,93.37
799.00,93.37
798.00,93.34
797.00,93.30
796.00,93.27
795.00,93.24
794.00,93.21
793.00,93.19
792.00,93.19
791.00,93.20
790.00,93.20
789.00,93.17
788.00,93.13
787.00,93.10
786.00,93.13
785.00,93.18
784.00,93.22
783.00,93.23
782.00,93.22
781.00,93.19
780.00,93.16
779.00,93.15
778.00,93.13
777.00,93.11
776.00,93.09
775.00,93.05
774.00,93.01
773.00,92.98
772.00,92.95
771.00,92.95
770.00,92.96
769.00,92.95
768.00,92.94
767.00,92.93
766.00,92.92
765.00,92.89
764.00,92.85
763.00,92.81
762.00,92.79
761.00,92.75
760.00,92.71
759.00,92.66
758.00,92.63
757.00,92.62
756.00,92.60
755.00,92.60
754.00,92.60
753.00,92.62
752.00,92.63
751.00,92.60
750.00,92.55
749.00,92.47
748.00,92.38
747.00,92.32
746.00,92.29
745.00,92.28
744.00,92.26
743.00,92.23
742.00,92.18
741.00,92.12
740.00,92.08
739.00,92.04
738.00,92.01
737.00,91.96
736.00,91.90
735.00,91.83
734.00,91.78
733.00,91.75
732.00,91.73
731.00,91.70
730.00,91.62
729.00,91.49
728.00,91.33
727.00,91.18
726.00,91.06
725.00,90.97
724.00,90.88
723.00,90.79
722.00,90.67
721.00,90.50
720.00,90.32
719.00,90.15
718.00,90.04
717.00,89.97
716.00,89.91
715.00,89.83
714.00,89.74
713.00,89.62
712.00,89.47
711.00,89.31
710.00,89.20
709.00,89.14
708.00,89.11
707.00,89.10
706.00,89.08
705.00,89.08
704.00,89.06
703.00,89.01
702.00,88.94
701.00,88.86
700.00,88.80
699.00,88.77
698.00,88.77
697.00,88.77
696.00,88.75
695.00,88.72
694.00,88.67
693.00,88.63
692.00,88.61
691.00,88.59
690.00,88.58
689.00,88.56
688.00,88.54
687.00,88.51
686.00,88.47
685.00,88.42
684.00,88.37
683.00,88.32
682.00,88.23
681.00,88.09
680.00,87.93
679.00,87.79
678.00,87.68
677.00,87.54
676.00,87.33
675.00,87.07
674.00,86.80
673.00,86.56
672.00,86.36
671.00,86.20
670.00,86.08
669.00,85.96
668.00,85.77
667.00,85.55
666.00,85.36
665.00,85.22
664.00,85.11
663.00,85.01
662.00,84.93
661.00,84.89
660.00,84.93
659.00,85.06
658.00,85.24
657.00,85.45
656.00,85.64
655.00,85.80
654.00,85.89
653.00,85.91
652.00,85.91
651.00,85.95
650.00,86.03
649.00,86.08
648.00,86.05
647.00,86.00
646.00,85.97
645.00,85.94
644.00,85.91
643.00,85.88
642.00,85.84
641.00,85.78
640.00,85.70
639.00,85.63
638.00,85.57
637.00,85.49
636.00,85.36
635.00,85.23
634.00,85.14
633.00,85.10
632.00,85.10
631.00,85.15
630.00,85.16
629.00,85.07
628.00,84.91
627.00,84.75
626.00,84.60
625.00,84.36
624.00,84.03
623.00,83.76
622.00,83.70
621.00,83.72
620.00,83.60
619.00,83.29
618.00,82.85
617.00,82.41
616.00,82.06
615.00,81.89
614.00,81.86
613.00,81.84
612.00,81.76
611.00,81.73
610.00,81.85
609.00,82.04
608.00,82.19
607.00,82.32
606.00,82.47
605.00,82.66
604.00,82.78
603.00,82.79
602.00,82.66
601.00,82.45
600.00,82.27
599.00,82.24
598.00,82.35
597.00,82.52
596.00,82.72
595.00,82.95
594.00,83.13
593.00,83.18
592.00,83.07
591.00,82.87
590.00,82.57
589.00,82.19
588.00,81.99
587.00,82.20
586.00,82.73
585.00,83.06
584.00,82.89
583.00,82.38
582.00,81.80
581.00,81.27
580.00,80.88
579.00,80.88
578.00,81.30
577.00,81.78
576.00,82.00
575.00,82.03
574.00,82.15
573.00,82.36
572.00,82.52
571.00,82.46
570.00,81.97
569.00,81.03
568.00,80.09
567.00,79.76
566.00,80.04
565.00,80.26
564.00,80.04
563.00,79.68
562.00,79.44
561.00,79.19
560.00,78.79
559.00,78.56
558.00,78.65
557.00,78.79
556.00,78.72
555.00,78.67
554.00,78.71
553.00,78.58
552.00,77.99
551.00,77.68
550.00,77.85
