Created as New Dataset,7.2. Cotton sSeed with lint
cm-1,%T
4000.00,101.33
3999.00,101.33
3998.00,101.34
3997.00,101.35
3996.00,101.36
3995.00,101.36
3994.00,101.37
3993.00,101.37
3992.00,101.37
3991.00,101.37
3990.00,101.35
3989.00,101.34
3988.00,101.32
3987.00,101.31
3986.00,101.30
3985.00,101.31
3984.00,101.33
3983.00,101.34
3982.00,101.36
3981.00,101.36
3980.00,101.36
3979.00,101.36
3978.00,101.36
3977.00,101.37
3976.00,101.37
3975.00,101.36
3974.00,101.35
3973.00,101.34
3972.00,101.34
3971.00,101.34
3970.00,101.35
3969.00,101.35
3968.00,101.36
3967.00,101.38
3966.00,101.39
3965.00,101.39
3964.00,101.38
3963.00,101.37
3962.00,101.36
3961.00,101.37
3960.00,101.39
3959.00,101.41
3958.00,101.42
3957.00,101.42
3956.00,101.42
3955.00,101.41
3954.00,101.40
3953.00,101.40
3952.00,101.40
3951.00,101.41
3950.00,101.42
3949.00,101.42
3948.00,101.43
3947.00,101.45
3946.00,101.46
3945.00,101.45
3944.00,101.42
3943.00,101.39
3942.00,101.36
3941.00,101.35
3940.00,101.36
3939.00,101.38
3938.00,101.40
3937.00,101.41
3936.00,101.42
3935.00,101.41
3934.00,101.40
3933.00,101.40
3932.00,101.40
3931.00,101.40
3930.00,101.41
3929.00,101.41
3928.00,101.41
3927.00,101.40
3926.00,101.38
3925.00,101.35
3924.00,101.33
3923.00,101.32
3922.00,101.32
3921.00,101.34
3920.00,101.36
3919.00,101.36
3918.00,101.35
3917.00,101.33
3916.00,101.32
3915.00,101.32
3914.00,101.33
3913.00,101.35
3912.00,101.36
3911.00,101.38
3910.00,101.41
3909.00,101.43
3908.00,101.44
3907.00,101.45
3906.00,101.44
3905.00,101.42
3904.00,101.40
3903.00,101.38
3902.00,101.37
3901.00,101.37
3900.00,101.38
3899.00,101.38
3898.00,101.38
3897.00,101.38
3896.00,101.37
3895.00,101.37
3894.00,101.37
3893.00,101.37
3892.00,101.37
3891.00,101.38
3890.00,101.41
3889.00,101.43
3888.00,101.45
3887.00,101.45
3886.00,101.43
3885.00,101.41
3884.00,101.39
3883.00,101.38
3882.00,101.36
3881.00,101.34
3880.00,101.32
3879.00,101.30
3878.00,101.30
3877.00,101.30
3876.00,101.31
3875.00,101.31
3874.00,101.31
3873.00,101.31
3872.00,101.32
3871.00,101.35
3870.00,101.37
3869.00,101.39
3868.00,101.40
3867.00,101.38
3866.00,101.37
3865.00,101.36
3864.00,101.36
3863.00,101.37
3862.00,101.36
3861.00,101.35
3860.00,101.35
3859.00,101.37
3858.00,101.40
3857.00,101.43
3856.00,101.46
3855.00,101.47
3854.00,101.46
3853.00,101.46
3852.00,101.47
3851.00,101.48
3850.00,101.46
3849.00,101.44
3848.00,101.42
3847.00,101.40
3846.00,101.39
3845.00,101.38
3844.00,101.37
3843.00,101.36
3842.00,101.35
3841.00,101.34
3840.00,101.33
3839.00,101.34
3838.00,101.36
3837.00,101.38
3836.00,101.40
3835.00,101.40
3834.00,101.38
3833.00,101.35
3832.00,101.34
3831.00,101.34
3830.00,101.35
3829.00,101.36
3828.00,101.36
3827.00,101.36
3826.00,101.36
3825.00,101.37
3824.00,101.37
3823.00,101.37
3822.00,101.36
3821.00,101.35
3820.00,101.36
3819.00,101.37
3818.00,101.38
3817.00,101.37
3816.00,101.36
3815.00,101.34
3814.00,101.33
3813.00,101.31
3812.00,101.31
3811.00,101.31
3810.00,101.32
3809.00,101.32
3808.00,101.30
3807.00,101.27
3806.00,101.27
3805.00,101.30
3804.00,101.32
3803.00,101.32
3802.00,101.30
3801.00,101.29
3800.00,101.30
3799.00,101.32
3798.00,101.32
3797.00,101.30
3796.00,101.29
3795.00,101.30
3794.00,101.31
3793.00,101.32
3792.00,101.32
3791.00,101.31
3790.00,101.30
3789.00,101.29
3788.00,101.28
3787.00,101.26
3786.00,101.24
3785.00,101.23
3784.00,101.22
3783.00,101.22
3782.00,101.22
3781.00,101.24
3780.00,101.26
3779.00,101.27
3778.00,101.28
3777.00,101.27
3776.00,101.27
3775.00,101.26
3774.00,101.26
3773.00,101.25
3772.00,101.24
3771.00,101.22
3770.00,101.20
3769.00,101.19
3768.00,101.18
3767.00,101.17
3766.00,101.16
3765.00,101.16
3764.00,101.18
3763.00,101.20
3762.00,101.22
3761.00,101.23
3760.00,101.22
3759.00,101.22
3758.00,101.23
3757.00,101.25
3756.00,101.26
3755.00,101.26
3754.00,101.24
3753.00,101.22
3752.00,101.21
3751.00,101.21
3750.00,101.23
3749.00,101.26
3748.00,101.29
3747.00,101.30
3746.00,101.30
3745.00,101.29
3744.00,101.28
3743.00,101.27
3742.00,101.25
3741.00,101.22
3740.00,101.19
3739.00,101.18
3738.00,101.19
3737.00,101.21
3736.00,101.23
3735.00,101.23
3734.00,101.22
3733.00,101.19
3732.00,101.18
3731.00,101.18
3730.00,101.21
3729.00,101.23
3728.00,101.25
3727.00,101.25
3726.00,101.24
3725.00,101.23
3724.00,101.21
3723.00,101.19
3722.00,101.16
3721.00,101.16
3720.00,101.17
3719.00,101.19
3718.00,101.21
3717.00,101.23
3716.00,101.23
3715.00,101.23
3714.00,101.20
3713.00,101.16
3712.00,101.12
3711.00,101.10
3710.00,101.09
3709.00,101.09
3708.00,101.10
3707.00,101.10
3706.00,101.08
3705.00,101.07
3704.00,101.06
3703.00,101.08
3702.00,101.09
3701.00,101.11
3700.00,101.12
3699.00,101.12
3698.00,101.13
3697.00,101.15
3696.00,101.17
3695.00,101.17
3694.00,101.16
3693.00,101.13
3692.00,101.12
3691.00,101.12
3690.00,101.14
3689.00,101.15
3688.00,101.14
3687.00,101.13
3686.00,101.13
3685.00,101.12
3684.00,101.12
3683.00,101.12
3682.00,101.10
3681.00,101.07
3680.00,101.04
3679.00,101.02
3678.00,101.01
3677.00,101.00
3676.00,100.99
3675.00,100.99
3674.00,100.99
3673.00,101.00
3672.00,101.00
3671.00,100.99
3670.00,101.00
3669.00,101.01
3668.00,101.01
3667.00,101.00
3666.00,100.98
3665.00,100.97
3664.00,100.96
3663.00,100.97
3662.00,100.97
3661.00,100.97
3660.00,100.97
3659.00,100.96
3658.00,100.94
3657.00,100.91
3656.00,100.88
3655.00,100.86
3654.00,100.84
3653.00,100.82
3652.00,100.81
3651.00,100.80
3650.00,100.80
3649.00,100.79
3648.00,100.76
3647.00,100.72
3646.00,100.68
3645.00,100.67
3644.00,100.66
3643.00,100.66
3642.00,100.66
3641.00,100.66
3640.00,100.65
3639.00,100.64
3638.00,100.63
3637.00,100.61
3636.00,100.58
3635.00,100.54
3634.00,100.51
3633.00,100.49
3632.00,100.49
3631.00,100.52
3630.00,100.55
3629.00,100.57
3628.00,100.57
3627.00,100.57
3626.00,100.54
3625.00,100.51
3624.00,100.47
3623.00,100.42
3622.00,100.37
3621.00,100.32
3620.00,100.27
3619.00,100.24
3618.00,100.23
3617.00,100.23
3616.00,100.22
3615.00,100.20
3614.00,100.16
3613.00,100.12
3612.00,100.08
3611.00,100.05
3610.00,100.03
3609.00,100.01
3608.00,100.00
3607.00,99.98
3606.00,99.98
3605.00,99.97
3604.00,99.95
3603.00,99.94
3602.00,99.92
3601.00,99.90
3600.00,99.87
3599.00,99.85
3598.00,99.81
3597.00,99.77
3596.00,99.73
3595.00,99.68
3594.00,99.63
3593.00,99.59
3592.00,99.56
3591.00,99.54
3590.00,99.52
3589.00,99.51
3588.00,99.49
3587.00,99.47
3586.00,99.45
3585.00,99.43
3584.00,99.40
3583.00,99.37
3582.00,99.32
3581.00,99.28
3580.00,99.25
3579.00,99.23
3578.00,99.20
3577.00,99.15
3576.00,99.11
3575.00,99.07
3574.00,99.04
3573.00,99.03
3572.00,99.03
3571.00,99.04
3570.00,99.04
3569.00,99.03
3568.00,98.99
3567.00,98.92
3566.00,98.85
3565.00,98.79
3564.00,98.75
3563.00,98.71
3562.00,98.68
3561.00,98.66
3560.00,98.64
3559.00,98.62
3558.00,98.59
3557.00,98.57
3556.00,98.54
3555.00,98.50
3554.00,98.46
3553.00,98.40
3552.00,98.35
3551.00,98.29
3550.00,98.24
3549.00,98.20
3548.00,98.16
3547.00,98.12
3546.00,98.10
3545.00,98.07
3544.00,98.05
3543.00,98.01
3542.00,97.97
3541.00,97.94
3540.00,97.91
3539.00,97.87
3538.00,97.84
3537.00,97.80
3536.00,97.77
3535.00,97.75
3534.00,97.74
3533.00,97.73
3532.00,97.70
3531.00,97.67
3530.00,97.63
3529.00,97.60
3528.00,97.56
3527.00,97.51
3526.00,97.45
3525.00,97.41
3524.00,97.37
3523.00,97.33
3522.00,97.29
3521.00,97.26
3520.00,97.23
3519.00,97.21
3518.00,97.17
3517.00,97.11
3516.00,97.06
3515.00,97.02
3514.00,97.00
3513.00,96.97
3512.00,96.93
3511.00,96.88
3510.00,96.82
3509.00,96.78
3508.00,96.74
3507.00,96.70
3506.00,96.64
3505.00,96.58
3504.00,96.51
3503.00,96.46
3502.00,96.42
3501.00,96.39
3500.00,96.37
3499.00,96.33
3498.00,96.29
3497.00,96.24
3496.00,96.20
3495.00,96.16
3494.00,96.12
3493.00,96.08
3492.00,96.04
3491.00,95.99
3490.00,95.94
3489.00,95.88
3488.00,95.81
3487.00,95.74
3486.00,95.68
3485.00,95.62
3484.00,95.56
3483.00,95.52
3482.00,95.48
3481.00,95.44
3480.00,95.39
3479.00,95.33
3478.00,95.27
3477.00,95.21
3476.00,95.15
3475.00,95.09
3474.00,95.02
3473.00,94.96
3472.00,94.92
3471.00,94.89
3470.00,94.86
3469.00,94.81
3468.00,94.74
3467.00,94.68
3466.00,94.62
3465.00,94.56
3464.00,94.51
3463.00,94.46
3462.00,94.40
3461.00,94.35
3460.00,94.29
3459.00,94.22
3458.00,94.15
3457.00,94.08
3456.00,94.01
3455.00,93.94
3454.00,93.87
3453.00,93.80
3452.00,93.76
3451.00,93.72
3450.00,93.69
3449.00,93.64
3448.00,93.57
3447.00,93.50
3446.00,93.46
3445.00,93.42
3444.00,93.37
3443.00,93.31
3442.00,93.24
3441.00,93.17
3440.00,93.11
3439.00,93.06
3438.00,93.01
3437.00,92.97
3436.00,92.91
3435.00,92.84
3434.00,92.77
3433.00,92.69
3432.00,92.61
3431.00,92.54
3430.00,92.47
3429.00,92.42
3428.00,92.36
3427.00,92.29
3426.00,92.22
3425.00,92.15
3424.00,92.08
3423.00,92.01
3422.00,91.94
3421.00,91.87
3420.00,91.80
3419.00,91.74
3418.00,91.68
3417.00,91.62
3416.00,91.55
3415.00,91.49
3414.00,91.42
3413.00,91.35
3412.00,91.26
3411.00,91.19
3410.00,91.11
3409.00,91.06
3408.00,91.01
3407.00,90.96
3406.00,90.91
3405.00,90.86
3404.00,90.81
3403.00,90.77
3402.00,90.73
3401.00,90.68
3400.00,90.63
3399.00,90.58
3398.00,90.52
3397.00,90.47
3396.00,90.43
3395.00,90.39
3394.00,90.34
3393.00,90.29
3392.00,90.23
3391.00,90.18
3390.00,90.13
3389.00,90.09
3388.00,90.04
3387.00,89.99
3386.00,89.94
3385.00,89.89
3384.00,89.85
3383.00,89.82
3382.00,89.78
3381.00,89.72
3380.00,89.67
3379.00,89.62
3378.00,89.57
3377.00,89.53
3376.00,89.48
3375.00,89.42
3374.00,89.37
3373.00,89.31
3372.00,89.24
3371.00,89.18
3370.00,89.12
3369.00,89.05
3368.00,88.99
3367.00,88.91
3366.00,88.82
3365.00,88.74
3364.00,88.68
3363.00,88.63
3362.00,88.58
3361.00,88.51
3360.00,88.44
3359.00,88.36
3358.00,88.28
3357.00,88.20
3356.00,88.12
3355.00,88.04
3354.00,87.97
3353.00,87.89
3352.00,87.81
3351.00,87.74
3350.00,87.67
3349.00,87.61
3348.00,87.56
3347.00,87.51
3346.00,87.44
3345.00,87.37
3344.00,87.29
3343.00,87.22
3342.00,87.16
3341.00,87.12
3340.00,87.07
3339.00,87.03
3338.00,87.00
3337.00,86.98
3336.00,86.96
3335.00,86.96
3334.00,86.97
3333.00,86.99
3332.00,87.00
3331.00,87.00
3330.00,87.02
3329.00,87.04
3328.00,87.07
3327.00,87.11
3326.00,87.13
3325.00,87.15
3324.00,87.17
3323.00,87.19
3322.00,87.22
3321.00,87.25
3320.00,87.30
3319.00,87.35
3318.00,87.39
3317.00,87.42
3316.00,87.43
3315.00,87.44
3314.00,87.43
3313.00,87.42
3312.00,87.42
3311.00,87.42
3310.00,87.43
3309.00,87.44
3308.00,87.44
3307.00,87.45
3306.00,87.45
3305.00,87.45
3304.00,87.43
3303.00,87.41
3302.00,87.39
3301.00,87.39
3300.00,87.38
3299.00,87.38
3298.00,87.36
3297.00,87.34
3296.00,87.32
3295.00,87.31
3294.00,87.30
3293.00,87.31
3292.00,87.32
3291.00,87.34
3290.00,87.36
3289.00,87.37
3288.00,87.38
3287.00,87.39
3286.00,87.41
3285.00,87.41
3284.00,87.42
3283.00,87.41
3282.00,87.40
3281.00,87.40
3280.00,87.42
3279.00,87.45
3278.00,87.48
3277.00,87.50
3276.00,87.52
3275.00,87.54
3274.00,87.58
3273.00,87.63
3272.00,87.69
3271.00,87.75
3270.00,87.80
3269.00,87.85
3268.00,87.89
3267.00,87.95
3266.00,88.01
3265.00,88.07
3264.00,88.14
3263.00,88.20
3262.00,88.26
3261.00,88.32
3260.00,88.38
3259.00,88.47
3258.00,88.56
3257.00,88.65
3256.00,88.74
3255.00,88.82
3254.00,88.90
3253.00,88.97
3252.00,89.03
3251.00,89.09
3250.00,89.15
3249.00,89.23
3248.00,89.31
3247.00,89.40
3246.00,89.48
3245.00,89.55
3244.00,89.62
3243.00,89.68
3242.00,89.73
3241.00,89.79
3240.00,89.85
3239.00,89.91
3238.00,89.98
3237.00,90.05
3236.00,90.12
3235.00,90.18
3234.00,90.23
3233.00,90.27
3232.00,90.32
3231.00,90.37
3230.00,90.42
3229.00,90.49
3228.00,90.56
3227.00,90.62
3226.00,90.68
3225.00,90.73
3224.00,90.80
3223.00,90.88
3222.00,90.95
3221.00,91.01
3220.00,91.05
3219.00,91.10
3218.00,91.15
3217.00,91.21
3216.00,91.27
3215.00,91.32
3214.00,91.37
3213.00,91.42
3212.00,91.48
3211.00,91.54
3210.00,91.61
3209.00,91.67
3208.00,91.73
3207.00,91.78
3206.00,91.83
3205.00,91.88
3204.00,91.94
3203.00,92.02
3202.00,92.09
3201.00,92.14
3200.00,92.18
3199.00,92.22
3198.00,92.26
3197.00,92.30
3196.00,92.34
3195.00,92.37
3194.00,92.41
3193.00,92.45
3192.00,92.50
3191.00,92.55
3190.00,92.62
3189.00,92.68
3188.00,92.73
3187.00,92.78
3186.00,92.82
3185.00,92.87
3184.00,92.92
3183.00,92.97
3182.00,93.01
3181.00,93.05
3180.00,93.08
3179.00,93.11
3178.00,93.14
3177.00,93.19
3176.00,93.25
3175.00,93.31
3174.00,93.36
3173.00,93.41
3172.00,93.47
3171.00,93.52
3170.00,93.58
3169.00,93.63
3168.00,93.68
3167.00,93.70
3166.00,93.72
3165.00,93.74
3164.00,93.79
3163.00,93.84
3162.00,93.90
3161.00,93.95
3160.00,93.98
3159.00,94.02
3158.00,94.06
3157.00,94.10
3156.00,94.15
3155.00,94.20
3154.00,94.24
3153.00,94.28
3152.00,94.31
3151.00,94.35
3150.00,94.38
3149.00,94.41
3148.00,94.44
3147.00,94.47
3146.00,94.49
3145.00,94.52
3144.00,94.55
3143.00,94.58
3142.00,94.61
3141.00,94.64
3140.00,94.68
3139.00,94.73
3138.00,94.79
3137.00,94.84
3136.00,94.87
3135.00,94.90
3134.00,94.93
3133.00,94.95
3132.00,94.98
3131.00,94.99
3130.00,95.00
3129.00,95.02
3128.00,95.05
3127.00,95.08
3126.00,95.12
3125.00,95.15
3124.00,95.19
3123.00,95.23
3122.00,95.28
3121.00,95.33
3120.00,95.37
3119.00,95.40
3118.00,95.43
3117.00,95.47
3116.00,95.51
3115.00,95.55
3114.00,95.58
3113.00,95.60
3112.00,95.62
3111.00,95.65
3110.00,95.68
3109.00,95.72
3108.00,95.76
3107.00,95.80
3106.00,95.81
3105.00,95.81
3104.00,95.81
3103.00,95.82
3102.00,95.84
3101.00,95.87
3100.00,95.90
3099.00,95.94
3098.00,95.99
3097.00,96.05
3096.00,96.11
3095.00,96.15
3094.00,96.16
3093.00,96.17
3092.00,96.16
3091.00,96.17
3090.00,96.20
3089.00,96.24
3088.00,96.28
3087.00,96.31
3086.00,96.34
3085.00,96.36
3084.00,96.40
3083.00,96.44
3082.00,96.47
3081.00,96.49
3080.00,96.50
3079.00,96.51
3078.00,96.53
3077.00,96.56
3076.00,96.59
3075.00,96.61
3074.00,96.62
3073.00,96.63
3072.00,96.64
3071.00,96.66
3070.00,96.68
3069.00,96.71
3068.00,96.74
3067.00,96.76
3066.00,96.78
3065.00,96.79
3064.00,96.82
3063.00,96.86
3062.00,96.89
3061.00,96.92
3060.00,96.94
3059.00,96.95
3058.00,96.96
3057.00,96.97
3056.00,96.99
3055.00,97.02
3054.00,97.06
3053.00,97.09
3052.00,97.10
3051.00,97.10
3050.00,97.11
3049.00,97.14
3048.00,97.18
3047.00,97.21
3046.00,97.23
3045.00,97.24
3044.00,97.24
3043.00,97.27
3042.00,97.30
3041.00,97.35
3040.00,97.38
3039.00,97.39
3038.00,97.38
3037.00,97.38
3036.00,97.38
3035.00,97.39
3034.00,97.41
3033.00,97.42
3032.00,97.44
3031.00,97.46
3030.00,97.47
3029.00,97.48
3028.00,97.49
3027.00,97.49
3026.00,97.50
3025.00,97.50
3024.00,97.51
3023.00,97.54
3022.00,97.57
3021.00,97.61
3020.00,97.63
3019.00,97.64
3018.00,97.65
3017.00,97.65
3016.00,97.66
3015.00,97.67
3014.00,97.69
3013.00,97.71
3012.00,97.72
3011.00,97.73
3010.00,97.74
3009.00,97.75
3008.00,97.76
3007.00,97.77
3006.00,97.78
3005.00,97.79
3004.00,97.81
3003.00,97.83
3002.00,97.84
3001.00,97.86
3000.00,97.87
2999.00,97.86
2998.00,97.86
2997.00,97.85
2996.00,97.85
2995.00,97.86
2994.00,97.86
2993.00,97.86
2992.00,97.87
2991.00,97.88
2990.00,97.88
2989.00,97.88
2988.00,97.87
2987.00,97.86
2986.00,97.85
2985.00,97.84
2984.00,97.82
2983.00,97.81
2982.00,97.80
2981.00,97.78
2980.00,97.75
2979.00,97.72
2978.00,97.68
2977.00,97.64
2976.00,97.61
2975.00,97.56
2974.00,97.51
2973.00,97.45
2972.00,97.40
2971.00,97.35
2970.00,97.30
2969.00,97.25
2968.00,97.21
2967.00,97.20
2966.00,97.20
2965.00,97.21
2964.00,97.20
2963.00,97.17
2962.00,97.14
2961.00,97.11
2960.00,97.09
2959.00,97.07
2958.00,97.03
2957.00,96.98
2956.00,96.93
2955.00,96.88
2954.00,96.83
2953.00,96.78
2952.00,96.72
2951.00,96.65
2950.00,96.59
2949.00,96.52
2948.00,96.46
2947.00,96.40
2946.00,96.34
2945.00,96.29
2944.00,96.25
2943.00,96.21
2942.00,96.19
2941.00,96.16
2940.00,96.13
2939.00,96.09
2938.00,96.04
2937.00,96.02
2936.00,96.01
2935.00,96.01
2934.00,95.99
2933.00,95.96
2932.00,95.91
2931.00,95.85
2930.00,95.80
2929.00,95.73
2928.00,95.65
2927.00,95.55
2926.00,95.44
2925.00,95.32
2924.00,95.19
2923.00,95.06
2922.00,94.93
2921.00,94.83
2920.00,94.73
2919.00,94.64
2918.00,94.56
2917.00,94.50
2916.00,94.46
2915.00,94.44
2914.00,94.45
2913.00,94.45
2912.00,94.46
2911.00,94.44
2910.00,94.41
2909.00,94.36
2908.00,94.31
2907.00,94.26
2906.00,94.22
2905.00,94.18
2904.00,94.15
2903.00,94.11
2902.00,94.07
2901.00,94.04
2900.00,94.02
2899.00,94.03
2898.00,94.05
2897.00,94.08
2896.00,94.11
2895.00,94.13
2894.00,94.15
2893.00,94.17
2892.00,94.20
2891.00,94.24
2890.00,94.28
2889.00,94.33
2888.00,94.39
2887.00,94.44
2886.00,94.48
2885.00,94.53
2884.00,94.57
2883.00,94.61
2882.00,94.65
2881.00,94.68
2880.00,94.71
2879.00,94.74
2878.00,94.76
2877.00,94.77
2876.00,94.78
2875.00,94.80
2874.00,94.82
2873.00,94.85
2872.00,94.87
2871.00,94.90
2870.00,94.92
2869.00,94.95
2868.00,94.98
2867.00,95.01
2866.00,95.05
2865.00,95.08
2864.00,95.11
2863.00,95.13
2862.00,95.16
2861.00,95.19
2860.00,95.21
2859.00,95.24
2858.00,95.27
2857.00,95.30
2856.00,95.31
2855.00,95.31
2854.00,95.30
2853.00,95.27
2852.00,95.25
2851.00,95.25
2850.00,95.28
2849.00,95.36
2848.00,95.48
2847.00,95.61
2846.00,95.74
2845.00,95.87
2844.00,95.99
2843.00,96.09
2842.00,96.17
2841.00,96.26
2840.00,96.34
2839.00,96.41
2838.00,96.47
2837.00,96.52
2836.00,96.56
2835.00,96.60
2834.00,96.64
2833.00,96.69
2832.00,96.73
2831.00,96.77
2830.00,96.79
2829.00,96.82
2828.00,96.84
2827.00,96.87
2826.00,96.90
2825.00,96.93
2824.00,96.96
2823.00,97.00
2822.00,97.03
2821.00,97.08
2820.00,97.11
2819.00,97.14
2818.00,97.15
2817.00,97.17
2816.00,97.19
2815.00,97.22
2814.00,97.24
2813.00,97.26
2812.00,97.28
2811.00,97.30
2810.00,97.32
2809.00,97.34
2808.00,97.37
2807.00,97.40
2806.00,97.43
2805.00,97.45
2804.00,97.46
2803.00,97.48
2802.00,97.50
2801.00,97.53
2800.00,97.55
2799.00,97.57
2798.00,97.58
2797.00,97.59
2796.00,97.59
2795.00,97.58
2794.00,97.59
2793.00,97.60
2792.00,97.62
2791.00,97.64
2790.00,97.64
2789.00,97.64
2788.00,97.64
2787.00,97.64
2786.00,97.65
2785.00,97.65
2784.00,97.67
2783.00,97.69
2782.00,97.72
2781.00,97.74
2780.00,97.76
2779.00,97.76
2778.00,97.76
2777.00,97.76
2776.00,97.78
2775.00,97.80
2774.00,97.81
2773.00,97.82
2772.00,97.83
2771.00,97.83
2770.00,97.83
2769.00,97.84
2768.00,97.84
2767.00,97.84
2766.00,97.84
2765.00,97.83
2764.00,97.83
2763.00,97.84
2762.00,97.85
2761.00,97.87
2760.00,97.88
2759.00,97.88
2758.00,97.88
2757.00,97.88
2756.00,97.89
2755.00,97.89
2754.00,97.89
2753.00,97.88
2752.00,97.88
2751.00,97.89
2750.00,97.90
2749.00,97.90
2748.00,97.90
2747.00,97.90
2746.00,97.90
2745.00,97.90
2744.00,97.89
2743.00,97.88
2742.00,97.88
2741.00,97.89
2740.00,97.90
2739.00,97.90
2738.00,97.90
2737.00,97.90
2736.00,97.90
2735.00,97.91
2734.00,97.90
2733.00,97.90
2732.00,97.90
2731.00,97.91
2730.00,97.92
2729.00,97.94
2728.00,97.96
2727.00,97.96
2726.00,97.95
2725.00,97.94
2724.00,97.93
2723.00,97.94
2722.00,97.95
2721.00,97.97
2720.00,97.99
2719.00,98.00
2718.00,98.01
2717.00,98.01
2716.00,98.02
2715.00,98.03
2714.00,98.05
2713.00,98.05
2712.00,98.04
2711.00,98.04
2710.00,98.03
2709.00,98.05
2708.00,98.07
2707.00,98.09
2706.00,98.11
2705.00,98.13
2704.00,98.13
2703.00,98.12
2702.00,98.12
2701.00,98.12
2700.00,98.13
2699.00,98.14
2698.00,98.14
2697.00,98.14
2696.00,98.14
2695.00,98.14
2694.00,98.16
2693.00,98.17
2692.00,98.19
2691.00,98.20
2690.00,98.21
2689.00,98.21
2688.00,98.20
2687.00,98.18
2686.00,98.18
2685.00,98.19
2684.00,98.21
2683.00,98.23
2682.00,98.24
2681.00,98.24
2680.00,98.24
2679.00,98.24
2678.00,98.24
2677.00,98.24
2676.00,98.25
2675.00,98.26
2674.00,98.26
2673.00,98.27
2672.00,98.28
2671.00,98.30
2670.00,98.30
2669.00,98.31
2668.00,98.31
2667.00,98.32
2666.00,98.32
2665.00,98.32
2664.00,98.31
2663.00,98.29
2662.00,98.27
2661.00,98.25
2660.00,98.24
2659.00,98.24
2658.00,98.25
2657.00,98.26
2656.00,98.26
2655.00,98.26
2654.00,98.26
2653.00,98.25
2652.00,98.25
2651.00,98.25
2650.00,98.26
2649.00,98.26
2648.00,98.26
2647.00,98.24
2646.00,98.23
2645.00,98.23
2644.00,98.23
2643.00,98.22
2642.00,98.20
2641.00,98.18
2640.00,98.16
2639.00,98.15
2638.00,98.16
2637.00,98.17
2636.00,98.19
2635.00,98.20
2634.00,98.21
2633.00,98.21
2632.00,98.21
2631.00,98.22
2630.00,98.22
2629.00,98.22
2628.00,98.22
2627.00,98.21
2626.00,98.19
2625.00,98.18
2624.00,98.18
2623.00,98.19
2622.00,98.19
2621.00,98.20
2620.00,98.19
2619.00,98.18
2618.00,98.18
2617.00,98.18
2616.00,98.18
2615.00,98.18
2614.00,98.17
2613.00,98.16
2612.00,98.17
2611.00,98.19
2610.00,98.21
2609.00,98.24
2608.00,98.25
2607.00,98.25
2606.00,98.24
2605.00,98.22
2604.00,98.20
2603.00,98.19
2602.00,98.18
2601.00,98.18
2600.00,98.19
2599.00,98.21
2598.00,98.21
2597.00,98.22
2596.00,98.23
2595.00,98.24
2594.00,98.25
2593.00,98.25
2592.00,98.23
2591.00,98.22
2590.00,98.21
2589.00,98.21
2588.00,98.20
2587.00,98.19
2586.00,98.19
2585.00,98.18
2584.00,98.18
2583.00,98.19
2582.00,98.19
2581.00,98.20
2580.00,98.19
2579.00,98.17
2578.00,98.16
2577.00,98.17
2576.00,98.18
2575.00,98.18
2574.00,98.18
2573.00,98.17
2572.00,98.16
2571.00,98.18
2570.00,98.20
2569.00,98.23
2568.00,98.25
2567.00,98.26
2566.00,98.25
2565.00,98.22
2564.00,98.19
2563.00,98.17
2562.00,98.16
2561.00,98.15
2560.00,98.14
2559.00,98.16
2558.00,98.19
2557.00,98.22
2556.00,98.24
2555.00,98.24
2554.00,98.23
2553.00,98.21
2552.00,98.19
2551.00,98.15
2550.00,98.13
2549.00,98.12
2548.00,98.14
2547.00,98.15
2546.00,98.17
2545.00,98.18
2544.00,98.18
2543.00,98.19
2542.00,98.20
2541.00,98.21
2540.00,98.22
2539.00,98.22
2538.00,98.21
2537.00,98.19
2536.00,98.17
2535.00,98.17
2534.00,98.18
2533.00,98.20
2532.00,98.22
2531.00,98.23
2530.00,98.22
2529.00,98.20
2528.00,98.19
2527.00,98.18
2526.00,98.19
2525.00,98.20
2524.00,98.21
2523.00,98.23
2522.00,98.23
2521.00,98.24
2520.00,98.24
2519.00,98.24
2518.00,98.24
2517.00,98.23
2516.00,98.23
2515.00,98.24
2514.00,98.25
2513.00,98.24
2512.00,98.23
2511.00,98.22
2510.00,98.23
2509.00,98.24
2508.00,98.25
2507.00,98.25
2506.00,98.25
2505.00,98.26
2504.00,98.27
2503.00,98.28
2502.00,98.28
2501.00,98.28
2500.00,98.29
2499.00,98.30
2498.00,98.31
2497.00,98.31
2496.00,98.31
2495.00,98.30
2494.00,98.29
2493.00,98.29
2492.00,98.30
2491.00,98.31
2490.00,98.34
2489.00,98.35
2488.00,98.35
2487.00,98.34
2486.00,98.33
2485.00,98.31
2484.00,98.30
2483.00,98.29
2482.00,98.30
2481.00,98.32
2480.00,98.34
2479.00,98.35
2478.00,98.35
2477.00,98.34
2476.00,98.34
2475.00,98.33
2474.00,98.33
2473.00,98.34
2472.00,98.35
2471.00,98.35
2470.00,98.34
2469.00,98.31
2468.00,98.30
2467.00,98.30
2466.00,98.31
2465.00,98.34
2464.00,98.36
2463.00,98.38
2462.00,98.40
2461.00,98.41
2460.00,98.41
2459.00,98.40
2458.00,98.39
2457.00,98.38
2456.00,98.36
2455.00,98.34
2454.00,98.33
2453.00,98.32
2452.00,98.33
2451.00,98.35
2450.00,98.37
2449.00,98.39
2448.00,98.39
2447.00,98.38
2446.00,98.36
2445.00,98.34
2444.00,98.34
2443.00,98.34
2442.00,98.36
2441.00,98.38
2440.00,98.38
2439.00,98.38
2438.00,98.38
2437.00,98.39
2436.00,98.41
2435.00,98.44
2434.00,98.46
2433.00,98.46
2432.00,98.45
2431.00,98.43
2430.00,98.42
2429.00,98.41
2428.00,98.40
2427.00,98.39
2426.00,98.40
2425.00,98.42
2424.00,98.47
2423.00,98.52
2422.00,98.56
2421.00,98.59
2420.00,98.59
2419.00,98.58
2418.00,98.56
2417.00,98.55
2416.00,98.55
2415.00,98.55
2414.00,98.54
2413.00,98.52
2412.00,98.51
2411.00,98.52
2410.00,98.53
2409.00,98.55
2408.00,98.56
2407.00,98.57
2406.00,98.57
2405.00,98.57
2404.00,98.57
2403.00,98.57
2402.00,98.58
2401.00,98.58
2400.00,98.58
2399.00,98.58
2398.00,98.59
2397.00,98.59
2396.00,98.59
2395.00,98.59
2394.00,98.60
2393.00,98.61
2392.00,98.63
2391.00,98.66
2390.00,98.69
2389.00,98.73
2388.00,98.75
2387.00,98.76
2386.00,98.76
2385.00,98.75
2384.00,98.74
2383.00,98.74
2382.00,98.74
2381.00,98.75
2380.00,98.76
2379.00,98.78
2378.00,98.79
2377.00,98.79
2376.00,98.79
2375.00,98.80
2374.00,98.82
2373.00,98.83
2372.00,98.84
2371.00,98.86
2370.00,98.90
2369.00,98.96
2368.00,99.01
2367.00,99.00
2366.00,98.93
2365.00,98.84
2364.00,98.81
2363.00,98.83
2362.00,98.87
2361.00,98.87
2360.00,98.85
2359.00,98.86
2358.00,98.89
2357.00,98.90
2356.00,98.88
2355.00,98.86
2354.00,98.85
2353.00,98.87
2352.00,98.91
2351.00,98.95
2350.00,98.97
2349.00,98.94
2348.00,98.90
2347.00,98.86
2346.00,98.86
2345.00,98.88
2344.00,98.90
2343.00,98.88
2342.00,98.83
2341.00,98.78
2340.00,98.73
2339.00,98.70
2338.00,98.70
2337.00,98.74
2336.00,98.81
2335.00,98.90
2334.00,98.96
2333.00,99.00
2332.00,99.00
2331.00,98.99
2330.00,98.95
2329.00,98.88
2328.00,98.80
2327.00,98.71
2326.00,98.65
2325.00,98.60
2324.00,98.56
2323.00,98.54
2322.00,98.52
2321.00,98.51
2320.00,98.50
2319.00,98.49
2318.00,98.49
2317.00,98.49
2316.00,98.50
2315.00,98.52
2314.00,98.56
2313.00,98.61
2312.00,98.62
2311.00,98.62
2310.00,98.59
2309.00,98.56
2308.00,98.53
2307.00,98.52
2306.00,98.53
2305.00,98.53
2304.00,98.52
2303.00,98.48
2302.00,98.45
2301.00,98.43
2300.00,98.43
2299.00,98.44
2298.00,98.43
2297.00,98.41
2296.00,98.39
2295.00,98.37
2294.00,98.35
2293.00,98.34
2292.00,98.32
2291.00,98.30
2290.00,98.29
2289.00,98.28
2288.00,98.26
2287.00,98.23
2286.00,98.20
2285.00,98.17
2284.00,98.15
2283.00,98.13
2282.00,98.12
2281.00,98.11
2280.00,98.10
2279.00,98.09
2278.00,98.08
2277.00,98.07
2276.00,98.07
2275.00,98.07
2274.00,98.07
2273.00,98.07
2272.00,98.07
2271.00,98.07
2270.00,98.05
2269.00,98.02
2268.00,97.98
2267.00,97.96
2266.00,97.96
2265.00,97.97
2264.00,97.99
2263.00,97.99
2262.00,97.98
2261.00,97.94
2260.00,97.89
2259.00,97.84
2258.00,97.82
2257.00,97.83
2256.00,97.86
2255.00,97.89
2254.00,97.92
2253.00,97.93
2252.00,97.93
2251.00,97.92
2250.00,97.89
2249.00,97.85
2248.00,97.81
2247.00,97.76
2246.00,97.72
2245.00,97.70
2244.00,97.70
2243.00,97.72
2242.00,97.73
2241.00,97.72
2240.00,97.70
2239.00,97.66
2238.00,97.62
2237.00,97.59
2236.00,97.61
2235.00,97.66
2234.00,97.71
2233.00,97.73
2232.00,97.71
2231.00,97.65
2230.00,97.58
2229.00,97.53
2228.00,97.51
2227.00,97.51
2226.00,97.54
2225.00,97.57
2224.00,97.57
2223.00,97.55
2222.00,97.51
2221.00,97.48
2220.00,97.48
2219.00,97.51
2218.00,97.54
2217.00,97.58
2216.00,97.59
2215.00,97.58
2214.00,97.56
2213.00,97.53
2212.00,97.51
2211.00,97.50
2210.00,97.49
2209.00,97.47
2208.00,97.45
2207.00,97.43
2206.00,97.42
2205.00,97.41
2204.00,97.39
2203.00,97.35
2202.00,97.30
2201.00,97.23
2200.00,97.17
2199.00,97.13
2198.00,97.08
2197.00,97.06
2196.00,97.07
2195.00,97.10
2194.00,97.13
2193.00,97.13
2192.00,97.13
2191.00,97.15
2190.00,97.19
2189.00,97.21
2188.00,97.18
2187.00,97.11
2186.00,97.02
2185.00,96.95
2184.00,96.93
2183.00,96.96
2182.00,96.99
2181.00,97.00
2180.00,96.95
2179.00,96.90
2178.00,96.87
2177.00,96.89
2176.00,96.93
2175.00,96.98
2174.00,96.99
2173.00,96.95
2172.00,96.87
2171.00,96.78
2170.00,96.70
2169.00,96.63
2168.00,96.59
2167.00,96.57
2166.00,96.58
2165.00,96.60
2164.00,96.61
2163.00,96.60
2162.00,96.56
2161.00,96.54
2160.00,96.60
2159.00,96.78
2158.00,96.99
2157.00,97.13
2156.00,97.17
2155.00,97.16
2154.00,97.17
2153.00,97.20
2152.00,97.22
2151.00,97.25
2150.00,97.28
2149.00,97.31
2148.00,97.35
2147.00,97.37
2146.00,97.38
2145.00,97.37
2144.00,97.35
2143.00,97.34
2142.00,97.35
2141.00,97.38
2140.00,97.44
2139.00,97.50
2138.00,97.56
2137.00,97.57
2136.00,97.56
2135.00,97.57
2134.00,97.62
2133.00,97.68
2132.00,97.73
2131.00,97.75
2130.00,97.75
2129.00,97.76
2128.00,97.79
2127.00,97.82
2126.00,97.85
2125.00,97.87
2124.00,97.86
2123.00,97.85
2122.00,97.81
2121.00,97.77
2120.00,97.75
2119.00,97.74
2118.00,97.74
2117.00,97.75
2116.00,97.75
2115.00,97.76
2114.00,97.75
2113.00,97.74
2112.00,97.73
2111.00,97.73
2110.00,97.74
2109.00,97.77
2108.00,97.79
2107.00,97.78
2106.00,97.76
2105.00,97.73
2104.00,97.70
2103.00,97.68
2102.00,97.68
2101.00,97.69
2100.00,97.70
2099.00,97.71
2098.00,97.72
2097.00,97.73
2096.00,97.71
2095.00,97.69
2094.00,97.68
2093.00,97.69
2092.00,97.71
2091.00,97.74
2090.00,97.75
2089.00,97.74
2088.00,97.72
2087.00,97.71
2086.00,97.70
2085.00,97.71
2084.00,97.72
2083.00,97.71
2082.00,97.70
2081.00,97.67
2080.00,97.64
2079.00,97.60
2078.00,97.56
2077.00,97.55
2076.00,97.58
2075.00,97.62
2074.00,97.64
2073.00,97.62
2072.00,97.57
2071.00,97.54
2070.00,97.53
2069.00,97.56
2068.00,97.60
2067.00,97.63
2066.00,97.64
2065.00,97.65
2064.00,97.65
2063.00,97.63
2062.00,97.61
2061.00,97.57
2060.00,97.53
2059.00,97.51
2058.00,97.50
2057.00,97.51
2056.00,97.55
2055.00,97.59
2054.00,97.56
2053.00,97.47
2052.00,97.34
2051.00,97.24
2050.00,97.19
2049.00,97.18
2048.00,97.17
2047.00,97.12
2046.00,97.04
2045.00,96.96
2044.00,96.90
2043.00,96.85
2042.00,96.81
2041.00,96.78
2040.00,96.78
2039.00,96.79
2038.00,96.80
2037.00,96.78
2036.00,96.75
2035.00,96.71
2034.00,96.69
2033.00,96.67
2032.00,96.66
2031.00,96.67
2030.00,96.70
2029.00,96.74
2028.00,96.77
2027.00,96.81
2026.00,96.86
2025.00,96.91
2024.00,96.97
2023.00,97.02
2022.00,97.02
2021.00,96.96
2020.00,96.88
2019.00,96.82
2018.00,96.84
2017.00,96.91
2016.00,96.99
2015.00,97.05
2014.00,97.08
2013.00,97.08
2012.00,97.06
2011.00,97.06
2010.00,97.09
2009.00,97.13
2008.00,97.16
2007.00,97.19
2006.00,97.22
2005.00,97.25
2004.00,97.29
2003.00,97.33
2002.00,97.35
2001.00,97.35
2000.00,97.34
1999.00,97.33
1998.00,97.33
1997.00,97.30
1996.00,97.25
1995.00,97.16
1994.00,97.09
1993.00,97.04
1992.00,97.02
1991.00,97.03
1990.00,97.07
1989.00,97.09
1988.00,97.10
1987.00,97.11
1986.00,97.12
1985.00,97.11
1984.00,97.07
1983.00,96.99
1982.00,96.90
1981.00,96.84
1980.00,96.82
1979.00,96.85
1978.00,96.90
1977.00,96.94
1976.00,96.96
1975.00,97.00
1974.00,97.08
1973.00,97.18
1972.00,97.24
1971.00,97.26
1970.00,97.27
1969.00,97.29
1968.00,97.34
1967.00,97.37
1966.00,97.38
1965.00,97.38
1964.00,97.40
1963.00,97.43
1962.00,97.49
1961.00,97.53
1960.00,97.55
1959.00,97.54
1958.00,97.52
1957.00,97.51
1956.00,97.53
1955.00,97.57
1954.00,97.60
1953.00,97.61
1952.00,97.60
1951.00,97.59
1950.00,97.61
1949.00,97.66
1948.00,97.72
1947.00,97.80
1946.00,97.87
1945.00,97.93
1944.00,97.96
1943.00,97.94
1942.00,97.91
1941.00,97.89
1940.00,97.89
1939.00,97.92
1938.00,97.95
1937.00,97.99
1936.00,98.03
1935.00,98.06
1934.00,98.07
1933.00,98.07
1932.00,98.07
1931.00,98.08
1930.00,98.09
1929.00,98.08
1928.00,98.07
1927.00,98.07
1926.00,98.09
1925.00,98.13
1924.00,98.17
1923.00,98.19
1922.00,98.18
1921.00,98.13
1920.00,98.10
1919.00,98.11
1918.00,98.15
1917.00,98.20
1916.00,98.21
1915.00,98.19
1914.00,98.18
1913.00,98.18
1912.00,98.19
1911.00,98.21
1910.00,98.21
1909.00,98.20
1908.00,98.21
1907.00,98.23
1906.00,98.26
1905.00,98.28
1904.00,98.30
1903.00,98.30
1902.00,98.31
1901.00,98.32
1900.00,98.31
1899.00,98.30
1898.00,98.28
1897.00,98.27
1896.00,98.26
1895.00,98.25
1894.00,98.25
1893.00,98.28
1892.00,98.32
1891.00,98.36
1890.00,98.38
1889.00,98.38
1888.00,98.36
1887.00,98.35
1886.00,98.35
1885.00,98.38
1884.00,98.42
1883.00,98.42
1882.00,98.41
1881.00,98.39
1880.00,98.38
1879.00,98.38
1878.00,98.37
1877.00,98.35
1876.00,98.34
1875.00,98.35
1874.00,98.38
1873.00,98.41
1872.00,98.43
1871.00,98.44
1870.00,98.43
1869.00,98.40
1868.00,98.37
1867.00,98.35
1866.00,98.36
1865.00,98.39
1864.00,98.42
1863.00,98.44
1862.00,98.44
1861.00,98.44
1860.00,98.44
1859.00,98.44
1858.00,98.44
1857.00,98.44
1856.00,98.45
1855.00,98.45
1854.00,98.46
1853.00,98.47
1852.00,98.47
1851.00,98.48
1850.00,98.49
1849.00,98.50
1848.00,98.53
1847.00,98.55
1846.00,98.57
1845.00,98.56
1844.00,98.54
1843.00,98.52
1842.00,98.52
1841.00,98.52
1840.00,98.53
1839.00,98.53
1838.00,98.53
1837.00,98.52
1836.00,98.52
1835.00,98.52
1834.00,98.52
1833.00,98.53
1832.00,98.55
1831.00,98.56
1830.00,98.56
1829.00,98.54
1828.00,98.51
1827.00,98.50
1826.00,98.49
1825.00,98.48
1824.00,98.48
1823.00,98.50
1822.00,98.52
1821.00,98.54
1820.00,98.57
1819.00,98.60
1818.00,98.64
1817.00,98.65
1816.00,98.65
1815.00,98.63
1814.00,98.61
1813.00,98.58
1812.00,98.57
1811.00,98.57
1810.00,98.58
1809.00,98.58
1808.00,98.58
1807.00,98.58
1806.00,98.58
1805.00,98.58
1804.00,98.58
1803.00,98.58
1802.00,98.59
1801.00,98.60
1800.00,98.61
1799.00,98.61
1798.00,98.61
1797.00,98.59
1796.00,98.58
1795.00,98.58
1794.00,98.59
1793.00,98.60
1792.00,98.61
1791.00,98.62
1790.00,98.62
1789.00,98.61
1788.00,98.60
1787.00,98.58
1786.00,98.58
1785.00,98.58
1784.00,98.58
1783.00,98.57
1782.00,98.57
1781.00,98.57
1780.00,98.58
1779.00,98.59
1778.00,98.58
1777.00,98.57
1776.00,98.57
1775.00,98.57
1774.00,98.57
1773.00,98.55
1772.00,98.53
1771.00,98.52
1770.00,98.51
1769.00,98.51
1768.00,98.49
1767.00,98.48
1766.00,98.46
1765.00,98.46
1764.00,98.46
1763.00,98.45
1762.00,98.44
1761.00,98.43
1760.00,98.42
1759.00,98.41
1758.00,98.39
1757.00,98.35
1756.00,98.32
1755.00,98.30
1754.00,98.29
1753.00,98.28
1752.00,98.26
1751.00,98.23
1750.00,98.20
1749.00,98.17
1748.00,98.15
1747.00,98.14
1746.00,98.14
1745.00,98.12
1744.00,98.10
1743.00,98.08
1742.00,98.07
1741.00,98.06
1740.00,98.05
1739.00,98.04
1738.00,98.02
1737.00,98.01
1736.00,98.00
1735.00,97.98
1734.00,97.97
1733.00,97.94
1732.00,97.93
1731.00,97.94
1730.00,97.96
1729.00,97.98
1728.00,97.99
1727.00,97.97
1726.00,97.96
1725.00,97.94
1724.00,97.92
1723.00,97.92
1722.00,97.91
1721.00,97.91
1720.00,97.90
1719.00,97.90
1718.00,97.90
1717.00,97.91
1716.00,97.90
1715.00,97.90
1714.00,97.89
1713.00,97.89
1712.00,97.88
1711.00,97.87
1710.00,97.87
1709.00,97.87
1708.00,97.87
1707.00,97.87
1706.00,97.87
1705.00,97.87
1704.00,97.88
1703.00,97.88
1702.00,97.88
1701.00,97.86
1700.00,97.83
1699.00,97.79
1698.00,97.76
1697.00,97.72
1696.00,97.68
1695.00,97.65
1694.00,97.62
1693.00,97.61
1692.00,97.61
1691.00,97.59
1690.00,97.56
1689.00,97.52
1688.00,97.49
1687.00,97.46
1686.00,97.43
1685.00,97.38
1684.00,97.32
1683.00,97.26
1682.00,97.21
1681.00,97.16
1680.00,97.12
1679.00,97.08
1678.00,97.04
1677.00,97.00
1676.00,96.93
1675.00,96.88
1674.00,96.84
1673.00,96.81
1672.00,96.78
1671.00,96.74
1670.00,96.68
1669.00,96.62
1668.00,96.55
1667.00,96.49
1666.00,96.43
1665.00,96.38
1664.00,96.33
1663.00,96.28
1662.00,96.24
1661.00,96.21
1660.00,96.16
1659.00,96.10
1658.00,96.04
1657.00,96.00
1656.00,95.97
1655.00,95.94
1654.00,95.87
1653.00,95.77
1652.00,95.67
1651.00,95.60
1650.00,95.58
1649.00,95.57
1648.00,95.54
1647.00,95.49
1646.00,95.44
1645.00,95.39
1644.00,95.34
1643.00,95.32
1642.00,95.30
1641.00,95.29
1640.00,95.27
1639.00,95.23
1638.00,95.20
1637.00,95.16
1636.00,95.12
1635.00,95.07
1634.00,95.03
1633.00,95.00
1632.00,94.98
1631.00,94.97
1630.00,94.97
1629.00,94.97
1628.00,94.96
1627.00,94.95
1626.00,94.94
1625.00,94.92
1624.00,94.90
1623.00,94.89
1622.00,94.90
1621.00,94.91
1620.00,94.91
1619.00,94.91
1618.00,94.92
1617.00,94.92
1616.00,94.91
1615.00,94.89
1614.00,94.87
1613.00,94.86
1612.00,94.85
1611.00,94.85
1610.00,94.86
1609.00,94.89
1608.00,94.91
1607.00,94.93
1606.00,94.94
1605.00,94.95
1604.00,94.97
1603.00,94.98
1602.00,95.00
1601.00,95.02
1600.00,95.05
1599.00,95.08
1598.00,95.11
1597.00,95.15
1596.00,95.19
1595.00,95.23
1594.00,95.27
1593.00,95.31
1592.00,95.34
1591.00,95.39
1590.00,95.44
1589.00,95.49
1588.00,95.53
1587.00,95.57
1586.00,95.61
1585.00,95.66
1584.00,95.71
1583.00,95.76
1582.00,95.80
1581.00,95.85
1580.00,95.89
1579.00,95.93
1578.00,95.98
1577.00,96.03
1576.00,96.08
1575.00,96.11
1574.00,96.14
1573.00,96.18
1572.00,96.22
1571.00,96.26
1570.00,96.31
1569.00,96.34
1568.00,96.36
1567.00,96.38
1566.00,96.41
1565.00,96.44
1564.00,96.49
1563.00,96.53
1562.00,96.57
1561.00,96.59
1560.00,96.61
1559.00,96.67
1558.00,96.73
1557.00,96.76
1556.00,96.77
1555.00,96.78
1554.00,96.81
1553.00,96.84
1552.00,96.87
1551.00,96.91
1550.00,96.95
1549.00,96.99
1548.00,97.02
1547.00,97.05
1546.00,97.08
1545.00,97.13
1544.00,97.17
1543.00,97.20
1542.00,97.21
1541.00,97.20
1540.00,97.20
1539.00,97.20
1538.00,97.21
1537.00,97.24
1536.00,97.29
1535.00,97.33
1534.00,97.35
1533.00,97.34
1532.00,97.33
1531.00,97.32
1530.00,97.34
1529.00,97.36
1528.00,97.38
1527.00,97.39
1526.00,97.40
1525.00,97.40
1524.00,97.40
1523.00,97.40
1522.00,97.38
1521.00,97.38
1520.00,97.39
1519.00,97.41
1518.00,97.44
1517.00,97.45
1516.00,97.46
1515.00,97.46
1514.00,97.46
1513.00,97.45
1512.00,97.45
1511.00,97.45
1510.00,97.45
1509.00,97.45
1508.00,97.44
1507.00,97.43
1506.00,97.44
1505.00,97.44
1504.00,97.43
1503.00,97.44
1502.00,97.45
1501.00,97.44
1500.00,97.41
1499.00,97.38
1498.00,97.36
1497.00,97.33
1496.00,97.29
1495.00,97.26
1494.00,97.24
1493.00,97.21
1492.00,97.18
1491.00,97.13
1490.00,97.06
1489.00,96.97
1488.00,96.87
1487.00,96.77
1486.00,96.66
1485.00,96.54
1484.00,96.43
1483.00,96.33
1482.00,96.24
1481.00,96.16
1480.00,96.10
1479.00,96.06
1478.00,96.02
1477.00,95.97
1476.00,95.90
1475.00,95.82
1474.00,95.74
1473.00,95.63
1472.00,95.53
1471.00,95.44
1470.00,95.36
1469.00,95.29
1468.00,95.19
1467.00,95.06
1466.00,94.88
1465.00,94.68
1464.00,94.51
1463.00,94.39
1462.00,94.31
1461.00,94.23
1460.00,94.14
1459.00,94.04
1458.00,93.91
1457.00,93.76
1456.00,93.64
1455.00,93.55
1454.00,93.50
1453.00,93.45
1452.00,93.41
1451.00,93.37
1450.00,93.33
1449.00,93.28
1448.00,93.24
1447.00,93.22
1446.00,93.20
1445.00,93.17
1444.00,93.14
1443.00,93.10
1442.00,93.05
1441.00,92.98
1440.00,92.90
1439.00,92.80
1438.00,92.67
1437.00,92.50
1436.00,92.31
1435.00,92.15
1434.00,92.01
1433.00,91.87
1432.00,91.74
1431.00,91.62
1430.00,91.52
1429.00,91.45
1428.00,91.42
1427.00,91.42
1426.00,91.45
1425.00,91.50
1424.00,91.58
1423.00,91.68
1422.00,91.78
1421.00,91.89
1420.00,92.03
1419.00,92.19
1418.00,92.35
1417.00,92.49
1416.00,92.61
1415.00,92.73
1414.00,92.84
1413.00,92.92
1412.00,92.99
1411.00,93.05
1410.00,93.10
1409.00,93.14
1408.00,93.18
1407.00,93.21
1406.00,93.22
1405.00,93.23
1404.00,93.24
1403.00,93.27
1402.00,93.30
1401.00,93.33
1400.00,93.36
1399.00,93.40
1398.00,93.44
1397.00,93.45
1396.00,93.46
1395.00,93.46
1394.00,93.46
1393.00,93.47
1392.00,93.48
1391.00,93.49
1390.00,93.48
1389.00,93.43
1388.00,93.35
1387.00,93.24
1386.00,93.12
1385.00,92.99
1384.00,92.85
1383.00,92.69
1382.00,92.51
1381.00,92.31
1380.00,92.10
1379.00,91.89
1378.00,91.67
1377.00,91.46
1376.00,91.25
1375.00,91.02
1374.00,90.77
1373.00,90.55
1372.00,90.36
1371.00,90.25
1370.00,90.19
1369.00,90.17
1368.00,90.17
1367.00,90.18
1366.00,90.19
1365.00,90.18
1364.00,90.16
1363.00,90.13
1362.00,90.11
1361.00,90.13
1360.00,90.17
1359.00,90.24
1358.00,90.31
1357.00,90.38
1356.00,90.45
1355.00,90.54
1354.00,90.64
1353.00,90.75
1352.00,90.85
1351.00,90.93
1350.00,90.97
1349.00,90.95
1348.00,90.89
1347.00,90.77
1346.00,90.61
1345.00,90.41
1344.00,90.19
1343.00,89.97
1342.00,89.76
1341.00,89.55
1340.00,89.36
1339.00,89.19
1338.00,89.04
1337.00,88.90
1336.00,88.79
1335.00,88.74
1334.00,88.76
1333.00,88.84
1332.00,88.95
1331.00,89.08
1330.00,89.21
1329.00,89.30
1328.00,89.34
1327.00,89.33
1326.00,89.28
1325.00,89.18
1324.00,89.01
1323.00,88.79
1322.00,88.54
1321.00,88.25
1320.00,87.95
1319.00,87.66
1318.00,87.41
1317.00,87.22
1316.00,87.10
1315.00,87.06
1314.00,87.09
1313.00,87.19
1312.00,87.36
1311.00,87.59
1310.00,87.87
1309.00,88.16
1308.00,88.47
1307.00,88.79
1306.00,89.10
1305.00,89.42
1304.00,89.74
1303.00,90.05
1302.00,90.33
1301.00,90.59
1300.00,90.82
1299.00,91.02
1298.00,91.20
1297.00,91.35
1296.00,91.46
1295.00,91.54
1294.00,91.59
1293.00,91.64
1292.00,91.68
1291.00,91.73
1290.00,91.77
1289.00,91.79
1288.00,91.80
1287.00,91.79
1286.00,91.76
1285.00,91.70
1284.00,91.62
1283.00,91.54
1282.00,91.48
1281.00,91.43
1280.00,91.42
1279.00,91.45
1278.00,91.48
1277.00,91.52
1276.00,91.55
1275.00,91.59
1274.00,91.66
1273.00,91.74
1272.00,91.83
1271.00,91.91
1270.00,91.98
1269.00,92.04
1268.00,92.10
1267.00,92.16
1266.00,92.23
1265.00,92.29
1264.00,92.34
1263.00,92.37
1262.00,92.40
1261.00,92.43
1260.00,92.47
1259.00,92.51
1258.00,92.54
1257.00,92.56
1256.00,92.58
1255.00,92.59
1254.00,92.59
1253.00,92.57
1252.00,92.54
1251.00,92.50
1250.00,92.45
1249.00,92.41
1248.00,92.39
1247.00,92.40
1246.00,92.44
1245.00,92.49
1244.00,92.56
1243.00,92.63
1242.00,92.71
1241.00,92.77
1240.00,92.81
1239.00,92.84
1238.00,92.85
1237.00,92.86
1236.00,92.87
1235.00,92.90
1234.00,92.96
1233.00,93.04
1232.00,93.15
1231.00,93.28
1230.00,93.43
1229.00,93.57
1228.00,93.71
1227.00,93.85
1226.00,93.98
1225.00,94.11
1224.00,94.25
1223.00,94.39
1222.00,94.52
1221.00,94.63
1220.00,94.72
1219.00,94.79
1218.00,94.84
1217.00,94.87
1216.00,94.89
1215.00,94.88
1214.00,94.82
1213.00,94.70
1212.00,94.50
1211.00,94.24
1210.00,93.93
1209.00,93.62
1208.00,93.33
1207.00,93.11
1206.00,92.94
1205.00,92.83
1204.00,92.77
1203.00,92.75
1202.00,92.79
1201.00,92.86
1200.00,92.98
1199.00,93.12
1198.00,93.27
1197.00,93.44
1196.00,93.60
1195.00,93.77
1194.00,93.94
1193.00,94.11
1192.00,94.26
1191.00,94.39
1190.00,94.49
1189.00,94.56
1188.00,94.62
1187.00,94.64
1186.00,94.64
1185.00,94.60
1184.00,94.52
1183.00,94.43
1182.00,94.31
1181.00,94.16
1180.00,93.96
1179.00,93.70
1178.00,93.38
1177.00,93.04
1176.00,92.68
1175.00,92.30
1174.00,91.87
1173.00,91.37
1172.00,90.81
1171.00,90.21
1170.00,89.60
1169.00,88.97
1168.00,88.35
1167.00,87.78
1166.00,87.28
1165.00,86.86
1164.00,86.52
1163.00,86.27
1162.00,86.12
1161.00,86.06
1160.00,86.06
1159.00,86.13
1158.00,86.25
1157.00,86.41
1156.00,86.58
1155.00,86.76
1154.00,86.92
1153.00,87.07
1152.00,87.21
1151.00,87.36
1150.00,87.52
1149.00,87.68
1148.00,87.83
1147.00,87.99
1146.00,88.17
1145.00,88.36
1144.00,88.57
1143.00,88.77
1142.00,88.97
1141.00,89.12
1140.00,89.21
1139.00,89.24
1138.00,89.21
1137.00,89.10
1136.00,88.93
1135.00,88.72
1134.00,88.49
1133.00,88.24
1132.00,87.97
1131.00,87.66
1130.00,87.31
1129.00,86.91
1128.00,86.45
1127.00,85.96
1126.00,85.46
1125.00,85.01
1124.00,84.60
1123.00,84.23
1122.00,83.86
1121.00,83.44
1120.00,82.96
1119.00,82.42
1118.00,81.85
1117.00,81.22
1116.00,80.54
1115.00,79.82
1114.00,79.13
1113.00,78.52
1112.00,78.01
1111.00,77.60
1110.00,77.30
1109.00,77.06
1108.00,76.88
1107.00,76.74
1106.00,76.64
1105.00,76.55
1104.00,76.49
1103.00,76.49
1102.00,76.56
1101.00,76.68
1100.00,76.84
1099.00,77.05
1098.00,77.32
1097.00,77.61
1096.00,77.89
1095.00,78.15
1094.00,78.40
1093.00,78.64
1092.00,78.85
1091.00,79.03
1090.00,79.16
1089.00,79.26
1088.00,79.33
1087.00,79.39
1086.00,79.43
1085.00,79.43
1084.00,79.38
1083.00,79.31
1082.00,79.21
1081.00,79.05
1080.00,78.82
1079.00,78.53
1078.00,78.21
1077.00,77.89
1076.00,77.57
1075.00,77.29
1074.00,77.01
1073.00,76.70
1072.00,76.34
1071.00,75.94
1070.00,75.49
1069.00,74.99
1068.00,74.42
1067.00,73.78
1066.00,73.07
1065.00,72.27
1064.00,71.42
1063.00,70.58
1062.00,69.79
1061.00,69.05
1060.00,68.39
1059.00,67.84
1058.00,67.40
1057.00,67.05
1056.00,66.78
1055.00,66.60
1054.00,66.51
1053.00,66.48
1052.00,66.49
1051.00,66.56
1050.00,66.69
1049.00,66.87
1048.00,67.09
1047.00,67.33
1046.00,67.57
1045.00,67.76
1044.00,67.90
1043.00,67.97
1042.00,67.97
1041.00,67.87
1040.00,67.65
1039.00,67.33
1038.00,66.94
1037.00,66.52
1036.00,66.10
1035.00,65.71
1034.00,65.38
1033.00,65.10
1032.00,64.88
1031.00,64.75
1030.00,64.69
1029.00,64.67
1028.00,64.70
1027.00,64.78
1026.00,64.89
1025.00,65.02
1024.00,65.15
1023.00,65.31
1022.00,65.48
1021.00,65.66
1020.00,65.82
1019.00,65.98
1018.00,66.16
1017.00,66.34
1016.00,66.51
1015.00,66.68
1014.00,66.86
1013.00,67.01
1012.00,67.13
1011.00,67.23
1010.00,67.30
1009.00,67.31
1008.00,67.27
1007.00,67.20
1006.00,67.12
1005.00,67.02
1004.00,66.92
1003.00,66.84
1002.00,66.81
1001.00,66.82
1000.00,66.89
999.00,67.04
998.00,67.25
997.00,67.49
996.00,67.74
995.00,67.98
994.00,68.20
993.00,68.38
992.00,68.51
991.00,68.59
990.00,68.62
989.00,68.57
988.00,68.45
987.00,68.30
986.00,68.16
985.00,68.09
984.00,68.14
983.00,68.33
982.00,68.68
981.00,69.14
980.00,69.71
979.00,70.36
978.00,71.05
977.00,71.74
976.00,72.40
975.00,73.05
974.00,73.68
973.00,74.26
972.00,74.81
971.00,75.31
970.00,75.79
969.00,76.24
968.00,76.67
967.00,77.06
966.00,77.44
965.00,77.78
964.00,78.11
963.00,78.43
962.00,78.75
961.00,79.06
960.00,79.37
959.00,79.70
958.00,80.02
957.00,80.33
956.00,80.61
955.00,80.87
954.00,81.14
953.00,81.42
952.00,81.69
951.00,81.97
950.00,82.23
949.00,82.47
948.00,82.71
947.00,82.93
946.00,83.16
945.00,83.39
944.00,83.61
943.00,83.82
942.00,84.02
941.00,84.20
940.00,84.36
939.00,84.51
938.00,84.65
937.00,84.76
936.00,84.86
935.00,84.95
934.00,85.06
933.00,85.17
932.00,85.28
931.00,85.38
930.00,85.49
929.00,85.60
928.00,85.71
927.00,85.81
926.00,85.90
925.00,85.98
924.00,86.06
923.00,86.14
922.00,86.22
921.00,86.30
920.00,86.38
919.00,86.47
918.00,86.54
917.00,86.57
916.00,86.54
915.00,86.49
914.00,86.45
913.00,86.39
912.00,86.33
911.00,86.27
910.00,86.23
909.00,86.19
908.00,86.14
907.00,86.05
906.00,85.95
905.00,85.85
904.00,85.77
903.00,85.69
902.00,85.62
901.00,85.54
900.00,85.46
899.00,85.39
898.00,85.35
897.00,85.34
896.00,85.36
895.00,85.41
894.00,85.50
893.00,85.62
892.00,85.76
891.00,85.90
890.00,86.06
889.00,86.22
888.00,86.38
887.00,86.54
886.00,86.69
885.00,86.87
884.00,87.05
883.00,87.23
882.00,87.40
881.00,87.56
880.00,87.69
879.00,87.83
878.00,87.98
877.00,88.13
876.00,88.26
875.00,88.39
874.00,88.50
873.00,88.60
872.00,88.71
871.00,88.81
870.00,88.91
869.00,88.98
868.00,89.05
867.00,89.11
866.00,89.18
865.00,89.25
864.00,89.30
863.00,89.34
862.00,89.38
861.00,89.44
860.00,89.50
859.00,89.57
858.00,89.63
857.00,89.66
856.00,89.67
855.00,89.68
854.00,89.72
853.00,89.77
852.00,89.82
851.00,89.84
850.00,89.82
849.00,89.79
848.00,89.77
847.00,89.77
846.00,89.79
845.00,89.84
844.00,89.90
843.00,89.96
842.00,89.99
841.00,89.97
840.00,89.93
839.00,89.89
838.00,89.88
837.00,89.88
836.00,89.89
835.00,89.89
834.00,89.89
833.00,89.90
832.00,89.90
831.00,89.88
830.00,89.83
829.00,89.77
828.00,89.75
827.00,89.77
826.00,89.83
825.00,89.90
824.00,89.95
823.00,89.96
822.00,89.93
821.00,89.86
820.00,89.79
819.00,89.74
818.00,89.71
817.00,89.69
816.00,89.69
815.00,89.70
814.00,89.72
813.00,89.75
812.00,89.75
811.00,89.74
810.00,89.71
809.00,89.69
808.00,89.68
807.00,89.69
806.00,89.72
805.00,89.74
804.00,89.74
803.00,89.74
802.00,89.72
801.00,89.71
800.00,89.70
799.00,89.69
798.00,89.67
797.00,89.65
796.00,89.62
795.00,89.62
794.00,89.61
793.00,89.58
792.00,89.53
791.00,89.48
790.00,89.43
789.00,89.37
788.00,89.30
787.00,89.24
786.00,89.21
785.00,89.21
784.00,89.22
783.00,89.20
782.00,89.16
781.00,89.10
780.00,89.05
779.00,89.01
778.00,88.98
777.00,88.96
776.00,88.94
775.00,88.94
774.00,88.94
773.00,88.93
772.00,88.88
771.00,88.79
770.00,88.71
769.00,88.64
768.00,88.58
767.00,88.54
766.00,88.51
765.00,88.48
764.00,88.44
763.00,88.39
762.00,88.32
761.00,88.24
760.00,88.16
759.00,88.09
758.00,88.04
757.00,87.98
756.00,87.91
755.00,87.84
754.00,87.77
753.00,87.70
752.00,87.62
751.00,87.56
750.00,87.51
749.00,87.46
748.00,87.38
747.00,87.29
746.00,87.21
745.00,87.13
744.00,87.07
743.00,87.01
742.00,86.94
741.00,86.84
740.00,86.72
739.00,86.62
738.00,86.54
737.00,86.46
736.00,86.37
735.00,86.24
734.00,86.08
733.00,85.92
732.00,85.77
731.00,85.62
730.00,85.46
729.00,85.26
728.00,85.04
727.00,84.82
726.00,84.60
725.00,84.39
724.00,84.19
723.00,83.99
722.00,83.77
721.00,83.49
720.00,83.18
719.00,82.88
718.00,82.62
717.00,82.37
716.00,82.13
715.00,81.90
714.00,81.69
713.00,81.48
712.00,81.29
711.00,81.15
710.00,81.04
709.00,80.94
708.00,80.80
707.00,80.65
706.00,80.53
705.00,80.43
704.00,80.33
703.00,80.25
702.00,80.19
701.00,80.13
700.00,80.08
699.00,80.04
698.00,80.00
697.00,79.96
696.00,79.92
695.00,79.90
694.00,79.93
693.00,79.95
692.00,79.95
691.00,79.91
690.00,79.87
689.00,79.83
688.00,79.77
687.00,79.71
686.00,79.63
685.00,79.53
684.00,79.38
683.00,79.21
682.00,79.03
681.00,78.85
680.00,78.65
679.00,78.42
678.00,78.15
677.00,77.81
676.00,77.41
675.00,77.00
674.00,76.55
673.00,76.08
672.00,75.64
671.00,75.30
670.00,74.99
669.00,74.57
668.00,73.97
667.00,73.49
666.00,73.30
665.00,73.24
664.00,73.14
663.00,73.00
662.00,72.94
661.00,73.00
660.00,73.18
659.00,73.47
658.00,73.78
657.00,74.04
656.00,74.22
655.00,74.36
654.00,74.48
653.00,74.59
652.00,74.71
651.00,74.87
650.00,75.04
649.00,75.14
648.00,75.15
647.00,75.15
646.00,75.16
645.00,75.15
644.00,75.05
643.00,74.88
642.00,74.69
641.00,74.53
640.00,74.40
639.00,74.31
638.00,74.21
637.00,74.07
636.00,73.93
635.00,73.85
634.00,73.78
633.00,73.61
632.00,73.36
631.00,73.18
630.00,73.12
629.00,73.07
628.00,72.95
627.00,72.83
626.00,72.76
625.00,72.67
624.00,72.44
623.00,72.09
622.00,71.70
621.00,71.31
620.00,70.98
619.00,70.76
618.00,70.62
617.00,70.41
616.00,70.11
615.00,69.91
614.00,69.87
613.00,69.79
612.00,69.59
611.00,69.38
610.00,69.27
609.00,69.19
608.00,69.15
607.00,69.23
606.00,69.33
605.00,69.26
604.00,69.12
603.00,69.30
602.00,69.95
601.00,70.63
600.00,70.84
599.00,70.57
598.00,70.23
597.00,70.05
596.00,69.95
595.00,69.72
594.00,69.29
593.00,68.69
592.00,68.10
591.00,67.83
590.00,67.98
589.00,68.27
588.00,68.37
587.00,68.23
586.00,68.10
585.00,68.16
584.00,68.53
583.00,69.17
582.00,69.79
581.00,70.02
580.00,69.79
579.00,69.45
578.00,69.20
577.00,68.89
576.00,68.45
575.00,68.23
574.00,68.45
573.00,68.79
572.00,68.88
571.00,68.72
570.00,68.48
569.00,68.07
568.00,67.35
567.00,66.43
566.00,65.56
565.00,64.83
564.00,64.36
563.00,64.26
562.00,64.31
561.00,64.03
560.00,63.48
559.00,63.20
558.00,63.41
557.00,63.65
556.00,63.52
555.00,63.18
554.00,62.91
553.00,62.72
552.00,62.74
551.00,63.20
550.00,63.87
