Created as New Dataset,Bio-Couture 16/2 Mercerized Cotton
cm-1,%T
4000.00,99.26
3999.00,99.28
3998.00,99.30
3997.00,99.31
3996.00,99.32
3995.00,99.32
3994.00,99.31
3993.00,99.30
3992.00,99.29
3991.00,99.28
3990.00,99.27
3989.00,99.26
3988.00,99.24
3987.00,99.23
3986.00,99.22
3985.00,99.22
3984.00,99.23
3983.00,99.24
3982.00,99.27
3981.00,99.29
3980.00,99.30
3979.00,99.31
3978.00,99.31
3977.00,99.31
3976.00,99.30
3975.00,99.30
3974.00,99.29
3973.00,99.28
3972.00,99.29
3971.00,99.30
3970.00,99.31
3969.00,99.32
3968.00,99.31
3967.00,99.30
3966.00,99.30
3965.00,99.31
3964.00,99.32
3963.00,99.32
3962.00,99.31
3961.00,99.30
3960.00,99.30
3959.00,99.30
3958.00,99.31
3957.00,99.32
3956.00,99.32
3955.00,99.33
3954.00,99.34
3953.00,99.34
3952.00,99.34
3951.00,99.32
3950.00,99.30
3949.00,99.28
3948.00,99.27
3947.00,99.29
3946.00,99.30
3945.00,99.31
3944.00,99.31
3943.00,99.29
3942.00,99.27
3941.00,99.26
3940.00,99.26
3939.00,99.26
3938.00,99.26
3937.00,99.26
3936.00,99.25
3935.00,99.25
3934.00,99.25
3933.00,99.25
3932.00,99.27
3931.00,99.29
3930.00,99.30
3929.00,99.30
3928.00,99.28
3927.00,99.26
3926.00,99.25
3925.00,99.24
3924.00,99.25
3923.00,99.26
3922.00,99.27
3921.00,99.28
3920.00,99.28
3919.00,99.28
3918.00,99.29
3917.00,99.31
3916.00,99.34
3915.00,99.37
3914.00,99.38
3913.00,99.38
3912.00,99.37
3911.00,99.35
3910.00,99.32
3909.00,99.29
3908.00,99.24
3907.00,99.21
3906.00,99.21
3905.00,99.23
3904.00,99.26
3903.00,99.28
3902.00,99.28
3901.00,99.27
3900.00,99.26
3899.00,99.26
3898.00,99.27
3897.00,99.27
3896.00,99.27
3895.00,99.26
3894.00,99.27
3893.00,99.29
3892.00,99.30
3891.00,99.30
3890.00,99.28
3889.00,99.27
3888.00,99.26
3887.00,99.27
3886.00,99.28
3885.00,99.29
3884.00,99.30
3883.00,99.31
3882.00,99.32
3881.00,99.33
3880.00,99.33
3879.00,99.32
3878.00,99.31
3877.00,99.30
3876.00,99.29
3875.00,99.28
3874.00,99.28
3873.00,99.27
3872.00,99.26
3871.00,99.26
3870.00,99.25
3869.00,99.24
3868.00,99.25
3867.00,99.25
3866.00,99.26
3865.00,99.26
3864.00,99.27
3863.00,99.28
3862.00,99.30
3861.00,99.32
3860.00,99.33
3859.00,99.32
3858.00,99.31
3857.00,99.30
3856.00,99.32
3855.00,99.35
3854.00,99.38
3853.00,99.38
3852.00,99.38
3851.00,99.38
3850.00,99.38
3849.00,99.37
3848.00,99.35
3847.00,99.32
3846.00,99.29
3845.00,99.28
3844.00,99.28
3843.00,99.30
3842.00,99.31
3841.00,99.32
3840.00,99.31
3839.00,99.30
3838.00,99.28
3837.00,99.26
3836.00,99.26
3835.00,99.28
3834.00,99.31
3833.00,99.33
3832.00,99.33
3831.00,99.32
3830.00,99.31
3829.00,99.29
3828.00,99.29
3827.00,99.29
3826.00,99.27
3825.00,99.26
3824.00,99.25
3823.00,99.26
3822.00,99.29
3821.00,99.33
3820.00,99.35
3819.00,99.37
3818.00,99.37
3817.00,99.36
3816.00,99.34
3815.00,99.34
3814.00,99.34
3813.00,99.35
3812.00,99.35
3811.00,99.34
3810.00,99.33
3809.00,99.32
3808.00,99.32
3807.00,99.32
3806.00,99.32
3805.00,99.32
3804.00,99.32
3803.00,99.32
3802.00,99.32
3801.00,99.32
3800.00,99.33
3799.00,99.33
3798.00,99.32
3797.00,99.32
3796.00,99.31
3795.00,99.31
3794.00,99.31
3793.00,99.30
3792.00,99.29
3791.00,99.27
3790.00,99.27
3789.00,99.27
3788.00,99.27
3787.00,99.27
3786.00,99.27
3785.00,99.26
3784.00,99.25
3783.00,99.26
3782.00,99.28
3781.00,99.31
3780.00,99.33
3779.00,99.36
3778.00,99.37
3777.00,99.37
3776.00,99.34
3775.00,99.31
3774.00,99.28
3773.00,99.26
3772.00,99.26
3771.00,99.26
3770.00,99.24
3769.00,99.23
3768.00,99.23
3767.00,99.25
3766.00,99.28
3765.00,99.30
3764.00,99.30
3763.00,99.29
3762.00,99.28
3761.00,99.28
3760.00,99.27
3759.00,99.25
3758.00,99.24
3757.00,99.24
3756.00,99.26
3755.00,99.29
3754.00,99.32
3753.00,99.36
3752.00,99.38
3751.00,99.37
3750.00,99.35
3749.00,99.33
3748.00,99.31
3747.00,99.31
3746.00,99.31
3745.00,99.30
3744.00,99.28
3743.00,99.27
3742.00,99.27
3741.00,99.28
3740.00,99.29
3739.00,99.30
3738.00,99.31
3737.00,99.32
3736.00,99.32
3735.00,99.30
3734.00,99.29
3733.00,99.28
3732.00,99.28
3731.00,99.28
3730.00,99.28
3729.00,99.28
3728.00,99.29
3727.00,99.30
3726.00,99.32
3725.00,99.34
3724.00,99.35
3723.00,99.35
3722.00,99.34
3721.00,99.32
3720.00,99.29
3719.00,99.27
3718.00,99.25
3717.00,99.25
3716.00,99.25
3715.00,99.26
3714.00,99.27
3713.00,99.29
3712.00,99.29
3711.00,99.28
3710.00,99.28
3709.00,99.27
3708.00,99.27
3707.00,99.25
3706.00,99.24
3705.00,99.22
3704.00,99.20
3703.00,99.20
3702.00,99.21
3701.00,99.22
3700.00,99.24
3699.00,99.25
3698.00,99.27
3697.00,99.29
3696.00,99.29
3695.00,99.27
3694.00,99.25
3693.00,99.24
3692.00,99.24
3691.00,99.25
3690.00,99.26
3689.00,99.27
3688.00,99.28
3687.00,99.29
3686.00,99.30
3685.00,99.30
3684.00,99.28
3683.00,99.25
3682.00,99.21
3681.00,99.19
3680.00,99.17
3679.00,99.18
3678.00,99.21
3677.00,99.23
3676.00,99.23
3675.00,99.20
3674.00,99.18
3673.00,99.18
3672.00,99.19
3671.00,99.19
3670.00,99.19
3669.00,99.19
3668.00,99.19
3667.00,99.18
3666.00,99.16
3665.00,99.12
3664.00,99.10
3663.00,99.08
3662.00,99.08
3661.00,99.08
3660.00,99.07
3659.00,99.04
3658.00,99.01
3657.00,99.00
3656.00,98.98
3655.00,98.97
3654.00,98.96
3653.00,98.95
3652.00,98.95
3651.00,98.95
3650.00,98.92
3649.00,98.89
3648.00,98.87
3647.00,98.88
3646.00,98.89
3645.00,98.91
3644.00,98.91
3643.00,98.90
3642.00,98.88
3641.00,98.86
3640.00,98.84
3639.00,98.80
3638.00,98.77
3637.00,98.74
3636.00,98.72
3635.00,98.72
3634.00,98.71
3633.00,98.70
3632.00,98.66
3631.00,98.61
3630.00,98.55
3629.00,98.53
3628.00,98.55
3627.00,98.59
3626.00,98.62
3625.00,98.62
3624.00,98.58
3623.00,98.54
3622.00,98.49
3621.00,98.46
3620.00,98.43
3619.00,98.39
3618.00,98.36
3617.00,98.34
3616.00,98.33
3615.00,98.34
3614.00,98.34
3613.00,98.32
3612.00,98.28
3611.00,98.24
3610.00,98.22
3609.00,98.20
3608.00,98.17
3607.00,98.13
3606.00,98.09
3605.00,98.07
3604.00,98.08
3603.00,98.10
3602.00,98.10
3601.00,98.08
3600.00,98.03
3599.00,97.97
3598.00,97.93
3597.00,97.91
3596.00,97.89
3595.00,97.87
3594.00,97.82
3593.00,97.77
3592.00,97.72
3591.00,97.69
3590.00,97.67
3589.00,97.68
3588.00,97.69
3587.00,97.69
3586.00,97.68
3585.00,97.65
3584.00,97.61
3583.00,97.55
3582.00,97.50
3581.00,97.45
3580.00,97.41
3579.00,97.39
3578.00,97.37
3577.00,97.35
3576.00,97.32
3575.00,97.29
3574.00,97.26
3573.00,97.22
3572.00,97.19
3571.00,97.15
3570.00,97.12
3569.00,97.08
3568.00,97.05
3567.00,97.00
3566.00,96.97
3565.00,96.94
3564.00,96.91
3563.00,96.88
3562.00,96.83
3561.00,96.78
3560.00,96.73
3559.00,96.69
3558.00,96.65
3557.00,96.61
3556.00,96.56
3555.00,96.51
3554.00,96.44
3553.00,96.38
3552.00,96.34
3551.00,96.32
3550.00,96.29
3549.00,96.26
3548.00,96.23
3547.00,96.19
3546.00,96.15
3545.00,96.11
3544.00,96.08
3543.00,96.05
3542.00,96.02
3541.00,95.99
3540.00,95.96
3539.00,95.91
3538.00,95.85
3537.00,95.80
3536.00,95.75
3535.00,95.71
3534.00,95.68
3533.00,95.65
3532.00,95.62
3531.00,95.57
3530.00,95.51
3529.00,95.45
3528.00,95.39
3527.00,95.34
3526.00,95.30
3525.00,95.25
3524.00,95.18
3523.00,95.11
3522.00,95.05
3521.00,95.00
3520.00,94.95
3519.00,94.90
3518.00,94.84
3517.00,94.79
3516.00,94.73
3515.00,94.66
3514.00,94.59
3513.00,94.49
3512.00,94.39
3511.00,94.30
3510.00,94.23
3509.00,94.16
3508.00,94.09
3507.00,94.00
3506.00,93.89
3505.00,93.77
3504.00,93.65
3503.00,93.55
3502.00,93.47
3501.00,93.38
3500.00,93.27
3499.00,93.15
3498.00,93.02
3497.00,92.89
3496.00,92.78
3495.00,92.68
3494.00,92.58
3493.00,92.48
3492.00,92.37
3491.00,92.26
3490.00,92.15
3489.00,92.04
3488.00,91.96
3487.00,91.91
3486.00,91.89
3485.00,91.89
3484.00,91.89
3483.00,91.87
3482.00,91.83
3481.00,91.78
3480.00,91.73
3479.00,91.69
3478.00,91.67
3477.00,91.67
3476.00,91.67
3475.00,91.67
3474.00,91.66
3473.00,91.63
3472.00,91.59
3471.00,91.53
3470.00,91.47
3469.00,91.41
3468.00,91.35
3467.00,91.29
3466.00,91.23
3465.00,91.18
3464.00,91.13
3463.00,91.08
3462.00,91.01
3461.00,90.91
3460.00,90.79
3459.00,90.68
3458.00,90.57
3457.00,90.46
3456.00,90.36
3455.00,90.25
3454.00,90.15
3453.00,90.04
3452.00,89.93
3451.00,89.81
3450.00,89.69
3449.00,89.56
3448.00,89.44
3447.00,89.32
3446.00,89.21
3445.00,89.09
3444.00,88.99
3443.00,88.90
3442.00,88.83
3441.00,88.79
3440.00,88.77
3439.00,88.75
3438.00,88.74
3437.00,88.74
3436.00,88.75
3435.00,88.78
3434.00,88.80
3433.00,88.82
3432.00,88.84
3431.00,88.85
3430.00,88.85
3429.00,88.85
3428.00,88.84
3427.00,88.83
3426.00,88.81
3425.00,88.79
3424.00,88.78
3423.00,88.77
3422.00,88.77
3421.00,88.75
3420.00,88.72
3419.00,88.68
3418.00,88.63
3417.00,88.59
3416.00,88.55
3415.00,88.52
3414.00,88.49
3413.00,88.47
3412.00,88.44
3411.00,88.42
3410.00,88.40
3409.00,88.38
3408.00,88.34
3407.00,88.29
3406.00,88.23
3405.00,88.16
3404.00,88.11
3403.00,88.07
3402.00,88.04
3401.00,88.02
3400.00,88.00
3399.00,87.99
3398.00,87.98
3397.00,87.96
3396.00,87.93
3395.00,87.89
3394.00,87.85
3393.00,87.82
3392.00,87.80
3391.00,87.77
3390.00,87.74
3389.00,87.69
3388.00,87.64
3387.00,87.58
3386.00,87.52
3385.00,87.46
3384.00,87.42
3383.00,87.38
3382.00,87.34
3381.00,87.31
3380.00,87.27
3379.00,87.23
3378.00,87.20
3377.00,87.17
3376.00,87.14
3375.00,87.11
3374.00,87.07
3373.00,87.02
3372.00,86.97
3371.00,86.91
3370.00,86.86
3369.00,86.82
3368.00,86.79
3367.00,86.74
3366.00,86.69
3365.00,86.64
3364.00,86.58
3363.00,86.53
3362.00,86.48
3361.00,86.43
3360.00,86.38
3359.00,86.33
3358.00,86.27
3357.00,86.20
3356.00,86.14
3355.00,86.10
3354.00,86.06
3353.00,86.02
3352.00,85.96
3351.00,85.88
3350.00,85.79
3349.00,85.71
3348.00,85.63
3347.00,85.58
3346.00,85.54
3345.00,85.52
3344.00,85.49
3343.00,85.44
3342.00,85.39
3341.00,85.34
3340.00,85.29
3339.00,85.24
3338.00,85.20
3337.00,85.16
3336.00,85.13
3335.00,85.11
3334.00,85.11
3333.00,85.12
3332.00,85.14
3331.00,85.16
3330.00,85.17
3329.00,85.17
3328.00,85.18
3327.00,85.21
3326.00,85.26
3325.00,85.30
3324.00,85.34
3323.00,85.37
3322.00,85.39
3321.00,85.41
3320.00,85.44
3319.00,85.47
3318.00,85.48
3317.00,85.49
3316.00,85.49
3315.00,85.51
3314.00,85.53
3313.00,85.55
3312.00,85.56
3311.00,85.57
3310.00,85.58
3309.00,85.59
3308.00,85.59
3307.00,85.58
3306.00,85.58
3305.00,85.57
3304.00,85.57
3303.00,85.58
3302.00,85.60
3301.00,85.61
3300.00,85.61
3299.00,85.60
3298.00,85.59
3297.00,85.58
3296.00,85.57
3295.00,85.58
3294.00,85.58
3293.00,85.59
3292.00,85.60
3291.00,85.61
3290.00,85.63
3289.00,85.65
3288.00,85.67
3287.00,85.69
3286.00,85.69
3285.00,85.69
3284.00,85.68
3283.00,85.68
3282.00,85.69
3281.00,85.73
3280.00,85.77
3279.00,85.80
3278.00,85.83
3277.00,85.85
3276.00,85.86
3275.00,85.87
3274.00,85.89
3273.00,85.92
3272.00,85.94
3271.00,85.95
3270.00,85.96
3269.00,85.98
3268.00,86.01
3267.00,86.05
3266.00,86.09
3265.00,86.13
3264.00,86.17
3263.00,86.23
3262.00,86.30
3261.00,86.36
3260.00,86.41
3259.00,86.45
3258.00,86.48
3257.00,86.53
3256.00,86.59
3255.00,86.67
3254.00,86.74
3253.00,86.80
3252.00,86.85
3251.00,86.90
3250.00,86.95
3249.00,87.00
3248.00,87.05
3247.00,87.08
3246.00,87.12
3245.00,87.16
3244.00,87.21
3243.00,87.26
3242.00,87.30
3241.00,87.35
3240.00,87.39
3239.00,87.44
3238.00,87.50
3237.00,87.54
3236.00,87.59
3235.00,87.65
3234.00,87.70
3233.00,87.76
3232.00,87.81
3231.00,87.85
3230.00,87.89
3229.00,87.94
3228.00,87.99
3227.00,88.03
3226.00,88.07
3225.00,88.11
3224.00,88.13
3223.00,88.15
3222.00,88.17
3221.00,88.19
3220.00,88.22
3219.00,88.25
3218.00,88.29
3217.00,88.35
3216.00,88.40
3215.00,88.44
3214.00,88.48
3213.00,88.51
3212.00,88.55
3211.00,88.60
3210.00,88.64
3209.00,88.69
3208.00,88.73
3207.00,88.77
3206.00,88.80
3205.00,88.83
3204.00,88.87
3203.00,88.91
3202.00,88.94
3201.00,88.98
3200.00,89.01
3199.00,89.04
3198.00,89.07
3197.00,89.09
3196.00,89.11
3195.00,89.14
3194.00,89.17
3193.00,89.19
3192.00,89.21
3191.00,89.24
3190.00,89.28
3189.00,89.32
3188.00,89.37
3187.00,89.40
3186.00,89.43
3185.00,89.45
3184.00,89.46
3183.00,89.48
3182.00,89.50
3181.00,89.52
3180.00,89.54
3179.00,89.56
3178.00,89.59
3177.00,89.62
3176.00,89.65
3175.00,89.68
3174.00,89.71
3173.00,89.74
3172.00,89.76
3171.00,89.78
3170.00,89.80
3169.00,89.81
3168.00,89.83
3167.00,89.88
3166.00,89.94
3165.00,90.00
3164.00,90.04
3163.00,90.05
3162.00,90.06
3161.00,90.08
3160.00,90.11
3159.00,90.14
3158.00,90.18
3157.00,90.22
3156.00,90.26
3155.00,90.30
3154.00,90.33
3153.00,90.35
3152.00,90.37
3151.00,90.40
3150.00,90.43
3149.00,90.47
3148.00,90.52
3147.00,90.55
3146.00,90.58
3145.00,90.62
3144.00,90.65
3143.00,90.69
3142.00,90.72
3141.00,90.75
3140.00,90.78
3139.00,90.81
3138.00,90.83
3137.00,90.85
3136.00,90.89
3135.00,90.93
3134.00,90.98
3133.00,91.04
3132.00,91.09
3131.00,91.13
3130.00,91.18
3129.00,91.23
3128.00,91.28
3127.00,91.32
3126.00,91.35
3125.00,91.38
3124.00,91.42
3123.00,91.46
3122.00,91.51
3121.00,91.56
3120.00,91.62
3119.00,91.67
3118.00,91.72
3117.00,91.75
3116.00,91.78
3115.00,91.81
3114.00,91.85
3113.00,91.91
3112.00,91.96
3111.00,92.01
3110.00,92.07
3109.00,92.11
3108.00,92.16
3107.00,92.20
3106.00,92.25
3105.00,92.29
3104.00,92.34
3103.00,92.38
3102.00,92.42
3101.00,92.45
3100.00,92.49
3099.00,92.53
3098.00,92.58
3097.00,92.63
3096.00,92.69
3095.00,92.73
3094.00,92.77
3093.00,92.80
3092.00,92.84
3091.00,92.88
3090.00,92.91
3089.00,92.94
3088.00,92.97
3087.00,93.02
3086.00,93.07
3085.00,93.12
3084.00,93.17
3083.00,93.22
3082.00,93.26
3081.00,93.28
3080.00,93.30
3079.00,93.32
3078.00,93.35
3077.00,93.39
3076.00,93.43
3075.00,93.46
3074.00,93.49
3073.00,93.53
3072.00,93.58
3071.00,93.64
3070.00,93.70
3069.00,93.73
3068.00,93.76
3067.00,93.79
3066.00,93.82
3065.00,93.85
3064.00,93.88
3063.00,93.91
3062.00,93.95
3061.00,93.98
3060.00,94.01
3059.00,94.04
3058.00,94.07
3057.00,94.10
3056.00,94.13
3055.00,94.14
3054.00,94.17
3053.00,94.20
3052.00,94.24
3051.00,94.28
3050.00,94.31
3049.00,94.34
3048.00,94.36
3047.00,94.39
3046.00,94.42
3045.00,94.45
3044.00,94.47
3043.00,94.50
3042.00,94.53
3041.00,94.56
3040.00,94.60
3039.00,94.63
3038.00,94.66
3037.00,94.67
3036.00,94.68
3035.00,94.70
3034.00,94.72
3033.00,94.75
3032.00,94.78
3031.00,94.81
3030.00,94.85
3029.00,94.88
3028.00,94.91
3027.00,94.93
3026.00,94.96
3025.00,94.98
3024.00,94.99
3023.00,95.00
3022.00,95.01
3021.00,95.03
3020.00,95.05
3019.00,95.08
3018.00,95.10
3017.00,95.12
3016.00,95.13
3015.00,95.15
3014.00,95.17
3013.00,95.20
3012.00,95.23
3011.00,95.25
3010.00,95.26
3009.00,95.27
3008.00,95.28
3007.00,95.30
3006.00,95.32
3005.00,95.34
3004.00,95.36
3003.00,95.38
3002.00,95.39
3001.00,95.40
3000.00,95.40
2999.00,95.39
2998.00,95.39
2997.00,95.40
2996.00,95.42
2995.00,95.44
2994.00,95.44
2993.00,95.43
2992.00,95.42
2991.00,95.41
2990.00,95.40
2989.00,95.39
2988.00,95.36
2987.00,95.33
2986.00,95.31
2985.00,95.30
2984.00,95.30
2983.00,95.29
2982.00,95.28
2981.00,95.27
2980.00,95.26
2979.00,95.24
2978.00,95.23
2977.00,95.20
2976.00,95.18
2975.00,95.15
2974.00,95.12
2973.00,95.08
2972.00,95.03
2971.00,94.97
2970.00,94.91
2969.00,94.85
2968.00,94.81
2967.00,94.79
2966.00,94.76
2965.00,94.74
2964.00,94.71
2963.00,94.67
2962.00,94.63
2961.00,94.58
2960.00,94.53
2959.00,94.49
2958.00,94.45
2957.00,94.42
2956.00,94.38
2955.00,94.34
2954.00,94.30
2953.00,94.26
2952.00,94.21
2951.00,94.17
2950.00,94.13
2949.00,94.09
2948.00,94.03
2947.00,93.97
2946.00,93.90
2945.00,93.84
2944.00,93.78
2943.00,93.72
2942.00,93.65
2941.00,93.58
2940.00,93.50
2939.00,93.42
2938.00,93.34
2937.00,93.25
2936.00,93.17
2935.00,93.09
2934.00,93.01
2933.00,92.94
2932.00,92.87
2931.00,92.79
2930.00,92.71
2929.00,92.61
2928.00,92.52
2927.00,92.42
2926.00,92.31
2925.00,92.18
2924.00,92.06
2923.00,91.93
2922.00,91.80
2921.00,91.68
2920.00,91.57
2919.00,91.48
2918.00,91.41
2917.00,91.37
2916.00,91.36
2915.00,91.37
2914.00,91.39
2913.00,91.41
2912.00,91.42
2911.00,91.40
2910.00,91.36
2909.00,91.32
2908.00,91.29
2907.00,91.26
2906.00,91.23
2905.00,91.21
2904.00,91.18
2903.00,91.14
2902.00,91.11
2901.00,91.08
2900.00,91.05
2899.00,91.04
2898.00,91.03
2897.00,91.01
2896.00,90.99
2895.00,90.98
2894.00,90.97
2893.00,90.96
2892.00,90.97
2891.00,91.00
2890.00,91.06
2889.00,91.13
2888.00,91.20
2887.00,91.27
2886.00,91.33
2885.00,91.39
2884.00,91.45
2883.00,91.51
2882.00,91.55
2881.00,91.57
2880.00,91.59
2879.00,91.61
2878.00,91.63
2877.00,91.65
2876.00,91.68
2875.00,91.71
2874.00,91.74
2873.00,91.78
2872.00,91.82
2871.00,91.88
2870.00,91.94
2869.00,92.00
2868.00,92.06
2867.00,92.12
2866.00,92.17
2865.00,92.22
2864.00,92.27
2863.00,92.31
2862.00,92.35
2861.00,92.39
2860.00,92.43
2859.00,92.46
2858.00,92.48
2857.00,92.48
2856.00,92.47
2855.00,92.44
2854.00,92.40
2853.00,92.37
2852.00,92.38
2851.00,92.43
2850.00,92.53
2849.00,92.65
2848.00,92.80
2847.00,92.94
2846.00,93.08
2845.00,93.21
2844.00,93.33
2843.00,93.43
2842.00,93.52
2841.00,93.60
2840.00,93.68
2839.00,93.75
2838.00,93.81
2837.00,93.86
2836.00,93.90
2835.00,93.95
2834.00,93.99
2833.00,94.04
2832.00,94.07
2831.00,94.11
2830.00,94.15
2829.00,94.18
2828.00,94.21
2827.00,94.23
2826.00,94.27
2825.00,94.31
2824.00,94.35
2823.00,94.38
2822.00,94.40
2821.00,94.42
2820.00,94.44
2819.00,94.47
2818.00,94.49
2817.00,94.52
2816.00,94.54
2815.00,94.56
2814.00,94.59
2813.00,94.62
2812.00,94.64
2811.00,94.65
2810.00,94.66
2809.00,94.68
2808.00,94.70
2807.00,94.73
2806.00,94.76
2805.00,94.79
2804.00,94.81
2803.00,94.82
2802.00,94.84
2801.00,94.86
2800.00,94.89
2799.00,94.90
2798.00,94.92
2797.00,94.94
2796.00,94.97
2795.00,95.01
2794.00,95.04
2793.00,95.06
2792.00,95.07
2791.00,95.07
2790.00,95.07
2789.00,95.08
2788.00,95.09
2787.00,95.11
2786.00,95.14
2785.00,95.16
2784.00,95.17
2783.00,95.18
2782.00,95.20
2781.00,95.22
2780.00,95.23
2779.00,95.24
2778.00,95.25
2777.00,95.26
2776.00,95.28
2775.00,95.30
2774.00,95.33
2773.00,95.35
2772.00,95.37
2771.00,95.38
2770.00,95.39
2769.00,95.39
2768.00,95.39
2767.00,95.38
2766.00,95.39
2765.00,95.39
2764.00,95.40
2763.00,95.41
2762.00,95.41
2761.00,95.41
2760.00,95.42
2759.00,95.44
2758.00,95.46
2757.00,95.46
2756.00,95.45
2755.00,95.45
2754.00,95.45
2753.00,95.46
2752.00,95.47
2751.00,95.48
2750.00,95.47
2749.00,95.47
2748.00,95.45
2747.00,95.44
2746.00,95.43
2745.00,95.43
2744.00,95.44
2743.00,95.46
2742.00,95.47
2741.00,95.48
2740.00,95.48
2739.00,95.47
2738.00,95.46
2737.00,95.46
2736.00,95.47
2735.00,95.48
2734.00,95.49
2733.00,95.51
2732.00,95.51
2731.00,95.51
2730.00,95.50
2729.00,95.49
2728.00,95.49
2727.00,95.50
2726.00,95.51
2725.00,95.53
2724.00,95.53
2723.00,95.53
2722.00,95.53
2721.00,95.53
2720.00,95.54
2719.00,95.56
2718.00,95.58
2717.00,95.60
2716.00,95.60
2715.00,95.60
2714.00,95.60
2713.00,95.61
2712.00,95.64
2711.00,95.66
2710.00,95.68
2709.00,95.68
2708.00,95.67
2707.00,95.67
2706.00,95.66
2705.00,95.66
2704.00,95.66
2703.00,95.68
2702.00,95.69
2701.00,95.71
2700.00,95.71
2699.00,95.72
2698.00,95.74
2697.00,95.76
2696.00,95.78
2695.00,95.79
2694.00,95.78
2693.00,95.77
2692.00,95.76
2691.00,95.75
2690.00,95.75
2689.00,95.76
2688.00,95.78
2687.00,95.80
2686.00,95.82
2685.00,95.83
2684.00,95.85
2683.00,95.87
2682.00,95.88
2681.00,95.89
2680.00,95.90
2679.00,95.91
2678.00,95.92
2677.00,95.93
2676.00,95.94
2675.00,95.94
2674.00,95.93
2673.00,95.93
2672.00,95.94
2671.00,95.95
2670.00,95.96
2669.00,95.96
2668.00,95.96
2667.00,95.97
2666.00,95.99
2665.00,96.00
2664.00,96.02
2663.00,96.03
2662.00,96.04
2661.00,96.04
2660.00,96.04
2659.00,96.03
2658.00,96.03
2657.00,96.02
2656.00,96.02
2655.00,96.02
2654.00,96.02
2653.00,96.02
2652.00,96.01
2651.00,96.00
2650.00,96.00
2649.00,96.00
2648.00,96.00
2647.00,95.99
2646.00,95.99
2645.00,95.98
2644.00,95.99
2643.00,96.00
2642.00,96.01
2641.00,96.02
2640.00,96.01
2639.00,95.99
2638.00,95.98
2637.00,95.98
2636.00,96.00
2635.00,96.02
2634.00,96.03
2633.00,96.04
2632.00,96.05
2631.00,96.04
2630.00,96.02
2629.00,96.01
2628.00,96.00
2627.00,96.00
2626.00,96.01
2625.00,96.01
2624.00,96.02
2623.00,96.03
2622.00,96.03
2621.00,96.04
2620.00,96.04
2619.00,96.04
2618.00,96.05
2617.00,96.06
2616.00,96.07
2615.00,96.08
2614.00,96.08
2613.00,96.08
2612.00,96.07
2611.00,96.07
2610.00,96.08
2609.00,96.09
2608.00,96.09
2607.00,96.10
2606.00,96.10
2605.00,96.10
2604.00,96.11
2603.00,96.11
2602.00,96.13
2601.00,96.15
2600.00,96.16
2599.00,96.16
2598.00,96.15
2597.00,96.13
2596.00,96.12
2595.00,96.11
2594.00,96.10
2593.00,96.09
2592.00,96.09
2591.00,96.10
2590.00,96.11
2589.00,96.13
2588.00,96.14
2587.00,96.15
2586.00,96.16
2585.00,96.15
2584.00,96.14
2583.00,96.14
2582.00,96.14
2581.00,96.15
2580.00,96.16
2579.00,96.16
2578.00,96.14
2577.00,96.14
2576.00,96.14
2575.00,96.15
2574.00,96.16
2573.00,96.18
2572.00,96.19
2571.00,96.20
2570.00,96.18
2569.00,96.16
2568.00,96.14
2567.00,96.14
2566.00,96.13
2565.00,96.13
2564.00,96.13
2563.00,96.14
2562.00,96.15
2561.00,96.17
2560.00,96.18
2559.00,96.18
2558.00,96.18
2557.00,96.16
2556.00,96.14
2555.00,96.12
2554.00,96.12
2553.00,96.13
2552.00,96.16
2551.00,96.18
2550.00,96.18
2549.00,96.17
2548.00,96.16
2547.00,96.16
2546.00,96.16
2545.00,96.17
2544.00,96.17
2543.00,96.17
2542.00,96.16
2541.00,96.15
2540.00,96.15
2539.00,96.17
2538.00,96.18
2537.00,96.18
2536.00,96.17
2535.00,96.16
2534.00,96.15
2533.00,96.16
2532.00,96.17
2531.00,96.16
2530.00,96.14
2529.00,96.13
2528.00,96.13
2527.00,96.14
2526.00,96.15
2525.00,96.17
2524.00,96.19
2523.00,96.21
2522.00,96.23
2521.00,96.24
2520.00,96.25
2519.00,96.25
2518.00,96.24
2517.00,96.23
2516.00,96.22
2515.00,96.21
2514.00,96.21
2513.00,96.21
2512.00,96.21
2511.00,96.23
2510.00,96.24
2509.00,96.25
2508.00,96.25
2507.00,96.24
2506.00,96.24
2505.00,96.24
2504.00,96.25
2503.00,96.26
2502.00,96.27
2501.00,96.26
2500.00,96.26
2499.00,96.26
2498.00,96.28
2497.00,96.29
2496.00,96.29
2495.00,96.28
2494.00,96.28
2493.00,96.28
2492.00,96.28
2491.00,96.28
2490.00,96.28
2489.00,96.26
2488.00,96.24
2487.00,96.24
2486.00,96.24
2485.00,96.26
2484.00,96.27
2483.00,96.29
2482.00,96.30
2481.00,96.30
2480.00,96.30
2479.00,96.30
2478.00,96.32
2477.00,96.34
2476.00,96.35
2475.00,96.35
2474.00,96.35
2473.00,96.35
2472.00,96.34
2471.00,96.33
2470.00,96.32
2469.00,96.31
2468.00,96.31
2467.00,96.31
2466.00,96.33
2465.00,96.35
2464.00,96.36
2463.00,96.38
2462.00,96.39
2461.00,96.40
2460.00,96.40
2459.00,96.38
2458.00,96.36
2457.00,96.36
2456.00,96.37
2455.00,96.39
2454.00,96.41
2453.00,96.42
2452.00,96.43
2451.00,96.43
2450.00,96.43
2449.00,96.42
2448.00,96.40
2447.00,96.38
2446.00,96.38
2445.00,96.38
2444.00,96.39
2443.00,96.38
2442.00,96.37
2441.00,96.36
2440.00,96.37
2439.00,96.40
2438.00,96.43
2437.00,96.44
2436.00,96.44
2435.00,96.44
2434.00,96.43
2433.00,96.44
2432.00,96.45
2431.00,96.47
2430.00,96.48
2429.00,96.49
2428.00,96.49
2427.00,96.49
2426.00,96.50
2425.00,96.51
2424.00,96.52
2423.00,96.52
2422.00,96.52
2421.00,96.52
2420.00,96.52
2419.00,96.52
2418.00,96.53
2417.00,96.54
2416.00,96.54
2415.00,96.55
2414.00,96.55
2413.00,96.55
2412.00,96.56
2411.00,96.57
2410.00,96.56
2409.00,96.56
2408.00,96.56
2407.00,96.57
2406.00,96.58
2405.00,96.58
2404.00,96.59
2403.00,96.60
2402.00,96.60
2401.00,96.60
2400.00,96.59
2399.00,96.60
2398.00,96.62
2397.00,96.64
2396.00,96.67
2395.00,96.67
2394.00,96.67
2393.00,96.66
2392.00,96.67
2391.00,96.69
2390.00,96.71
2389.00,96.72
2388.00,96.72
2387.00,96.72
2386.00,96.71
2385.00,96.71
2384.00,96.72
2383.00,96.74
2382.00,96.76
2381.00,96.78
2380.00,96.79
2379.00,96.80
2378.00,96.79
2377.00,96.78
2376.00,96.76
2375.00,96.77
2374.00,96.80
2373.00,96.82
2372.00,96.83
2371.00,96.83
2370.00,96.86
2369.00,96.90
2368.00,96.92
2367.00,96.90
2366.00,96.85
2365.00,96.83
2364.00,96.86
2363.00,96.88
2362.00,96.86
2361.00,96.81
2360.00,96.79
2359.00,96.81
2358.00,96.83
2357.00,96.84
2356.00,96.84
2355.00,96.84
2354.00,96.87
2353.00,96.92
2352.00,96.95
2351.00,96.94
2350.00,96.91
2349.00,96.90
2348.00,96.92
2347.00,96.96
2346.00,97.01
2345.00,97.03
2344.00,97.01
2343.00,96.98
2342.00,96.95
2341.00,96.93
2340.00,96.91
2339.00,96.89
2338.00,96.88
2337.00,96.87
2336.00,96.86
2335.00,96.86
2334.00,96.88
2333.00,96.90
2332.00,96.91
2331.00,96.89
2330.00,96.87
2329.00,96.84
2328.00,96.81
2327.00,96.76
2326.00,96.71
2325.00,96.66
2324.00,96.65
2323.00,96.67
2322.00,96.69
2321.00,96.71
2320.00,96.72
2319.00,96.74
2318.00,96.75
2317.00,96.75
2316.00,96.74
2315.00,96.74
2314.00,96.74
2313.00,96.76
2312.00,96.77
2311.00,96.77
2310.00,96.78
2309.00,96.78
2308.00,96.77
2307.00,96.76
2306.00,96.74
2305.00,96.73
2304.00,96.74
2303.00,96.74
2302.00,96.74
2301.00,96.71
2300.00,96.68
2299.00,96.66
2298.00,96.63
2297.00,96.61
2296.00,96.59
2295.00,96.59
2294.00,96.59
2293.00,96.57
2292.00,96.54
2291.00,96.51
2290.00,96.49
2289.00,96.47
2288.00,96.46
2287.00,96.45
2286.00,96.42
2285.00,96.38
2284.00,96.35
2283.00,96.34
2282.00,96.35
2281.00,96.37
2280.00,96.39
2279.00,96.42
2278.00,96.43
2277.00,96.43
2276.00,96.41
2275.00,96.40
2274.00,96.39
2273.00,96.39
2272.00,96.37
2271.00,96.33
2270.00,96.30
2269.00,96.29
2268.00,96.31
2267.00,96.33
2266.00,96.33
2265.00,96.30
2264.00,96.25
2263.00,96.21
2262.00,96.20
2261.00,96.22
2260.00,96.25
2259.00,96.29
2258.00,96.31
2257.00,96.31
2256.00,96.30
2255.00,96.29
2254.00,96.29
2253.00,96.30
2252.00,96.31
2251.00,96.29
2250.00,96.27
2249.00,96.25
2248.00,96.26
2247.00,96.29
2246.00,96.29
2245.00,96.26
2244.00,96.22
2243.00,96.20
2242.00,96.21
2241.00,96.21
2240.00,96.19
2239.00,96.16
2238.00,96.15
2237.00,96.15
2236.00,96.15
2235.00,96.12
2234.00,96.09
2233.00,96.08
2232.00,96.09
2231.00,96.11
2230.00,96.11
2229.00,96.11
2228.00,96.11
2227.00,96.12
2226.00,96.12
2225.00,96.10
2224.00,96.09
2223.00,96.09
2222.00,96.11
2221.00,96.13
2220.00,96.14
2219.00,96.12
2218.00,96.11
2217.00,96.10
2216.00,96.11
2215.00,96.11
2214.00,96.10
2213.00,96.08
2212.00,96.06
2211.00,96.04
2210.00,96.01
2209.00,95.98
2208.00,95.98
2207.00,96.02
2206.00,96.08
2205.00,96.13
2204.00,96.14
2203.00,96.13
2202.00,96.10
2201.00,96.06
2200.00,96.02
2199.00,95.96
2198.00,95.91
2197.00,95.91
2196.00,95.95
2195.00,96.03
2194.00,96.09
2193.00,96.11
2192.00,96.10
2191.00,96.07
2190.00,96.03
2189.00,95.94
2188.00,95.84
2187.00,95.76
2186.00,95.74
2185.00,95.76
2184.00,95.80
2183.00,95.86
2182.00,95.93
2181.00,96.00
2180.00,96.07
2179.00,96.12
2178.00,96.13
2177.00,96.12
2176.00,96.08
2175.00,96.05
2174.00,96.04
2173.00,96.04
2172.00,96.03
2171.00,96.01
2170.00,95.95
2169.00,95.88
2168.00,95.81
2167.00,95.76
2166.00,95.73
2165.00,95.69
2164.00,95.64
2163.00,95.57
2162.00,95.53
2161.00,95.57
2160.00,95.69
2159.00,95.84
2158.00,95.96
2157.00,96.01
2156.00,96.00
2155.00,95.98
2154.00,95.95
2153.00,95.96
2152.00,96.00
2151.00,96.07
2150.00,96.11
2149.00,96.12
2148.00,96.10
2147.00,96.07
2146.00,96.05
2145.00,96.06
2144.00,96.08
2143.00,96.12
2142.00,96.15
2141.00,96.16
2140.00,96.16
2139.00,96.15
2138.00,96.15
2137.00,96.15
2136.00,96.15
2135.00,96.15
2134.00,96.15
2133.00,96.15
2132.00,96.15
2131.00,96.15
2130.00,96.16
2129.00,96.18
2128.00,96.18
2127.00,96.16
2126.00,96.14
2125.00,96.13
2124.00,96.15
2123.00,96.17
2122.00,96.20
2121.00,96.21
2120.00,96.22
2119.00,96.22
2118.00,96.21
2117.00,96.18
2116.00,96.14
2115.00,96.11
2114.00,96.10
2113.00,96.12
2112.00,96.15
2111.00,96.17
2110.00,96.15
2109.00,96.11
2108.00,96.09
2107.00,96.10
2106.00,96.16
2105.00,96.22
2104.00,96.26
2103.00,96.26
2102.00,96.22
2101.00,96.17
2100.00,96.13
2099.00,96.11
2098.00,96.11
2097.00,96.13
2096.00,96.16
2095.00,96.20
2094.00,96.23
2093.00,96.23
2092.00,96.19
2091.00,96.15
2090.00,96.12
2089.00,96.10
2088.00,96.11
2087.00,96.14
2086.00,96.17
2085.00,96.19
2084.00,96.19
2083.00,96.17
2082.00,96.17
2081.00,96.17
2080.00,96.17
2079.00,96.14
2078.00,96.12
2077.00,96.11
2076.00,96.11
2075.00,96.12
2074.00,96.12
2073.00,96.11
2072.00,96.10
2071.00,96.10
2070.00,96.10
2069.00,96.10
2068.00,96.09
2067.00,96.10
2066.00,96.11
2065.00,96.13
2064.00,96.16
2063.00,96.18
2062.00,96.19
2061.00,96.17
2060.00,96.12
2059.00,96.07
2058.00,96.04
2057.00,96.05
2056.00,96.08
2055.00,96.12
2054.00,96.13
2053.00,96.08
2052.00,96.00
2051.00,95.91
2050.00,95.86
2049.00,95.85
2048.00,95.86
2047.00,95.86
2046.00,95.86
2045.00,95.88
2044.00,95.93
2043.00,95.98
2042.00,95.99
2041.00,95.95
2040.00,95.89
2039.00,95.83
2038.00,95.80
2037.00,95.79
2036.00,95.79
2035.00,95.83
2034.00,95.91
2033.00,95.99
2032.00,96.02
2031.00,95.98
2030.00,95.92
2029.00,95.87
2028.00,95.83
2027.00,95.81
2026.00,95.77
2025.00,95.76
2024.00,95.78
2023.00,95.83
2022.00,95.89
2021.00,95.91
2020.00,95.90
2019.00,95.88
2018.00,95.87
2017.00,95.91
2016.00,95.98
2015.00,96.03
2014.00,96.05
2013.00,96.06
2012.00,96.08
2011.00,96.12
2010.00,96.16
2009.00,96.19
2008.00,96.22
2007.00,96.22
2006.00,96.18
2005.00,96.15
2004.00,96.15
2003.00,96.18
2002.00,96.22
2001.00,96.23
2000.00,96.18
1999.00,96.10
1998.00,96.02
1997.00,95.98
1996.00,95.99
1995.00,96.03
1994.00,96.05
1993.00,96.05
1992.00,96.05
1991.00,96.08
1990.00,96.14
1989.00,96.18
1988.00,96.19
1987.00,96.19
1986.00,96.17
1985.00,96.16
1984.00,96.14
1983.00,96.10
1982.00,96.04
1981.00,95.96
1980.00,95.91
1979.00,95.92
1978.00,95.97
1977.00,96.02
1976.00,96.07
1975.00,96.11
1974.00,96.17
1973.00,96.21
1972.00,96.25
1971.00,96.27
1970.00,96.30
1969.00,96.35
1968.00,96.39
1967.00,96.41
1966.00,96.39
1965.00,96.35
1964.00,96.32
1963.00,96.31
1962.00,96.32
1961.00,96.34
1960.00,96.36
1959.00,96.36
1958.00,96.33
1957.00,96.27
1956.00,96.23
1955.00,96.23
1954.00,96.26
1953.00,96.31
1952.00,96.37
1951.00,96.44
1950.00,96.49
1949.00,96.50
1948.00,96.48
1947.00,96.45
1946.00,96.42
1945.00,96.40
1944.00,96.40
1943.00,96.40
1942.00,96.40
1941.00,96.42
1940.00,96.45
1939.00,96.50
1938.00,96.54
1937.00,96.53
1936.00,96.50
1935.00,96.49
1934.00,96.50
1933.00,96.52
1932.00,96.52
1931.00,96.52
1930.00,96.53
1929.00,96.53
1928.00,96.54
1927.00,96.57
1926.00,96.59
1925.00,96.59
1924.00,96.56
1923.00,96.53
1922.00,96.51
1921.00,96.50
1920.00,96.51
1919.00,96.52
1918.00,96.53
1917.00,96.53
1916.00,96.53
1915.00,96.55
1914.00,96.59
1913.00,96.63
1912.00,96.67
1911.00,96.70
1910.00,96.72
1909.00,96.73
1908.00,96.73
1907.00,96.73
1906.00,96.73
1905.00,96.71
1904.00,96.68
1903.00,96.66
1902.00,96.66
1901.00,96.66
1900.00,96.67
1899.00,96.68
1898.00,96.69
1897.00,96.69
1896.00,96.70
1895.00,96.70
1894.00,96.71
1893.00,96.73
1892.00,96.75
1891.00,96.76
1890.00,96.76
1889.00,96.74
1888.00,96.72
1887.00,96.71
1886.00,96.71
1885.00,96.71
1884.00,96.71
1883.00,96.72
1882.00,96.74
1881.00,96.76
1880.00,96.77
1879.00,96.78
1878.00,96.79
1877.00,96.79
1876.00,96.79
1875.00,96.79
1874.00,96.79
1873.00,96.79
1872.00,96.79
1871.00,96.79
1870.00,96.77
1869.00,96.75
1868.00,96.73
1867.00,96.72
1866.00,96.74
1865.00,96.75
1864.00,96.77
1863.00,96.78
1862.00,96.79
1861.00,96.79
1860.00,96.79
1859.00,96.79
1858.00,96.78
1857.00,96.77
1856.00,96.76
1855.00,96.77
1854.00,96.78
1853.00,96.79
1852.00,96.80
1851.00,96.81
1850.00,96.83
1849.00,96.84
1848.00,96.84
1847.00,96.84
1846.00,96.83
1845.00,96.83
1844.00,96.84
1843.00,96.85
1842.00,96.87
1841.00,96.88
1840.00,96.87
1839.00,96.85
1838.00,96.83
1837.00,96.81
1836.00,96.80
1835.00,96.80
1834.00,96.81
1833.00,96.81
1832.00,96.82
1831.00,96.83
1830.00,96.85
1829.00,96.87
1828.00,96.88
1827.00,96.89
1826.00,96.89
1825.00,96.90
1824.00,96.89
1823.00,96.89
1822.00,96.87
1821.00,96.86
1820.00,96.85
1819.00,96.86
1818.00,96.89
1817.00,96.92
1816.00,96.93
1815.00,96.92
1814.00,96.90
1813.00,96.90
1812.00,96.90
1811.00,96.92
1810.00,96.94
1809.00,96.94
1808.00,96.93
1807.00,96.92
1806.00,96.90
1805.00,96.89
1804.00,96.89
1803.00,96.88
1802.00,96.88
1801.00,96.89
1800.00,96.91
1799.00,96.93
1798.00,96.95
1797.00,96.95
1796.00,96.95
1795.00,96.93
1794.00,96.91
1793.00,96.89
1792.00,96.88
1791.00,96.90
1790.00,96.93
1789.00,96.95
1788.00,96.96
1787.00,96.95
1786.00,96.94
1785.00,96.92
1784.00,96.90
1783.00,96.89
1782.00,96.89
1781.00,96.90
1780.00,96.92
1779.00,96.93
1778.00,96.95
1777.00,96.96
1776.00,96.97
1775.00,96.98
1774.00,96.98
1773.00,96.96
1772.00,96.94
1771.00,96.92
1770.00,96.91
1769.00,96.90
1768.00,96.90
1767.00,96.91
1766.00,96.92
1765.00,96.92
1764.00,96.93
1763.00,96.94
1762.00,96.94
1761.00,96.93
1760.00,96.91
1759.00,96.88
1758.00,96.87
1757.00,96.87
1756.00,96.88
1755.00,96.88
1754.00,96.88
1753.00,96.88
1752.00,96.86
1751.00,96.85
1750.00,96.84
1749.00,96.85
1748.00,96.85
1747.00,96.85
1746.00,96.84
1745.00,96.82
1744.00,96.80
1743.00,96.79
1742.00,96.79
1741.00,96.79
1740.00,96.79
1739.00,96.77
1738.00,96.76
1737.00,96.76
1736.00,96.77
1735.00,96.77
1734.00,96.76
1733.00,96.74
1732.00,96.73
1731.00,96.72
1730.00,96.72
1729.00,96.73
1728.00,96.73
1727.00,96.74
1726.00,96.75
1725.00,96.76
1724.00,96.77
1723.00,96.76
1722.00,96.74
1721.00,96.71
1720.00,96.69
1719.00,96.69
1718.00,96.70
1717.00,96.71
1716.00,96.70
1715.00,96.68
1714.00,96.68
1713.00,96.67
1712.00,96.68
1711.00,96.68
1710.00,96.68
1709.00,96.67
1708.00,96.65
1707.00,96.64
1706.00,96.63
1705.00,96.62
1704.00,96.61
1703.00,96.60
1702.00,96.60
1701.00,96.61
1700.00,96.61
1699.00,96.60
1698.00,96.59
1697.00,96.57
1696.00,96.53
1695.00,96.49
1694.00,96.47
1693.00,96.45
1692.00,96.44
1691.00,96.42
1690.00,96.40
1689.00,96.37
1688.00,96.34
1687.00,96.32
1686.00,96.31
1685.00,96.29
1684.00,96.24
1683.00,96.18
1682.00,96.13
1681.00,96.10
1680.00,96.07
1679.00,96.04
1678.00,96.02
1677.00,95.99
1676.00,95.95
1675.00,95.91
1674.00,95.88
1673.00,95.85
1672.00,95.82
1671.00,95.79
1670.00,95.75
1669.00,95.72
1668.00,95.68
1667.00,95.64
1666.00,95.61
1665.00,95.57
1664.00,95.52
1663.00,95.48
1662.00,95.45
1661.00,95.42
1660.00,95.39
1659.00,95.35
1658.00,95.31
1657.00,95.28
1656.00,95.25
1655.00,95.23
1654.00,95.20
1653.00,95.15
1652.00,95.12
1651.00,95.10
1650.00,95.09
1649.00,95.08
1648.00,95.06
1647.00,95.02
1646.00,94.99
1645.00,94.98
1644.00,94.97
1643.00,94.96
1642.00,94.96
1641.00,94.96
1640.00,94.96
1639.00,94.97
1638.00,94.99
1637.00,95.01
1636.00,95.03
1635.00,95.03
1634.00,95.03
1633.00,95.02
1632.00,95.01
1631.00,95.00
1630.00,95.01
1629.00,95.03
1628.00,95.06
1627.00,95.09
1626.00,95.11
1625.00,95.14
1624.00,95.17
1623.00,95.20
1622.00,95.24
1621.00,95.28
1620.00,95.32
1619.00,95.38
1618.00,95.43
1617.00,95.46
1616.00,95.47
1615.00,95.48
1614.00,95.49
1613.00,95.51
1612.00,95.54
1611.00,95.58
1610.00,95.62
1609.00,95.66
1608.00,95.70
1607.00,95.74
1606.00,95.77
1605.00,95.80
1604.00,95.82
1603.00,95.82
1602.00,95.83
1601.00,95.84
1600.00,95.86
1599.00,95.90
1598.00,95.94
1597.00,95.98
1596.00,96.01
1595.00,96.03
1594.00,96.04
1593.00,96.06
1592.00,96.07
1591.00,96.07
1590.00,96.09
1589.00,96.11
1588.00,96.14
1587.00,96.16
1586.00,96.18
1585.00,96.19
1584.00,96.21
1583.00,96.22
1582.00,96.24
1581.00,96.25
1580.00,96.27
1579.00,96.28
1578.00,96.29
1577.00,96.31
1576.00,96.31
1575.00,96.32
1574.00,96.33
1573.00,96.34
1572.00,96.36
1571.00,96.38
1570.00,96.41
1569.00,96.42
1568.00,96.43
1567.00,96.46
1566.00,96.49
1565.00,96.51
1564.00,96.52
1563.00,96.51
1562.00,96.48
1561.00,96.45
1560.00,96.43
1559.00,96.42
1558.00,96.43
1557.00,96.45
1556.00,96.47
1555.00,96.48
1554.00,96.48
1553.00,96.49
1552.00,96.50
1551.00,96.51
1550.00,96.52
1549.00,96.54
1548.00,96.54
1547.00,96.54
1546.00,96.52
1545.00,96.50
1544.00,96.49
1543.00,96.52
1542.00,96.55
1541.00,96.57
1540.00,96.56
1539.00,96.55
1538.00,96.56
1537.00,96.58
1536.00,96.59
1535.00,96.58
1534.00,96.58
1533.00,96.58
1532.00,96.59
1531.00,96.61
1530.00,96.63
1529.00,96.65
1528.00,96.66
1527.00,96.67
1526.00,96.67
1525.00,96.67
1524.00,96.67
1523.00,96.66
1522.00,96.65
1521.00,96.65
1520.00,96.65
1519.00,96.66
1518.00,96.66
1517.00,96.65
1516.00,96.63
1515.00,96.62
1514.00,96.62
1513.00,96.61
1512.00,96.61
1511.00,96.61
1510.00,96.60
1509.00,96.60
1508.00,96.59
1507.00,96.57
1506.00,96.56
1505.00,96.55
1504.00,96.54
1503.00,96.53
1502.00,96.51
1501.00,96.49
1500.00,96.47
1499.00,96.45
1498.00,96.42
1497.00,96.39
1496.00,96.36
1495.00,96.32
1494.00,96.28
1493.00,96.23
1492.00,96.16
1491.00,96.09
1490.00,96.00
1489.00,95.92
1488.00,95.83
1487.00,95.75
1486.00,95.66
1485.00,95.56
1484.00,95.44
1483.00,95.33
1482.00,95.24
1481.00,95.15
1480.00,95.07
1479.00,94.99
1478.00,94.89
1477.00,94.79
1476.00,94.70
1475.00,94.62
1474.00,94.52
1473.00,94.42
1472.00,94.31
1471.00,94.22
1470.00,94.15
1469.00,94.09
1468.00,94.02
1467.00,93.96
1466.00,93.88
1465.00,93.80
1464.00,93.75
1463.00,93.72
1462.00,93.71
1461.00,93.67
1460.00,93.62
1459.00,93.54
1458.00,93.45
1457.00,93.35
1456.00,93.30
1455.00,93.28
1454.00,93.25
1453.00,93.20
1452.00,93.15
1451.00,93.09
1450.00,93.05
1449.00,93.02
1448.00,92.98
1447.00,92.94
1446.00,92.91
1445.00,92.86
1444.00,92.81
1443.00,92.76
1442.00,92.72
1441.00,92.67
1440.00,92.61
1439.00,92.54
1438.00,92.47
1437.00,92.40
1436.00,92.31
1435.00,92.24
1434.00,92.17
1433.00,92.10
1432.00,92.02
1431.00,91.96
1430.00,91.91
1429.00,91.86
1428.00,91.84
1427.00,91.83
1426.00,91.83
1425.00,91.84
1424.00,91.84
1423.00,91.85
1422.00,91.86
1421.00,91.86
1420.00,91.89
1419.00,91.95
1418.00,92.04
1417.00,92.14
1416.00,92.23
1415.00,92.32
1414.00,92.40
1413.00,92.48
1412.00,92.56
1411.00,92.63
1410.00,92.69
1409.00,92.75
1408.00,92.79
1407.00,92.83
1406.00,92.86
1405.00,92.88
1404.00,92.89
1403.00,92.88
1402.00,92.87
1401.00,92.85
1400.00,92.84
1399.00,92.83
1398.00,92.82
1397.00,92.81
1396.00,92.81
1395.00,92.80
1394.00,92.78
1393.00,92.76
1392.00,92.73
1391.00,92.69
1390.00,92.65
1389.00,92.58
1388.00,92.49
1387.00,92.38
1386.00,92.25
1385.00,92.10
1384.00,91.90
1383.00,91.67
1382.00,91.40
1381.00,91.12
1380.00,90.83
1379.00,90.54
1378.00,90.27
1377.00,90.04
1376.00,89.84
1375.00,89.66
1374.00,89.49
1373.00,89.34
1372.00,89.21
1371.00,89.11
1370.00,89.03
1369.00,88.97
1368.00,88.93
1367.00,88.90
1366.00,88.88
1365.00,88.85
1364.00,88.83
1363.00,88.84
1362.00,88.90
1361.00,89.00
1360.00,89.13
1359.00,89.26
1358.00,89.40
1357.00,89.53
1356.00,89.64
1355.00,89.76
1354.00,89.89
1353.00,90.03
1352.00,90.16
1351.00,90.27
1350.00,90.35
1349.00,90.39
1348.00,90.38
1347.00,90.35
1346.00,90.29
1345.00,90.21
1344.00,90.10
1343.00,89.96
1342.00,89.81
1341.00,89.65
1340.00,89.50
1339.00,89.37
1338.00,89.28
1337.00,89.22
1336.00,89.18
1335.00,89.19
1334.00,89.24
1333.00,89.31
1332.00,89.41
1331.00,89.50
1330.00,89.59
1329.00,89.65
1328.00,89.70
1327.00,89.72
1326.00,89.72
1325.00,89.68
1324.00,89.60
1323.00,89.47
1322.00,89.29
1321.00,89.06
1320.00,88.78
1319.00,88.48
1318.00,88.20
1317.00,87.96
1316.00,87.81
1315.00,87.74
1314.00,87.73
1313.00,87.77
1312.00,87.86
1311.00,88.00
1310.00,88.19
1309.00,88.43
1308.00,88.70
1307.00,88.99
1306.00,89.27
1305.00,89.53
1304.00,89.77
1303.00,90.01
1302.00,90.23
1301.00,90.44
1300.00,90.64
1299.00,90.81
1298.00,90.97
1297.00,91.10
1296.00,91.20
1295.00,91.30
1294.00,91.38
1293.00,91.46
1292.00,91.55
1291.00,91.66
1290.00,91.77
1289.00,91.88
1288.00,91.96
1287.00,92.01
1286.00,92.02
1285.00,92.00
1284.00,91.95
1283.00,91.88
1282.00,91.78
1281.00,91.68
1280.00,91.58
1279.00,91.51
1278.00,91.48
1277.00,91.50
1276.00,91.55
1275.00,91.63
1274.00,91.71
1273.00,91.79
1272.00,91.87
1271.00,91.95
1270.00,92.01
1269.00,92.04
1268.00,92.05
1267.00,92.05
1266.00,92.03
1265.00,92.02
1264.00,92.01
1263.00,92.02
1262.00,92.04
1261.00,92.07
1260.00,92.12
1259.00,92.19
1258.00,92.28
1257.00,92.37
1256.00,92.47
1255.00,92.56
1254.00,92.65
1253.00,92.73
1252.00,92.80
1251.00,92.85
1250.00,92.88
1249.00,92.91
1248.00,92.95
1247.00,93.00
1246.00,93.05
1245.00,93.08
1244.00,93.11
1243.00,93.11
1242.00,93.11
1241.00,93.10
1240.00,93.08
1239.00,93.05
1238.00,93.02
1237.00,92.99
1236.00,92.95
1235.00,92.93
1234.00,92.93
1233.00,92.96
1232.00,93.01
1231.00,93.04
1230.00,93.05
1229.00,93.05
1228.00,93.05
1227.00,93.07
1226.00,93.12
1225.00,93.20
1224.00,93.32
1223.00,93.48
1222.00,93.65
1221.00,93.84
1220.00,94.02
1219.00,94.20
1218.00,94.35
1217.00,94.48
1216.00,94.56
1215.00,94.62
1214.00,94.66
1213.00,94.66
1212.00,94.61
1211.00,94.52
1210.00,94.38
1209.00,94.21
1208.00,94.02
1207.00,93.82
1206.00,93.63
1205.00,93.44
1204.00,93.28
1203.00,93.15
1202.00,93.05
1201.00,92.98
1200.00,92.96
1199.00,92.98
1198.00,93.04
1197.00,93.14
1196.00,93.27
1195.00,93.43
1194.00,93.62
1193.00,93.83
1192.00,94.04
1191.00,94.25
1190.00,94.44
1189.00,94.59
1188.00,94.70
1187.00,94.79
1186.00,94.86
1185.00,94.91
1184.00,94.92
1183.00,94.89
1182.00,94.83
1181.00,94.73
1180.00,94.61
1179.00,94.46
1178.00,94.28
1177.00,94.09
1176.00,93.86
1175.00,93.61
1174.00,93.32
1173.00,92.99
1172.00,92.62
1171.00,92.20
1170.00,91.73
1169.00,91.20
1168.00,90.61
1167.00,89.99
1166.00,89.35
1165.00,88.73
1164.00,88.13
1163.00,87.58
1162.00,87.09
1161.00,86.68
1160.00,86.37
1159.00,86.17
1158.00,86.08
1157.00,86.07
1156.00,86.13
1155.00,86.23
1154.00,86.36
1153.00,86.51
1152.00,86.68
1151.00,86.90
1150.00,87.15
1149.00,87.40
1148.00,87.64
1147.00,87.90
1146.00,88.16
1145.00,88.43
1144.00,88.68
1143.00,88.90
1142.00,89.08
1141.00,89.21
1140.00,89.26
1139.00,89.24
1138.00,89.14
1137.00,88.98
1136.00,88.78
1135.00,88.55
1134.00,88.30
1133.00,88.04
1132.00,87.79
1131.00,87.55
1130.00,87.28
1129.00,86.93
1128.00,86.51
1127.00,86.06
1126.00,85.62
1125.00,85.21
1124.00,84.81
1123.00,84.42
1122.00,84.04
1121.00,83.66
1120.00,83.27
1119.00,82.89
1118.00,82.50
1117.00,82.07
1116.00,81.58
1115.00,81.05
1114.00,80.52
1113.00,80.05
1112.00,79.68
1111.00,79.43
1110.00,79.29
1109.00,79.21
1108.00,79.15
1107.00,79.10
1106.00,79.04
1105.00,78.98
1104.00,78.91
1103.00,78.83
1102.00,78.71
1101.00,78.54
1100.00,78.33
1099.00,78.13
1098.00,77.97
1097.00,77.87
1096.00,77.80
1095.00,77.77
1094.00,77.74
1093.00,77.69
1092.00,77.61
1091.00,77.50
1090.00,77.36
1089.00,77.19
1088.00,77.02
1087.00,76.85
1086.00,76.68
1085.00,76.48
1084.00,76.25
1083.00,76.03
1082.00,75.82
1081.00,75.61
1080.00,75.39
1079.00,75.19
1078.00,75.00
1077.00,74.82
1076.00,74.63
1075.00,74.47
1074.00,74.32
1073.00,74.16
1072.00,73.98
1071.00,73.78
1070.00,73.52
1069.00,73.15
1068.00,72.67
1067.00,72.13
1066.00,71.54
1065.00,70.90
1064.00,70.22
1063.00,69.50
1062.00,68.78
1061.00,68.08
1060.00,67.43
1059.00,66.88
1058.00,66.42
1057.00,66.02
1056.00,65.67
1055.00,65.41
1054.00,65.24
1053.00,65.14
1052.00,65.08
1051.00,65.09
1050.00,65.17
1049.00,65.28
1048.00,65.41
1047.00,65.54
1046.00,65.67
1045.00,65.75
1044.00,65.81
1043.00,65.87
1042.00,65.93
1041.00,65.94
1040.00,65.84
1039.00,65.64
1038.00,65.35
1037.00,64.95
1036.00,64.49
1035.00,64.02
1034.00,63.59
1033.00,63.19
1032.00,62.83
1031.00,62.54
1030.00,62.31
1029.00,62.11
1028.00,61.93
1027.00,61.79
1026.00,61.71
1025.00,61.68
1024.00,61.70
1023.00,61.77
1022.00,61.87
1021.00,61.97
1020.00,62.05
1019.00,62.14
1018.00,62.24
1017.00,62.33
1016.00,62.41
1015.00,62.51
1014.00,62.65
1013.00,62.81
1012.00,62.98
1011.00,63.14
1010.00,63.29
1009.00,63.43
1008.00,63.54
1007.00,63.66
1006.00,63.79
1005.00,63.90
1004.00,63.97
1003.00,63.99
1002.00,63.94
1001.00,63.82
1000.00,63.65
999.00,63.46
998.00,63.31
997.00,63.20
996.00,63.15
995.00,63.20
994.00,63.34
993.00,63.53
992.00,63.74
991.00,63.97
990.00,64.22
989.00,64.47
988.00,64.73
987.00,65.02
986.00,65.32
985.00,65.65
984.00,66.00
983.00,66.41
982.00,66.91
981.00,67.47
980.00,68.10
979.00,68.76
978.00,69.44
977.00,70.07
976.00,70.67
975.00,71.22
974.00,71.74
973.00,72.21
972.00,72.65
971.00,73.05
970.00,73.41
969.00,73.72
968.00,74.01
967.00,74.28
966.00,74.54
965.00,74.80
964.00,75.04
963.00,75.31
962.00,75.60
961.00,75.89
960.00,76.19
959.00,76.51
958.00,76.84
957.00,77.17
956.00,77.48
955.00,77.80
954.00,78.12
953.00,78.45
952.00,78.78
951.00,79.11
950.00,79.44
949.00,79.75
948.00,80.05
947.00,80.33
946.00,80.62
945.00,80.88
944.00,81.13
943.00,81.36
942.00,81.58
941.00,81.77
940.00,81.96
939.00,82.13
938.00,82.31
937.00,82.49
936.00,82.65
935.00,82.79
934.00,82.91
933.00,83.01
932.00,83.13
931.00,83.26
930.00,83.40
929.00,83.53
928.00,83.64
927.00,83.75
926.00,83.88
925.00,84.04
924.00,84.21
923.00,84.38
922.00,84.53
921.00,84.65
920.00,84.74
919.00,84.83
918.00,84.93
917.00,85.00
916.00,85.06
915.00,85.09
914.00,85.10
913.00,85.09
912.00,85.05
911.00,85.01
910.00,84.96
909.00,84.91
908.00,84.82
907.00,84.72
906.00,84.59
905.00,84.45
904.00,84.28
903.00,84.09
902.00,83.87
901.00,83.62
900.00,83.31
899.00,82.98
898.00,82.64
897.00,82.32
896.00,82.06
895.00,81.89
894.00,81.84
893.00,81.90
892.00,82.04
891.00,82.26
890.00,82.56
889.00,82.90
888.00,83.26
887.00,83.62
886.00,83.96
885.00,84.26
884.00,84.55
883.00,84.82
882.00,85.10
881.00,85.38
880.00,85.63
879.00,85.86
878.00,86.06
877.00,86.24
876.00,86.40
875.00,86.57
874.00,86.73
873.00,86.88
872.00,87.01
871.00,87.14
870.00,87.29
869.00,87.45
868.00,87.60
867.00,87.73
866.00,87.84
865.00,87.92
864.00,87.99
863.00,88.04
862.00,88.09
861.00,88.15
860.00,88.21
859.00,88.26
858.00,88.30
857.00,88.34
856.00,88.37
855.00,88.39
854.00,88.43
853.00,88.49
852.00,88.56
851.00,88.63
850.00,88.70
849.00,88.77
848.00,88.81
847.00,88.83
846.00,88.81
845.00,88.79
844.00,88.77
843.00,88.79
842.00,88.84
841.00,88.91
840.00,88.96
839.00,88.97
838.00,88.98
837.00,89.00
836.00,89.05
835.00,89.10
834.00,89.11
833.00,89.09
832.00,89.05
831.00,89.03
830.00,89.05
829.00,89.06
828.00,89.07
827.00,89.07
826.00,89.09
825.00,89.11
824.00,89.13
823.00,89.13
822.00,89.13
821.00,89.14
820.00,89.15
819.00,89.18
818.00,89.22
817.00,89.26
816.00,89.31
815.00,89.34
814.00,89.36
813.00,89.33
812.00,89.28
811.00,89.23
810.00,89.22
809.00,89.22
808.00,89.22
807.00,89.20
806.00,89.20
805.00,89.22
804.00,89.25
803.00,89.27
802.00,89.26
801.00,89.23
800.00,89.20
799.00,89.19
798.00,89.19
797.00,89.19
796.00,89.18
795.00,89.17
794.00,89.15
793.00,89.12
792.00,89.10
791.00,89.09
790.00,89.08
789.00,89.06
788.00,89.02
787.00,88.97
786.00,88.93
785.00,88.90
784.00,88.92
783.00,88.96
782.00,89.02
781.00,89.06
780.00,89.05
779.00,89.01
778.00,88.96
777.00,88.90
776.00,88.85
775.00,88.82
774.00,88.80
773.00,88.78
772.00,88.74
771.00,88.70
770.00,88.67
769.00,88.64
768.00,88.63
767.00,88.63
766.00,88.62
765.00,88.58
764.00,88.53
763.00,88.48
762.00,88.46
761.00,88.45
760.00,88.41
759.00,88.35
758.00,88.27
757.00,88.17
756.00,88.09
755.00,88.02
754.00,87.98
753.00,87.94
752.00,87.90
751.00,87.88
750.00,87.86
749.00,87.83
748.00,87.80
747.00,87.76
746.00,87.71
745.00,87.66
744.00,87.59
743.00,87.51
742.00,87.41
741.00,87.31
740.00,87.22
739.00,87.15
738.00,87.09
737.00,87.04
736.00,87.00
735.00,86.97
734.00,86.92
733.00,86.81
732.00,86.65
731.00,86.49
730.00,86.34
729.00,86.21
728.00,86.08
727.00,85.94
726.00,85.80
725.00,85.65
724.00,85.49
723.00,85.33
722.00,85.18
721.00,85.01
720.00,84.81
719.00,84.59
718.00,84.37
717.00,84.18
716.00,84.02
715.00,83.90
714.00,83.80
713.00,83.72
712.00,83.64
711.00,83.56
710.00,83.47
709.00,83.36
708.00,83.24
707.00,83.15
706.00,83.09
705.00,83.03
704.00,82.97
703.00,82.92
702.00,82.90
701.00,82.90
700.00,82.88
699.00,82.89
698.00,82.92
697.00,82.97
696.00,82.99
695.00,83.00
694.00,83.02
693.00,83.01
692.00,82.98
691.00,82.92
690.00,82.90
689.00,82.91
688.00,82.92
687.00,82.91
686.00,82.87
685.00,82.79
684.00,82.67
683.00,82.52
682.00,82.34
681.00,82.10
680.00,81.75
679.00,81.31
678.00,80.78
677.00,80.15
676.00,79.46
675.00,78.75
674.00,78.01
673.00,77.28
672.00,76.62
671.00,76.10
670.00,75.70
669.00,75.29
668.00,74.91
667.00,74.78
666.00,74.91
665.00,75.07
664.00,75.14
663.00,75.16
662.00,75.20
661.00,75.28
660.00,75.34
659.00,75.42
658.00,75.53
657.00,75.68
656.00,75.87
655.00,76.11
654.00,76.38
653.00,76.61
652.00,76.76
651.00,76.83
650.00,76.84
649.00,76.82
648.00,76.82
647.00,76.90
646.00,77.04
645.00,77.18
644.00,77.27
643.00,77.30
642.00,77.22
641.00,77.02
640.00,76.75
639.00,76.52
638.00,76.46
637.00,76.53
636.00,76.63
635.00,76.68
634.00,76.63
633.00,76.47
632.00,76.26
631.00,76.13
630.00,76.13
629.00,76.19
628.00,76.21
627.00,76.13
626.00,75.94
625.00,75.65
624.00,75.31
623.00,74.97
622.00,74.60
621.00,74.12
620.00,73.56
619.00,73.15
618.00,73.03
617.00,73.07
616.00,73.04
615.00,72.88
614.00,72.59
613.00,72.24
612.00,72.01
611.00,72.01
610.00,72.10
609.00,72.04
608.00,71.87
607.00,71.85
606.00,71.99
605.00,72.06
604.00,71.94
603.00,71.75
602.00,71.62
601.00,71.50
600.00,71.37
599.00,71.39
598.00,71.61
597.00,71.89
596.00,72.10
595.00,72.29
594.00,72.39
593.00,72.22
592.00,71.77
591.00,71.29
590.00,71.06
589.00,70.99
588.00,70.96
587.00,70.97
586.00,71.00
585.00,70.90
584.00,70.71
583.00,70.76
582.00,71.13
581.00,71.44
580.00,71.39
579.00,71.23
578.00,71.35
577.00,71.69
576.00,71.99
575.00,72.21
574.00,72.34
573.00,72.15
572.00,71.55
571.00,70.82
570.00,70.32
569.00,70.09
568.00,70.04
567.00,70.22
566.00,70.56
565.00,70.78
564.00,70.84
563.00,70.83
562.00,70.54
561.00,69.70
560.00,68.52
559.00,67.68
558.00,67.48
557.00,67.52
556.00,67.56
555.00,67.88
554.00,68.43
553.00,68.70
552.00,68.43
551.00,68.12
550.00,68.13
