Created as New Dataset,Natural Brown fiber
cm-1,%T
4000.00,99.59
3999.00,99.60
3998.00,99.61
3997.00,99.62
3996.00,99.61
3995.00,99.60
3994.00,99.60
3993.00,99.60
3992.00,99.60
3991.00,99.60
3990.00,99.60
3989.00,99.60
3988.00,99.59
3987.00,99.59
3986.00,99.58
3985.00,99.58
3984.00,99.58
3983.00,99.57
3982.00,99.56
3981.00,99.56
3980.00,99.55
3979.00,99.55
3978.00,99.55
3977.00,99.56
3976.00,99.56
3975.00,99.56
3974.00,99.58
3973.00,99.59
3972.00,99.61
3971.00,99.61
3970.00,99.60
3969.00,99.59
3968.00,99.58
3967.00,99.58
3966.00,99.58
3965.00,99.59
3964.00,99.59
3963.00,99.59
3962.00,99.58
3961.00,99.59
3960.00,99.59
3959.00,99.60
3958.00,99.62
3957.00,99.63
3956.00,99.63
3955.00,99.62
3954.00,99.61
3953.00,99.60
3952.00,99.59
3951.00,99.59
3950.00,99.60
3949.00,99.61
3948.00,99.61
3947.00,99.61
3946.00,99.60
3945.00,99.60
3944.00,99.61
3943.00,99.62
3942.00,99.62
3941.00,99.60
3940.00,99.59
3939.00,99.58
3938.00,99.58
3937.00,99.58
3936.00,99.58
3935.00,99.57
3934.00,99.56
3933.00,99.56
3932.00,99.58
3931.00,99.59
3930.00,99.60
3929.00,99.60
3928.00,99.59
3927.00,99.58
3926.00,99.57
3925.00,99.57
3924.00,99.57
3923.00,99.57
3922.00,99.56
3921.00,99.57
3920.00,99.57
3919.00,99.58
3918.00,99.57
3917.00,99.57
3916.00,99.58
3915.00,99.59
3914.00,99.60
3913.00,99.61
3912.00,99.61
3911.00,99.62
3910.00,99.62
3909.00,99.62
3908.00,99.61
3907.00,99.59
3906.00,99.56
3905.00,99.53
3904.00,99.51
3903.00,99.50
3902.00,99.51
3901.00,99.52
3900.00,99.54
3899.00,99.56
3898.00,99.58
3897.00,99.60
3896.00,99.61
3895.00,99.62
3894.00,99.62
3893.00,99.62
3892.00,99.61
3891.00,99.60
3890.00,99.59
3889.00,99.57
3888.00,99.56
3887.00,99.58
3886.00,99.61
3885.00,99.61
3884.00,99.60
3883.00,99.57
3882.00,99.56
3881.00,99.56
3880.00,99.56
3879.00,99.55
3878.00,99.54
3877.00,99.54
3876.00,99.55
3875.00,99.57
3874.00,99.59
3873.00,99.58
3872.00,99.57
3871.00,99.58
3870.00,99.59
3869.00,99.58
3868.00,99.56
3867.00,99.53
3866.00,99.52
3865.00,99.51
3864.00,99.51
3863.00,99.51
3862.00,99.52
3861.00,99.55
3860.00,99.58
3859.00,99.60
3858.00,99.61
3857.00,99.60
3856.00,99.60
3855.00,99.63
3854.00,99.68
3853.00,99.68
3852.00,99.65
3851.00,99.61
3850.00,99.58
3849.00,99.56
3848.00,99.56
3847.00,99.58
3846.00,99.60
3845.00,99.64
3844.00,99.67
3843.00,99.68
3842.00,99.67
3841.00,99.65
3840.00,99.63
3839.00,99.60
3838.00,99.57
3837.00,99.55
3836.00,99.53
3835.00,99.53
3834.00,99.54
3833.00,99.56
3832.00,99.57
3831.00,99.56
3830.00,99.55
3829.00,99.54
3828.00,99.55
3827.00,99.57
3826.00,99.58
3825.00,99.58
3824.00,99.57
3823.00,99.57
3822.00,99.58
3821.00,99.58
3820.00,99.56
3819.00,99.54
3818.00,99.52
3817.00,99.51
3816.00,99.51
3815.00,99.49
3814.00,99.49
3813.00,99.50
3812.00,99.52
3811.00,99.54
3810.00,99.55
3809.00,99.54
3808.00,99.53
3807.00,99.51
3806.00,99.49
3805.00,99.47
3804.00,99.47
3803.00,99.49
3802.00,99.50
3801.00,99.49
3800.00,99.47
3799.00,99.45
3798.00,99.45
3797.00,99.47
3796.00,99.50
3795.00,99.52
3794.00,99.53
3793.00,99.53
3792.00,99.53
3791.00,99.53
3790.00,99.52
3789.00,99.50
3788.00,99.49
3787.00,99.49
3786.00,99.49
3785.00,99.49
3784.00,99.49
3783.00,99.49
3782.00,99.49
3781.00,99.50
3780.00,99.52
3779.00,99.52
3778.00,99.50
3777.00,99.48
3776.00,99.48
3775.00,99.50
3774.00,99.52
3773.00,99.54
3772.00,99.56
3771.00,99.56
3770.00,99.55
3769.00,99.52
3768.00,99.49
3767.00,99.46
3766.00,99.45
3765.00,99.45
3764.00,99.45
3763.00,99.45
3762.00,99.45
3761.00,99.46
3760.00,99.46
3759.00,99.45
3758.00,99.45
3757.00,99.47
3756.00,99.49
3755.00,99.49
3754.00,99.50
3753.00,99.49
3752.00,99.48
3751.00,99.46
3750.00,99.44
3749.00,99.43
3748.00,99.40
3747.00,99.37
3746.00,99.36
3745.00,99.39
3744.00,99.41
3743.00,99.42
3742.00,99.44
3741.00,99.47
3740.00,99.50
3739.00,99.52
3738.00,99.53
3737.00,99.53
3736.00,99.52
3735.00,99.50
3734.00,99.47
3733.00,99.45
3732.00,99.45
3731.00,99.44
3730.00,99.43
3729.00,99.42
3728.00,99.41
3727.00,99.40
3726.00,99.40
3725.00,99.39
3724.00,99.39
3723.00,99.39
3722.00,99.40
3721.00,99.39
3720.00,99.38
3719.00,99.37
3718.00,99.36
3717.00,99.35
3716.00,99.35
3715.00,99.34
3714.00,99.34
3713.00,99.33
3712.00,99.31
3711.00,99.30
3710.00,99.31
3709.00,99.33
3708.00,99.35
3707.00,99.36
3706.00,99.36
3705.00,99.36
3704.00,99.37
3703.00,99.38
3702.00,99.39
3701.00,99.38
3700.00,99.37
3699.00,99.36
3698.00,99.37
3697.00,99.38
3696.00,99.38
3695.00,99.37
3694.00,99.35
3693.00,99.35
3692.00,99.37
3691.00,99.38
3690.00,99.38
3689.00,99.36
3688.00,99.33
3687.00,99.30
3686.00,99.28
3685.00,99.28
3684.00,99.30
3683.00,99.31
3682.00,99.32
3681.00,99.31
3680.00,99.31
3679.00,99.32
3678.00,99.35
3677.00,99.39
3676.00,99.41
3675.00,99.38
3674.00,99.32
3673.00,99.27
3672.00,99.24
3671.00,99.24
3670.00,99.23
3669.00,99.20
3668.00,99.17
3667.00,99.16
3666.00,99.16
3665.00,99.18
3664.00,99.19
3663.00,99.19
3662.00,99.19
3661.00,99.19
3660.00,99.18
3659.00,99.17
3658.00,99.17
3657.00,99.17
3656.00,99.16
3655.00,99.14
3654.00,99.11
3653.00,99.10
3652.00,99.09
3651.00,99.07
3650.00,99.04
3649.00,99.01
3648.00,98.99
3647.00,98.99
3646.00,98.97
3645.00,98.95
3644.00,98.93
3643.00,98.93
3642.00,98.94
3641.00,98.94
3640.00,98.94
3639.00,98.93
3638.00,98.93
3637.00,98.93
3636.00,98.93
3635.00,98.93
3634.00,98.92
3633.00,98.89
3632.00,98.85
3631.00,98.82
3630.00,98.81
3629.00,98.79
3628.00,98.76
3627.00,98.72
3626.00,98.70
3625.00,98.69
3624.00,98.68
3623.00,98.67
3622.00,98.66
3621.00,98.66
3620.00,98.65
3619.00,98.62
3618.00,98.58
3617.00,98.54
3616.00,98.51
3615.00,98.50
3614.00,98.49
3613.00,98.47
3612.00,98.43
3611.00,98.39
3610.00,98.37
3609.00,98.37
3608.00,98.37
3607.00,98.37
3606.00,98.36
3605.00,98.35
3604.00,98.33
3603.00,98.32
3602.00,98.30
3601.00,98.29
3600.00,98.28
3599.00,98.27
3598.00,98.25
3597.00,98.22
3596.00,98.20
3595.00,98.18
3594.00,98.15
3593.00,98.13
3592.00,98.11
3591.00,98.09
3590.00,98.08
3589.00,98.08
3588.00,98.05
3587.00,98.02
3586.00,97.98
3585.00,97.95
3584.00,97.93
3583.00,97.91
3582.00,97.89
3581.00,97.87
3580.00,97.85
3579.00,97.82
3578.00,97.78
3577.00,97.74
3576.00,97.70
3575.00,97.67
3574.00,97.66
3573.00,97.66
3572.00,97.66
3571.00,97.65
3570.00,97.64
3569.00,97.61
3568.00,97.56
3567.00,97.50
3566.00,97.45
3565.00,97.41
3564.00,97.39
3563.00,97.39
3562.00,97.38
3561.00,97.37
3560.00,97.36
3559.00,97.34
3558.00,97.32
3557.00,97.30
3556.00,97.28
3555.00,97.25
3554.00,97.23
3553.00,97.21
3552.00,97.18
3551.00,97.16
3550.00,97.13
3549.00,97.10
3548.00,97.07
3547.00,97.04
3546.00,97.01
3545.00,96.97
3544.00,96.95
3543.00,96.92
3542.00,96.89
3541.00,96.86
3540.00,96.83
3539.00,96.80
3538.00,96.78
3537.00,96.75
3536.00,96.73
3535.00,96.72
3534.00,96.70
3533.00,96.68
3532.00,96.63
3531.00,96.58
3530.00,96.52
3529.00,96.49
3528.00,96.47
3527.00,96.45
3526.00,96.42
3525.00,96.39
3524.00,96.36
3523.00,96.35
3522.00,96.34
3521.00,96.32
3520.00,96.30
3519.00,96.27
3518.00,96.24
3517.00,96.20
3516.00,96.17
3515.00,96.14
3514.00,96.12
3513.00,96.10
3512.00,96.07
3511.00,96.02
3510.00,95.98
3509.00,95.95
3508.00,95.93
3507.00,95.91
3506.00,95.89
3505.00,95.85
3504.00,95.81
3503.00,95.75
3502.00,95.70
3501.00,95.66
3500.00,95.63
3499.00,95.61
3498.00,95.59
3497.00,95.57
3496.00,95.54
3495.00,95.49
3494.00,95.45
3493.00,95.42
3492.00,95.40
3491.00,95.37
3490.00,95.34
3489.00,95.30
3488.00,95.24
3487.00,95.19
3486.00,95.14
3485.00,95.10
3484.00,95.07
3483.00,95.05
3482.00,95.03
3481.00,95.00
3480.00,94.96
3479.00,94.90
3478.00,94.85
3477.00,94.79
3476.00,94.74
3475.00,94.69
3474.00,94.66
3473.00,94.64
3472.00,94.62
3471.00,94.59
3470.00,94.55
3469.00,94.50
3468.00,94.43
3467.00,94.37
3466.00,94.31
3465.00,94.26
3464.00,94.22
3463.00,94.19
3462.00,94.17
3461.00,94.14
3460.00,94.11
3459.00,94.08
3458.00,94.04
3457.00,94.00
3456.00,93.95
3455.00,93.90
3454.00,93.84
3453.00,93.78
3452.00,93.73
3451.00,93.68
3450.00,93.64
3449.00,93.60
3448.00,93.57
3447.00,93.53
3446.00,93.49
3445.00,93.44
3444.00,93.39
3443.00,93.34
3442.00,93.29
3441.00,93.26
3440.00,93.22
3439.00,93.19
3438.00,93.15
3437.00,93.10
3436.00,93.04
3435.00,92.98
3434.00,92.93
3433.00,92.88
3432.00,92.84
3431.00,92.80
3430.00,92.77
3429.00,92.74
3428.00,92.70
3427.00,92.66
3426.00,92.60
3425.00,92.54
3424.00,92.48
3423.00,92.43
3422.00,92.39
3421.00,92.35
3420.00,92.30
3419.00,92.24
3418.00,92.18
3417.00,92.12
3416.00,92.07
3415.00,92.03
3414.00,91.99
3413.00,91.96
3412.00,91.92
3411.00,91.87
3410.00,91.81
3409.00,91.75
3408.00,91.70
3407.00,91.65
3406.00,91.61
3405.00,91.55
3404.00,91.50
3403.00,91.45
3402.00,91.41
3401.00,91.37
3400.00,91.34
3399.00,91.32
3398.00,91.29
3397.00,91.27
3396.00,91.23
3395.00,91.19
3394.00,91.14
3393.00,91.10
3392.00,91.06
3391.00,91.02
3390.00,90.99
3389.00,90.96
3388.00,90.93
3387.00,90.89
3386.00,90.85
3385.00,90.81
3384.00,90.77
3383.00,90.72
3382.00,90.66
3381.00,90.62
3380.00,90.59
3379.00,90.55
3378.00,90.52
3377.00,90.47
3376.00,90.42
3375.00,90.37
3374.00,90.33
3373.00,90.29
3372.00,90.24
3371.00,90.18
3370.00,90.13
3369.00,90.08
3368.00,90.03
3367.00,89.99
3366.00,89.93
3365.00,89.87
3364.00,89.81
3363.00,89.74
3362.00,89.67
3361.00,89.61
3360.00,89.56
3359.00,89.52
3358.00,89.47
3357.00,89.42
3356.00,89.36
3355.00,89.29
3354.00,89.23
3353.00,89.17
3352.00,89.11
3351.00,89.05
3350.00,88.99
3349.00,88.94
3348.00,88.89
3347.00,88.84
3346.00,88.78
3345.00,88.70
3344.00,88.63
3343.00,88.58
3342.00,88.54
3341.00,88.50
3340.00,88.46
3339.00,88.42
3338.00,88.39
3337.00,88.36
3336.00,88.35
3335.00,88.34
3334.00,88.32
3333.00,88.31
3332.00,88.31
3331.00,88.31
3330.00,88.32
3329.00,88.34
3328.00,88.36
3327.00,88.38
3326.00,88.40
3325.00,88.42
3324.00,88.44
3323.00,88.45
3322.00,88.46
3321.00,88.47
3320.00,88.48
3319.00,88.50
3318.00,88.53
3317.00,88.56
3316.00,88.59
3315.00,88.60
3314.00,88.61
3313.00,88.61
3312.00,88.60
3311.00,88.61
3310.00,88.62
3309.00,88.64
3308.00,88.65
3307.00,88.65
3306.00,88.65
3305.00,88.64
3304.00,88.64
3303.00,88.64
3302.00,88.63
3301.00,88.61
3300.00,88.59
3299.00,88.58
3298.00,88.56
3297.00,88.55
3296.00,88.55
3295.00,88.55
3294.00,88.56
3293.00,88.58
3292.00,88.59
3291.00,88.59
3290.00,88.58
3289.00,88.57
3288.00,88.56
3287.00,88.55
3286.00,88.56
3285.00,88.57
3284.00,88.58
3283.00,88.59
3282.00,88.60
3281.00,88.60
3280.00,88.61
3279.00,88.61
3278.00,88.62
3277.00,88.63
3276.00,88.65
3275.00,88.67
3274.00,88.69
3273.00,88.71
3272.00,88.73
3271.00,88.76
3270.00,88.80
3269.00,88.84
3268.00,88.88
3267.00,88.92
3266.00,88.97
3265.00,89.01
3264.00,89.06
3263.00,89.10
3262.00,89.15
3261.00,89.19
3260.00,89.23
3259.00,89.27
3258.00,89.30
3257.00,89.34
3256.00,89.38
3255.00,89.43
3254.00,89.49
3253.00,89.54
3252.00,89.60
3251.00,89.66
3250.00,89.72
3249.00,89.78
3248.00,89.84
3247.00,89.89
3246.00,89.95
3245.00,90.00
3244.00,90.05
3243.00,90.09
3242.00,90.13
3241.00,90.17
3240.00,90.20
3239.00,90.25
3238.00,90.29
3237.00,90.34
3236.00,90.39
3235.00,90.44
3234.00,90.49
3233.00,90.53
3232.00,90.56
3231.00,90.59
3230.00,90.63
3229.00,90.67
3228.00,90.71
3227.00,90.76
3226.00,90.82
3225.00,90.88
3224.00,90.92
3223.00,90.95
3222.00,90.98
3221.00,91.01
3220.00,91.04
3219.00,91.09
3218.00,91.14
3217.00,91.19
3216.00,91.23
3215.00,91.27
3214.00,91.31
3213.00,91.36
3212.00,91.40
3211.00,91.44
3210.00,91.48
3209.00,91.51
3208.00,91.56
3207.00,91.61
3206.00,91.66
3205.00,91.71
3204.00,91.75
3203.00,91.79
3202.00,91.83
3201.00,91.85
3200.00,91.88
3199.00,91.90
3198.00,91.92
3197.00,91.96
3196.00,92.01
3195.00,92.07
3194.00,92.13
3193.00,92.16
3192.00,92.19
3191.00,92.21
3190.00,92.24
3189.00,92.28
3188.00,92.32
3187.00,92.35
3186.00,92.38
3185.00,92.41
3184.00,92.43
3183.00,92.46
3182.00,92.50
3181.00,92.55
3180.00,92.60
3179.00,92.65
3178.00,92.70
3177.00,92.74
3176.00,92.78
3175.00,92.81
3174.00,92.84
3173.00,92.86
3172.00,92.89
3171.00,92.91
3170.00,92.92
3169.00,92.94
3168.00,92.97
3167.00,93.02
3166.00,93.06
3165.00,93.11
3164.00,93.14
3163.00,93.17
3162.00,93.21
3161.00,93.25
3160.00,93.28
3159.00,93.31
3158.00,93.33
3157.00,93.36
3156.00,93.39
3155.00,93.42
3154.00,93.47
3153.00,93.51
3152.00,93.54
3151.00,93.57
3150.00,93.59
3149.00,93.63
3148.00,93.66
3147.00,93.69
3146.00,93.72
3145.00,93.73
3144.00,93.75
3143.00,93.77
3142.00,93.80
3141.00,93.83
3140.00,93.86
3139.00,93.88
3138.00,93.89
3137.00,93.91
3136.00,93.92
3135.00,93.94
3134.00,93.97
3133.00,94.00
3132.00,94.04
3131.00,94.08
3130.00,94.12
3129.00,94.15
3128.00,94.18
3127.00,94.20
3126.00,94.22
3125.00,94.24
3124.00,94.26
3123.00,94.29
3122.00,94.32
3121.00,94.35
3120.00,94.37
3119.00,94.39
3118.00,94.40
3117.00,94.42
3116.00,94.45
3115.00,94.48
3114.00,94.50
3113.00,94.52
3112.00,94.53
3111.00,94.55
3110.00,94.56
3109.00,94.59
3108.00,94.61
3107.00,94.65
3106.00,94.69
3105.00,94.72
3104.00,94.75
3103.00,94.77
3102.00,94.78
3101.00,94.78
3100.00,94.78
3099.00,94.79
3098.00,94.82
3097.00,94.85
3096.00,94.90
3095.00,94.94
3094.00,94.97
3093.00,95.00
3092.00,95.01
3091.00,95.02
3090.00,95.03
3089.00,95.05
3088.00,95.07
3087.00,95.10
3086.00,95.12
3085.00,95.14
3084.00,95.16
3083.00,95.19
3082.00,95.22
3081.00,95.25
3080.00,95.28
3079.00,95.30
3078.00,95.32
3077.00,95.34
3076.00,95.36
3075.00,95.38
3074.00,95.39
3073.00,95.39
3072.00,95.40
3071.00,95.42
3070.00,95.45
3069.00,95.48
3068.00,95.50
3067.00,95.51
3066.00,95.51
3065.00,95.52
3064.00,95.53
3063.00,95.56
3062.00,95.58
3061.00,95.61
3060.00,95.63
3059.00,95.65
3058.00,95.66
3057.00,95.67
3056.00,95.68
3055.00,95.69
3054.00,95.72
3053.00,95.76
3052.00,95.78
3051.00,95.80
3050.00,95.82
3049.00,95.82
3048.00,95.84
3047.00,95.85
3046.00,95.87
3045.00,95.88
3044.00,95.89
3043.00,95.90
3042.00,95.91
3041.00,95.93
3040.00,95.95
3039.00,95.96
3038.00,95.97
3037.00,95.99
3036.00,96.01
3035.00,96.02
3034.00,96.04
3033.00,96.06
3032.00,96.09
3031.00,96.12
3030.00,96.15
3029.00,96.16
3028.00,96.17
3027.00,96.18
3026.00,96.19
3025.00,96.20
3024.00,96.21
3023.00,96.22
3022.00,96.22
3021.00,96.23
3020.00,96.24
3019.00,96.25
3018.00,96.26
3017.00,96.27
3016.00,96.29
3015.00,96.29
3014.00,96.30
3013.00,96.30
3012.00,96.31
3011.00,96.33
3010.00,96.35
3009.00,96.37
3008.00,96.38
3007.00,96.39
3006.00,96.40
3005.00,96.41
3004.00,96.43
3003.00,96.44
3002.00,96.45
3001.00,96.46
3000.00,96.46
2999.00,96.46
2998.00,96.45
2997.00,96.45
2996.00,96.46
2995.00,96.47
2994.00,96.49
2993.00,96.51
2992.00,96.50
2991.00,96.50
2990.00,96.49
2989.00,96.49
2988.00,96.50
2987.00,96.50
2986.00,96.51
2985.00,96.51
2984.00,96.51
2983.00,96.50
2982.00,96.48
2981.00,96.46
2980.00,96.44
2979.00,96.43
2978.00,96.41
2977.00,96.40
2976.00,96.37
2975.00,96.34
2974.00,96.29
2973.00,96.24
2972.00,96.20
2971.00,96.16
2970.00,96.12
2969.00,96.09
2968.00,96.07
2967.00,96.06
2966.00,96.05
2965.00,96.05
2964.00,96.05
2963.00,96.05
2962.00,96.05
2961.00,96.03
2960.00,96.01
2959.00,95.99
2958.00,95.97
2957.00,95.95
2956.00,95.91
2955.00,95.88
2954.00,95.84
2953.00,95.80
2952.00,95.75
2951.00,95.71
2950.00,95.67
2949.00,95.64
2948.00,95.60
2947.00,95.57
2946.00,95.53
2945.00,95.48
2944.00,95.44
2943.00,95.42
2942.00,95.41
2941.00,95.40
2940.00,95.40
2939.00,95.38
2938.00,95.37
2937.00,95.35
2936.00,95.33
2935.00,95.33
2934.00,95.31
2933.00,95.29
2932.00,95.24
2931.00,95.20
2930.00,95.15
2929.00,95.10
2928.00,95.04
2927.00,94.97
2926.00,94.89
2925.00,94.81
2924.00,94.71
2923.00,94.62
2922.00,94.52
2921.00,94.44
2920.00,94.36
2919.00,94.29
2918.00,94.23
2917.00,94.20
2916.00,94.20
2915.00,94.20
2914.00,94.20
2913.00,94.20
2912.00,94.20
2911.00,94.18
2910.00,94.16
2909.00,94.14
2908.00,94.12
2907.00,94.10
2906.00,94.09
2905.00,94.07
2904.00,94.05
2903.00,94.03
2902.00,94.01
2901.00,94.00
2900.00,93.99
2899.00,94.00
2898.00,94.02
2897.00,94.04
2896.00,94.06
2895.00,94.09
2894.00,94.11
2893.00,94.12
2892.00,94.13
2891.00,94.15
2890.00,94.17
2889.00,94.21
2888.00,94.24
2887.00,94.28
2886.00,94.31
2885.00,94.33
2884.00,94.35
2883.00,94.37
2882.00,94.39
2881.00,94.41
2880.00,94.43
2879.00,94.45
2878.00,94.47
2877.00,94.49
2876.00,94.51
2875.00,94.53
2874.00,94.55
2873.00,94.57
2872.00,94.58
2871.00,94.60
2870.00,94.61
2869.00,94.63
2868.00,94.66
2867.00,94.68
2866.00,94.71
2865.00,94.72
2864.00,94.73
2863.00,94.73
2862.00,94.74
2861.00,94.76
2860.00,94.78
2859.00,94.80
2858.00,94.81
2857.00,94.81
2856.00,94.81
2855.00,94.80
2854.00,94.78
2853.00,94.77
2852.00,94.75
2851.00,94.74
2850.00,94.76
2849.00,94.80
2848.00,94.88
2847.00,94.98
2846.00,95.08
2845.00,95.18
2844.00,95.27
2843.00,95.36
2842.00,95.44
2841.00,95.50
2840.00,95.54
2839.00,95.58
2838.00,95.62
2837.00,95.66
2836.00,95.70
2835.00,95.74
2834.00,95.78
2833.00,95.81
2832.00,95.84
2831.00,95.87
2830.00,95.88
2829.00,95.90
2828.00,95.92
2827.00,95.95
2826.00,95.98
2825.00,96.00
2824.00,96.02
2823.00,96.04
2822.00,96.06
2821.00,96.08
2820.00,96.09
2819.00,96.11
2818.00,96.13
2817.00,96.15
2816.00,96.17
2815.00,96.19
2814.00,96.22
2813.00,96.24
2812.00,96.26
2811.00,96.27
2810.00,96.28
2809.00,96.29
2808.00,96.31
2807.00,96.33
2806.00,96.35
2805.00,96.36
2804.00,96.38
2803.00,96.39
2802.00,96.41
2801.00,96.43
2800.00,96.44
2799.00,96.45
2798.00,96.46
2797.00,96.46
2796.00,96.46
2795.00,96.48
2794.00,96.50
2793.00,96.51
2792.00,96.52
2791.00,96.52
2790.00,96.52
2789.00,96.52
2788.00,96.53
2787.00,96.54
2786.00,96.56
2785.00,96.58
2784.00,96.60
2783.00,96.61
2782.00,96.61
2781.00,96.61
2780.00,96.59
2779.00,96.59
2778.00,96.59
2777.00,96.60
2776.00,96.62
2775.00,96.63
2774.00,96.64
2773.00,96.63
2772.00,96.63
2771.00,96.63
2770.00,96.65
2769.00,96.67
2768.00,96.68
2767.00,96.69
2766.00,96.69
2765.00,96.70
2764.00,96.70
2763.00,96.70
2762.00,96.70
2761.00,96.71
2760.00,96.71
2759.00,96.72
2758.00,96.73
2757.00,96.74
2756.00,96.74
2755.00,96.74
2754.00,96.74
2753.00,96.73
2752.00,96.72
2751.00,96.72
2750.00,96.73
2749.00,96.74
2748.00,96.75
2747.00,96.75
2746.00,96.75
2745.00,96.75
2744.00,96.75
2743.00,96.74
2742.00,96.74
2741.00,96.74
2740.00,96.73
2739.00,96.74
2738.00,96.74
2737.00,96.75
2736.00,96.75
2735.00,96.75
2734.00,96.76
2733.00,96.76
2732.00,96.77
2731.00,96.77
2730.00,96.78
2729.00,96.78
2728.00,96.79
2727.00,96.79
2726.00,96.79
2725.00,96.79
2724.00,96.80
2723.00,96.81
2722.00,96.82
2721.00,96.83
2720.00,96.83
2719.00,96.83
2718.00,96.84
2717.00,96.84
2716.00,96.84
2715.00,96.83
2714.00,96.82
2713.00,96.82
2712.00,96.83
2711.00,96.85
2710.00,96.87
2709.00,96.89
2708.00,96.91
2707.00,96.92
2706.00,96.92
2705.00,96.92
2704.00,96.92
2703.00,96.93
2702.00,96.94
2701.00,96.95
2700.00,96.94
2699.00,96.94
2698.00,96.94
2697.00,96.94
2696.00,96.94
2695.00,96.95
2694.00,96.95
2693.00,96.96
2692.00,96.97
2691.00,96.97
2690.00,96.98
2689.00,96.98
2688.00,96.98
2687.00,96.98
2686.00,96.97
2685.00,96.97
2684.00,96.97
2683.00,96.98
2682.00,96.99
2681.00,97.00
2680.00,97.00
2679.00,97.01
2678.00,97.01
2677.00,97.01
2676.00,97.01
2675.00,97.01
2674.00,97.03
2673.00,97.05
2672.00,97.06
2671.00,97.07
2670.00,97.08
2669.00,97.08
2668.00,97.07
2667.00,97.06
2666.00,97.05
2665.00,97.06
2664.00,97.07
2663.00,97.07
2662.00,97.07
2661.00,97.06
2660.00,97.05
2659.00,97.03
2658.00,97.02
2657.00,97.02
2656.00,97.02
2655.00,97.02
2654.00,97.02
2653.00,97.02
2652.00,97.02
2651.00,97.02
2650.00,97.02
2649.00,97.02
2648.00,97.01
2647.00,97.00
2646.00,96.99
2645.00,96.98
2644.00,96.97
2643.00,96.96
2642.00,96.95
2641.00,96.93
2640.00,96.93
2639.00,96.92
2638.00,96.92
2637.00,96.92
2636.00,96.92
2635.00,96.93
2634.00,96.93
2633.00,96.93
2632.00,96.92
2631.00,96.91
2630.00,96.90
2629.00,96.90
2628.00,96.90
2627.00,96.90
2626.00,96.90
2625.00,96.89
2624.00,96.89
2623.00,96.89
2622.00,96.90
2621.00,96.91
2620.00,96.92
2619.00,96.93
2618.00,96.93
2617.00,96.93
2616.00,96.92
2615.00,96.91
2614.00,96.90
2613.00,96.90
2612.00,96.90
2611.00,96.91
2610.00,96.91
2609.00,96.91
2608.00,96.90
2607.00,96.90
2606.00,96.90
2605.00,96.89
2604.00,96.89
2603.00,96.88
2602.00,96.88
2601.00,96.89
2600.00,96.89
2599.00,96.89
2598.00,96.88
2597.00,96.87
2596.00,96.87
2595.00,96.87
2594.00,96.87
2593.00,96.86
2592.00,96.86
2591.00,96.86
2590.00,96.86
2589.00,96.86
2588.00,96.85
2587.00,96.84
2586.00,96.83
2585.00,96.81
2584.00,96.81
2583.00,96.80
2582.00,96.81
2581.00,96.82
2580.00,96.83
2579.00,96.85
2578.00,96.85
2577.00,96.85
2576.00,96.83
2575.00,96.81
2574.00,96.80
2573.00,96.80
2572.00,96.81
2571.00,96.81
2570.00,96.81
2569.00,96.80
2568.00,96.79
2567.00,96.79
2566.00,96.79
2565.00,96.79
2564.00,96.78
2563.00,96.78
2562.00,96.78
2561.00,96.79
2560.00,96.80
2559.00,96.82
2558.00,96.82
2557.00,96.81
2556.00,96.80
2555.00,96.79
2554.00,96.79
2553.00,96.80
2552.00,96.80
2551.00,96.80
2550.00,96.80
2549.00,96.80
2548.00,96.79
2547.00,96.79
2546.00,96.78
2545.00,96.79
2544.00,96.79
2543.00,96.80
2542.00,96.79
2541.00,96.79
2540.00,96.78
2539.00,96.78
2538.00,96.79
2537.00,96.79
2536.00,96.79
2535.00,96.78
2534.00,96.76
2533.00,96.73
2532.00,96.72
2531.00,96.71
2530.00,96.73
2529.00,96.75
2528.00,96.77
2527.00,96.79
2526.00,96.80
2525.00,96.80
2524.00,96.80
2523.00,96.80
2522.00,96.81
2521.00,96.82
2520.00,96.82
2519.00,96.80
2518.00,96.79
2517.00,96.79
2516.00,96.79
2515.00,96.79
2514.00,96.79
2513.00,96.80
2512.00,96.80
2511.00,96.81
2510.00,96.82
2509.00,96.83
2508.00,96.83
2507.00,96.83
2506.00,96.83
2505.00,96.84
2504.00,96.86
2503.00,96.88
2502.00,96.89
2501.00,96.89
2500.00,96.89
2499.00,96.89
2498.00,96.89
2497.00,96.90
2496.00,96.91
2495.00,96.92
2494.00,96.93
2493.00,96.92
2492.00,96.92
2491.00,96.93
2490.00,96.93
2489.00,96.94
2488.00,96.93
2487.00,96.93
2486.00,96.93
2485.00,96.93
2484.00,96.92
2483.00,96.92
2482.00,96.92
2481.00,96.93
2480.00,96.94
2479.00,96.95
2478.00,96.95
2477.00,96.95
2476.00,96.95
2475.00,96.95
2474.00,96.95
2473.00,96.95
2472.00,96.95
2471.00,96.93
2470.00,96.92
2469.00,96.92
2468.00,96.94
2467.00,96.97
2466.00,96.99
2465.00,97.01
2464.00,97.02
2463.00,97.03
2462.00,97.03
2461.00,97.01
2460.00,96.99
2459.00,96.97
2458.00,96.96
2457.00,96.94
2456.00,96.93
2455.00,96.93
2454.00,96.94
2453.00,96.96
2452.00,96.97
2451.00,96.97
2450.00,96.97
2449.00,96.97
2448.00,96.97
2447.00,96.99
2446.00,97.01
2445.00,97.02
2444.00,97.01
2443.00,97.00
2442.00,96.99
2441.00,96.99
2440.00,97.00
2439.00,97.01
2438.00,97.02
2437.00,97.02
2436.00,97.03
2435.00,97.04
2434.00,97.05
2433.00,97.06
2432.00,97.07
2431.00,97.07
2430.00,97.09
2429.00,97.10
2428.00,97.11
2427.00,97.11
2426.00,97.11
2425.00,97.11
2424.00,97.10
2423.00,97.10
2422.00,97.10
2421.00,97.11
2420.00,97.11
2419.00,97.11
2418.00,97.11
2417.00,97.10
2416.00,97.10
2415.00,97.10
2414.00,97.11
2413.00,97.11
2412.00,97.11
2411.00,97.12
2410.00,97.14
2409.00,97.16
2408.00,97.18
2407.00,97.19
2406.00,97.19
2405.00,97.19
2404.00,97.18
2403.00,97.19
2402.00,97.20
2401.00,97.23
2400.00,97.26
2399.00,97.29
2398.00,97.30
2397.00,97.30
2396.00,97.30
2395.00,97.29
2394.00,97.29
2393.00,97.30
2392.00,97.31
2391.00,97.32
2390.00,97.33
2389.00,97.34
2388.00,97.34
2387.00,97.35
2386.00,97.37
2385.00,97.39
2384.00,97.41
2383.00,97.43
2382.00,97.45
2381.00,97.47
2380.00,97.49
2379.00,97.51
2378.00,97.54
2377.00,97.56
2376.00,97.57
2375.00,97.57
2374.00,97.56
2373.00,97.56
2372.00,97.55
2371.00,97.54
2370.00,97.54
2369.00,97.55
2368.00,97.57
2367.00,97.59
2366.00,97.59
2365.00,97.59
2364.00,97.58
2363.00,97.59
2362.00,97.60
2361.00,97.62
2360.00,97.64
2359.00,97.65
2358.00,97.64
2357.00,97.63
2356.00,97.61
2355.00,97.62
2354.00,97.63
2353.00,97.64
2352.00,97.64
2351.00,97.64
2350.00,97.65
2349.00,97.68
2348.00,97.72
2347.00,97.74
2346.00,97.74
2345.00,97.73
2344.00,97.71
2343.00,97.70
2342.00,97.67
2341.00,97.64
2340.00,97.62
2339.00,97.60
2338.00,97.59
2337.00,97.59
2336.00,97.59
2335.00,97.59
2334.00,97.60
2333.00,97.61
2332.00,97.61
2331.00,97.61
2330.00,97.60
2329.00,97.58
2328.00,97.54
2327.00,97.50
2326.00,97.48
2325.00,97.47
2324.00,97.47
2323.00,97.47
2322.00,97.46
2321.00,97.45
2320.00,97.43
2319.00,97.42
2318.00,97.39
2317.00,97.38
2316.00,97.36
2315.00,97.33
2314.00,97.31
2313.00,97.30
2312.00,97.30
2311.00,97.30
2310.00,97.31
2309.00,97.32
2308.00,97.31
2307.00,97.30
2306.00,97.28
2305.00,97.26
2304.00,97.26
2303.00,97.25
2302.00,97.23
2301.00,97.21
2300.00,97.18
2299.00,97.16
2298.00,97.14
2297.00,97.13
2296.00,97.11
2295.00,97.09
2294.00,97.06
2293.00,97.04
2292.00,97.02
2291.00,97.00
2290.00,96.97
2289.00,96.94
2288.00,96.90
2287.00,96.88
2286.00,96.87
2285.00,96.85
2284.00,96.83
2283.00,96.80
2282.00,96.78
2281.00,96.76
2280.00,96.73
2279.00,96.71
2278.00,96.70
2277.00,96.70
2276.00,96.72
2275.00,96.73
2274.00,96.72
2273.00,96.69
2272.00,96.65
2271.00,96.62
2270.00,96.61
2269.00,96.59
2268.00,96.59
2267.00,96.58
2266.00,96.59
2265.00,96.59
2264.00,96.58
2263.00,96.57
2262.00,96.55
2261.00,96.53
2260.00,96.50
2259.00,96.47
2258.00,96.45
2257.00,96.45
2256.00,96.46
2255.00,96.45
2254.00,96.44
2253.00,96.42
2252.00,96.41
2251.00,96.40
2250.00,96.38
2249.00,96.37
2248.00,96.36
2247.00,96.35
2246.00,96.33
2245.00,96.31
2244.00,96.29
2243.00,96.28
2242.00,96.27
2241.00,96.26
2240.00,96.25
2239.00,96.26
2238.00,96.25
2237.00,96.22
2236.00,96.19
2235.00,96.15
2234.00,96.14
2233.00,96.14
2232.00,96.14
2231.00,96.13
2230.00,96.12
2229.00,96.11
2228.00,96.11
2227.00,96.10
2226.00,96.10
2225.00,96.11
2224.00,96.12
2223.00,96.11
2222.00,96.08
2221.00,96.03
2220.00,95.99
2219.00,95.99
2218.00,96.02
2217.00,96.06
2216.00,96.09
2215.00,96.08
2214.00,96.05
2213.00,96.01
2212.00,96.00
2211.00,96.01
2210.00,96.01
2209.00,95.97
2208.00,95.92
2207.00,95.86
2206.00,95.81
2205.00,95.76
2204.00,95.73
2203.00,95.72
2202.00,95.74
2201.00,95.78
2200.00,95.79
2199.00,95.76
2198.00,95.72
2197.00,95.68
2196.00,95.68
2195.00,95.68
2194.00,95.69
2193.00,95.69
2192.00,95.69
2191.00,95.70
2190.00,95.70
2189.00,95.68
2188.00,95.65
2187.00,95.60
2186.00,95.55
2185.00,95.51
2184.00,95.48
2183.00,95.49
2182.00,95.53
2181.00,95.56
2180.00,95.56
2179.00,95.54
2178.00,95.50
2177.00,95.48
2176.00,95.48
2175.00,95.48
2174.00,95.48
2173.00,95.45
2172.00,95.41
2171.00,95.36
2170.00,95.31
2169.00,95.27
2168.00,95.22
2167.00,95.17
2166.00,95.09
2165.00,95.00
2164.00,94.90
2163.00,94.79
2162.00,94.73
2161.00,94.73
2160.00,94.81
2159.00,94.97
2158.00,95.15
2157.00,95.30
2156.00,95.42
2155.00,95.52
2154.00,95.60
2153.00,95.66
2152.00,95.69
2151.00,95.70
2150.00,95.71
2149.00,95.71
2148.00,95.70
2147.00,95.70
2146.00,95.73
2145.00,95.78
2144.00,95.85
2143.00,95.91
2142.00,95.95
2141.00,95.97
2140.00,96.00
2139.00,96.03
2138.00,96.08
2137.00,96.13
2136.00,96.17
2135.00,96.20
2134.00,96.23
2133.00,96.26
2132.00,96.30
2131.00,96.34
2130.00,96.39
2129.00,96.45
2128.00,96.49
2127.00,96.52
2126.00,96.53
2125.00,96.54
2124.00,96.55
2123.00,96.56
2122.00,96.54
2121.00,96.50
2120.00,96.47
2119.00,96.46
2118.00,96.47
2117.00,96.48
2116.00,96.48
2115.00,96.49
2114.00,96.50
2113.00,96.51
2112.00,96.49
2111.00,96.47
2110.00,96.45
2109.00,96.45
2108.00,96.48
2107.00,96.50
2106.00,96.50
2105.00,96.47
2104.00,96.43
2103.00,96.40
2102.00,96.39
2101.00,96.40
2100.00,96.41
2099.00,96.43
2098.00,96.43
2097.00,96.44
2096.00,96.45
2095.00,96.48
2094.00,96.50
2093.00,96.51
2092.00,96.50
2091.00,96.48
2090.00,96.47
2089.00,96.47
2088.00,96.47
2087.00,96.47
2086.00,96.46
2085.00,96.44
2084.00,96.42
2083.00,96.39
2082.00,96.35
2081.00,96.33
2080.00,96.31
2079.00,96.29
2078.00,96.28
2077.00,96.28
2076.00,96.31
2075.00,96.34
2074.00,96.35
2073.00,96.32
2072.00,96.27
2071.00,96.25
2070.00,96.24
2069.00,96.24
2068.00,96.25
2067.00,96.26
2066.00,96.27
2065.00,96.26
2064.00,96.25
2063.00,96.26
2062.00,96.28
2061.00,96.29
2060.00,96.27
2059.00,96.22
2058.00,96.17
2057.00,96.14
2056.00,96.14
2055.00,96.15
2054.00,96.12
2053.00,96.07
2052.00,95.99
2051.00,95.92
2050.00,95.87
2049.00,95.85
2048.00,95.82
2047.00,95.78
2046.00,95.74
2045.00,95.71
2044.00,95.70
2043.00,95.67
2042.00,95.62
2041.00,95.56
2040.00,95.49
2039.00,95.43
2038.00,95.40
2037.00,95.40
2036.00,95.41
2035.00,95.43
2034.00,95.44
2033.00,95.43
2032.00,95.43
2031.00,95.42
2030.00,95.41
2029.00,95.40
2028.00,95.40
2027.00,95.42
2026.00,95.46
2025.00,95.49
2024.00,95.51
2023.00,95.51
2022.00,95.52
2021.00,95.55
2020.00,95.60
2019.00,95.66
2018.00,95.70
2017.00,95.70
2016.00,95.66
2015.00,95.62
2014.00,95.60
2013.00,95.60
2012.00,95.61
2011.00,95.61
2010.00,95.61
2009.00,95.61
2008.00,95.64
2007.00,95.69
2006.00,95.76
2005.00,95.82
2004.00,95.88
2003.00,95.92
2002.00,95.94
2001.00,95.94
2000.00,95.93
1999.00,95.92
1998.00,95.92
1997.00,95.94
1996.00,95.97
1995.00,95.97
1994.00,95.97
1993.00,95.95
1992.00,95.94
1991.00,95.95
1990.00,95.96
1989.00,95.98
1988.00,95.98
1987.00,95.96
1986.00,95.90
1985.00,95.82
1984.00,95.76
1983.00,95.72
1982.00,95.66
1981.00,95.59
1980.00,95.53
1979.00,95.52
1978.00,95.59
1977.00,95.68
1976.00,95.77
1975.00,95.81
1974.00,95.80
1973.00,95.78
1972.00,95.77
1971.00,95.80
1970.00,95.85
1969.00,95.89
1968.00,95.91
1967.00,95.91
1966.00,95.93
1965.00,95.96
1964.00,96.01
1963.00,96.07
1962.00,96.13
1961.00,96.19
1960.00,96.23
1959.00,96.25
1958.00,96.25
1957.00,96.25
1956.00,96.27
1955.00,96.32
1954.00,96.38
1953.00,96.42
1952.00,96.43
1951.00,96.41
1950.00,96.39
1949.00,96.39
1948.00,96.40
1947.00,96.42
1946.00,96.44
1945.00,96.47
1944.00,96.50
1943.00,96.56
1942.00,96.62
1941.00,96.66
1940.00,96.67
1939.00,96.66
1938.00,96.64
1937.00,96.62
1936.00,96.62
1935.00,96.65
1934.00,96.69
1933.00,96.73
1932.00,96.75
1931.00,96.76
1930.00,96.78
1929.00,96.81
1928.00,96.86
1927.00,96.92
1926.00,96.95
1925.00,96.96
1924.00,96.95
1923.00,96.93
1922.00,96.93
1921.00,96.94
1920.00,96.94
1919.00,96.95
1918.00,96.95
1917.00,96.96
1916.00,96.96
1915.00,96.96
1914.00,96.98
1913.00,96.99
1912.00,97.00
1911.00,97.00
1910.00,97.01
1909.00,97.02
1908.00,97.04
1907.00,97.07
1906.00,97.09
1905.00,97.11
1904.00,97.11
1903.00,97.12
1902.00,97.14
1901.00,97.16
1900.00,97.18
1899.00,97.18
1898.00,97.17
1897.00,97.15
1896.00,97.15
1895.00,97.16
1894.00,97.17
1893.00,97.18
1892.00,97.20
1891.00,97.22
1890.00,97.23
1889.00,97.23
1888.00,97.23
1887.00,97.23
1886.00,97.24
1885.00,97.25
1884.00,97.26
1883.00,97.26
1882.00,97.27
1881.00,97.26
1880.00,97.26
1879.00,97.26
1878.00,97.27
1877.00,97.29
1876.00,97.32
1875.00,97.33
1874.00,97.34
1873.00,97.33
1872.00,97.32
1871.00,97.31
1870.00,97.32
1869.00,97.33
1868.00,97.34
1867.00,97.35
1866.00,97.36
1865.00,97.36
1864.00,97.36
1863.00,97.36
1862.00,97.36
1861.00,97.36
1860.00,97.36
1859.00,97.37
1858.00,97.39
1857.00,97.40
1856.00,97.40
1855.00,97.39
1854.00,97.39
1853.00,97.39
1852.00,97.40
1851.00,97.41
1850.00,97.41
1849.00,97.42
1848.00,97.43
1847.00,97.44
1846.00,97.44
1845.00,97.44
1844.00,97.44
1843.00,97.45
1842.00,97.47
1841.00,97.49
1840.00,97.51
1839.00,97.52
1838.00,97.53
1837.00,97.52
1836.00,97.51
1835.00,97.50
1834.00,97.50
1833.00,97.51
1832.00,97.51
1831.00,97.52
1830.00,97.53
1829.00,97.53
1828.00,97.52
1827.00,97.53
1826.00,97.54
1825.00,97.56
1824.00,97.57
1823.00,97.57
1822.00,97.56
1821.00,97.57
1820.00,97.58
1819.00,97.60
1818.00,97.63
1817.00,97.65
1816.00,97.65
1815.00,97.64
1814.00,97.63
1813.00,97.63
1812.00,97.64
1811.00,97.65
1810.00,97.65
1809.00,97.64
1808.00,97.63
1807.00,97.62
1806.00,97.62
1805.00,97.62
1804.00,97.61
1803.00,97.61
1802.00,97.62
1801.00,97.64
1800.00,97.64
1799.00,97.63
1798.00,97.62
1797.00,97.61
1796.00,97.60
1795.00,97.60
1794.00,97.61
1793.00,97.60
1792.00,97.60
1791.00,97.59
1790.00,97.59
1789.00,97.59
1788.00,97.58
1787.00,97.57
1786.00,97.57
1785.00,97.57
1784.00,97.58
1783.00,97.59
1782.00,97.60
1781.00,97.60
1780.00,97.60
1779.00,97.60
1778.00,97.60
1777.00,97.60
1776.00,97.59
1775.00,97.58
1774.00,97.57
1773.00,97.56
1772.00,97.54
1771.00,97.52
1770.00,97.51
1769.00,97.51
1768.00,97.50
1767.00,97.49
1766.00,97.48
1765.00,97.47
1764.00,97.46
1763.00,97.45
1762.00,97.44
1761.00,97.42
1760.00,97.40
1759.00,97.39
1758.00,97.38
1757.00,97.36
1756.00,97.35
1755.00,97.33
1754.00,97.31
1753.00,97.29
1752.00,97.27
1751.00,97.24
1750.00,97.22
1749.00,97.21
1748.00,97.19
1747.00,97.17
1746.00,97.16
1745.00,97.14
1744.00,97.13
1743.00,97.11
1742.00,97.10
1741.00,97.08
1740.00,97.06
1739.00,97.03
1738.00,97.01
1737.00,96.98
1736.00,96.96
1735.00,96.94
1734.00,96.92
1733.00,96.89
1732.00,96.88
1731.00,96.87
1730.00,96.87
1729.00,96.87
1728.00,96.87
1727.00,96.88
1726.00,96.87
1725.00,96.85
1724.00,96.83
1723.00,96.81
1722.00,96.79
1721.00,96.78
1720.00,96.76
1719.00,96.76
1718.00,96.75
1717.00,96.73
1716.00,96.70
1715.00,96.69
1714.00,96.69
1713.00,96.70
1712.00,96.72
1711.00,96.72
1710.00,96.71
1709.00,96.70
1708.00,96.69
1707.00,96.69
1706.00,96.70
1705.00,96.68
1704.00,96.66
1703.00,96.63
1702.00,96.62
1701.00,96.62
1700.00,96.59
1699.00,96.57
1698.00,96.55
1697.00,96.54
1696.00,96.52
1695.00,96.51
1694.00,96.50
1693.00,96.50
1692.00,96.48
1691.00,96.46
1690.00,96.42
1689.00,96.38
1688.00,96.34
1687.00,96.30
1686.00,96.27
1685.00,96.23
1684.00,96.16
1683.00,96.10
1682.00,96.08
1681.00,96.06
1680.00,96.04
1679.00,96.02
1678.00,96.00
1677.00,95.96
1676.00,95.92
1675.00,95.86
1674.00,95.82
1673.00,95.79
1672.00,95.76
1671.00,95.72
1670.00,95.67
1669.00,95.59
1668.00,95.52
1667.00,95.47
1666.00,95.43
1665.00,95.41
1664.00,95.37
1663.00,95.31
1662.00,95.25
1661.00,95.19
1660.00,95.14
1659.00,95.09
1658.00,95.06
1657.00,95.01
1656.00,94.95
1655.00,94.90
1654.00,94.85
1653.00,94.75
1652.00,94.68
1651.00,94.68
1650.00,94.68
1649.00,94.66
1648.00,94.60
1647.00,94.51
1646.00,94.43
1645.00,94.40
1644.00,94.38
1643.00,94.37
1642.00,94.35
1641.00,94.32
1640.00,94.29
1639.00,94.27
1638.00,94.25
1637.00,94.21
1636.00,94.15
1635.00,94.08
1634.00,94.03
1633.00,94.01
1632.00,93.99
1631.00,93.97
1630.00,93.95
1629.00,93.94
1628.00,93.91
1627.00,93.88
1626.00,93.85
1625.00,93.84
1624.00,93.83
1623.00,93.81
1622.00,93.79
1621.00,93.78
1620.00,93.77
1619.00,93.76
1618.00,93.76
1617.00,93.76
1616.00,93.75
1615.00,93.74
1614.00,93.74
1613.00,93.74
1612.00,93.75
1611.00,93.76
1610.00,93.78
1609.00,93.80
1608.00,93.82
1607.00,93.85
1606.00,93.88
1605.00,93.90
1604.00,93.93
1603.00,93.96
1602.00,94.00
1601.00,94.04
1600.00,94.08
1599.00,94.14
1598.00,94.19
1597.00,94.25
1596.00,94.31
1595.00,94.37
1594.00,94.42
1593.00,94.48
1592.00,94.54
1591.00,94.60
1590.00,94.66
1589.00,94.71
1588.00,94.76
1587.00,94.80
1586.00,94.85
1585.00,94.90
1584.00,94.94
1583.00,94.99
1582.00,95.04
1581.00,95.10
1580.00,95.15
1579.00,95.20
1578.00,95.24
1577.00,95.28
1576.00,95.32
1575.00,95.36
1574.00,95.40
1573.00,95.44
1572.00,95.48
1571.00,95.52
1570.00,95.57
1569.00,95.61
1568.00,95.64
1567.00,95.67
1566.00,95.69
1565.00,95.72
1564.00,95.74
1563.00,95.74
1562.00,95.75
1561.00,95.77
1560.00,95.84
1559.00,95.88
1558.00,95.89
1557.00,95.90
1556.00,95.90
1555.00,95.90
1554.00,95.90
1553.00,95.90
1552.00,95.91
1551.00,95.93
1550.00,95.95
1549.00,95.97
1548.00,95.98
1547.00,95.98
1546.00,95.98
1545.00,95.99
1544.00,96.01
1543.00,96.04
1542.00,96.06
1541.00,96.08
1540.00,96.07
1539.00,96.06
1538.00,96.08
1537.00,96.11
1536.00,96.14
1535.00,96.16
1534.00,96.18
1533.00,96.18
1532.00,96.18
1531.00,96.20
1530.00,96.21
1529.00,96.22
1528.00,96.22
1527.00,96.23
1526.00,96.26
1525.00,96.28
1524.00,96.29
1523.00,96.29
1522.00,96.28
1521.00,96.28
1520.00,96.30
1519.00,96.32
1518.00,96.34
1517.00,96.35
1516.00,96.36
1515.00,96.37
1514.00,96.38
1513.00,96.39
1512.00,96.40
1511.00,96.40
1510.00,96.40
1509.00,96.41
1508.00,96.43
1507.00,96.45
1506.00,96.46
1505.00,96.47
1504.00,96.48
1503.00,96.49
1502.00,96.50
1501.00,96.51
1500.00,96.51
1499.00,96.51
1498.00,96.51
1497.00,96.50
1496.00,96.48
1495.00,96.46
1494.00,96.46
1493.00,96.45
1492.00,96.42
1491.00,96.38
1490.00,96.33
1489.00,96.27
1488.00,96.21
1487.00,96.15
1486.00,96.08
1485.00,96.00
1484.00,95.93
1483.00,95.85
1482.00,95.79
1481.00,95.73
1480.00,95.68
1479.00,95.64
1478.00,95.60
1477.00,95.54
1476.00,95.48
1475.00,95.41
1474.00,95.34
1473.00,95.25
1472.00,95.16
1471.00,95.10
1470.00,95.05
1469.00,94.99
1468.00,94.91
1467.00,94.82
1466.00,94.71
1465.00,94.58
1464.00,94.44
1463.00,94.33
1462.00,94.24
1461.00,94.15
1460.00,94.05
1459.00,93.93
1458.00,93.79
1457.00,93.66
1456.00,93.56
1455.00,93.52
1454.00,93.49
1453.00,93.45
1452.00,93.40
1451.00,93.36
1450.00,93.32
1449.00,93.28
1448.00,93.25
1447.00,93.23
1446.00,93.22
1445.00,93.22
1444.00,93.21
1443.00,93.19
1442.00,93.15
1441.00,93.10
1440.00,93.02
1439.00,92.94
1438.00,92.85
1437.00,92.73
1436.00,92.60
1435.00,92.49
1434.00,92.38
1433.00,92.28
1432.00,92.18
1431.00,92.09
1430.00,92.02
1429.00,91.97
1428.00,91.93
1427.00,91.92
1426.00,91.93
1425.00,91.97
1424.00,92.02
1423.00,92.09
1422.00,92.16
1421.00,92.23
1420.00,92.34
1419.00,92.48
1418.00,92.63
1417.00,92.76
1416.00,92.86
1415.00,92.96
1414.00,93.06
1413.00,93.14
1412.00,93.21
1411.00,93.27
1410.00,93.31
1409.00,93.34
1408.00,93.36
1407.00,93.38
1406.00,93.38
1405.00,93.40
1404.00,93.42
1403.00,93.45
1402.00,93.47
1401.00,93.49
1400.00,93.51
1399.00,93.53
1398.00,93.55
1397.00,93.56
1396.00,93.57
1395.00,93.58
1394.00,93.59
1393.00,93.60
1392.00,93.60
1391.00,93.58
1390.00,93.54
1389.00,93.49
1388.00,93.41
1387.00,93.33
1386.00,93.24
1385.00,93.14
1384.00,93.03
1383.00,92.89
1382.00,92.74
1381.00,92.58
1380.00,92.41
1379.00,92.24
1378.00,92.06
1377.00,91.89
1376.00,91.70
1375.00,91.50
1374.00,91.30
1373.00,91.14
1372.00,91.02
1371.00,90.94
1370.00,90.89
1369.00,90.87
1368.00,90.87
1367.00,90.89
1366.00,90.90
1365.00,90.91
1364.00,90.89
1363.00,90.88
1362.00,90.86
1361.00,90.87
1360.00,90.89
1359.00,90.93
1358.00,90.98
1357.00,91.03
1356.00,91.07
1355.00,91.13
1354.00,91.20
1353.00,91.28
1352.00,91.35
1351.00,91.40
1350.00,91.44
1349.00,91.45
1348.00,91.42
1347.00,91.35
1346.00,91.26
1345.00,91.14
1344.00,91.00
1343.00,90.86
1342.00,90.70
1341.00,90.54
1340.00,90.37
1339.00,90.22
1338.00,90.10
1337.00,90.02
1336.00,89.98
1335.00,89.97
1334.00,89.99
1333.00,90.04
1332.00,90.12
1331.00,90.20
1330.00,90.29
1329.00,90.36
1328.00,90.41
1327.00,90.42
1326.00,90.39
1325.00,90.31
1324.00,90.18
1323.00,90.04
1322.00,89.88
1321.00,89.70
1320.00,89.50
1319.00,89.29
1318.00,89.11
1317.00,88.96
1316.00,88.87
1315.00,88.84
1314.00,88.88
1313.00,88.97
1312.00,89.11
1311.00,89.28
1310.00,89.47
1309.00,89.69
1308.00,89.92
1307.00,90.15
1306.00,90.38
1305.00,90.60
1304.00,90.82
1303.00,91.02
1302.00,91.22
1301.00,91.41
1300.00,91.58
1299.00,91.73
1298.00,91.85
1297.00,91.96
1296.00,92.04
1295.00,92.10
1294.00,92.14
1293.00,92.17
1292.00,92.19
1291.00,92.21
1290.00,92.24
1289.00,92.25
1288.00,92.26
1287.00,92.24
1286.00,92.20
1285.00,92.15
1284.00,92.08
1283.00,92.01
1282.00,91.95
1281.00,91.91
1280.00,91.91
1279.00,91.93
1278.00,91.97
1277.00,92.02
1276.00,92.06
1275.00,92.11
1274.00,92.17
1273.00,92.23
1272.00,92.30
1271.00,92.37
1270.00,92.45
1269.00,92.52
1268.00,92.57
1267.00,92.62
1266.00,92.65
1265.00,92.67
1264.00,92.68
1263.00,92.70
1262.00,92.71
1261.00,92.72
1260.00,92.74
1259.00,92.77
1258.00,92.82
1257.00,92.86
1256.00,92.88
1255.00,92.89
1254.00,92.89
1253.00,92.88
1252.00,92.86
1251.00,92.84
1250.00,92.83
1249.00,92.82
1248.00,92.81
1247.00,92.82
1246.00,92.84
1245.00,92.88
1244.00,92.92
1243.00,92.96
1242.00,93.01
1241.00,93.05
1240.00,93.08
1239.00,93.09
1238.00,93.08
1237.00,93.07
1236.00,93.06
1235.00,93.07
1234.00,93.11
1233.00,93.16
1232.00,93.24
1231.00,93.34
1230.00,93.44
1229.00,93.55
1228.00,93.66
1227.00,93.76
1226.00,93.86
1225.00,93.97
1224.00,94.08
1223.00,94.17
1222.00,94.25
1221.00,94.32
1220.00,94.39
1219.00,94.45
1218.00,94.51
1217.00,94.54
1216.00,94.55
1215.00,94.54
1214.00,94.49
1213.00,94.40
1212.00,94.28
1211.00,94.12
1210.00,93.94
1209.00,93.74
1208.00,93.55
1207.00,93.39
1206.00,93.27
1205.00,93.19
1204.00,93.15
1203.00,93.14
1202.00,93.18
1201.00,93.24
1200.00,93.32
1199.00,93.42
1198.00,93.52
1197.00,93.63
1196.00,93.76
1195.00,93.89
1194.00,94.03
1193.00,94.16
1192.00,94.27
1191.00,94.36
1190.00,94.43
1189.00,94.48
1188.00,94.50
1187.00,94.51
1186.00,94.51
1185.00,94.50
1184.00,94.47
1183.00,94.41
1182.00,94.33
1181.00,94.22
1180.00,94.08
1179.00,93.92
1178.00,93.75
1177.00,93.55
1176.00,93.33
1175.00,93.08
1174.00,92.77
1173.00,92.41
1172.00,91.99
1171.00,91.52
1170.00,91.00
1169.00,90.45
1168.00,89.88
1167.00,89.32
1166.00,88.79
1165.00,88.31
1164.00,87.89
1163.00,87.56
1162.00,87.32
1161.00,87.18
1160.00,87.12
1159.00,87.15
1158.00,87.23
1157.00,87.34
1156.00,87.46
1155.00,87.59
1154.00,87.71
1153.00,87.83
1152.00,87.94
1151.00,88.06
1150.00,88.20
1149.00,88.36
1148.00,88.54
1147.00,88.74
1146.00,88.95
1145.00,89.17
1144.00,89.39
1143.00,89.61
1142.00,89.80
1141.00,89.95
1140.00,90.06
1139.00,90.11
1138.00,90.12
1137.00,90.08
1136.00,90.01
1135.00,89.91
1134.00,89.77
1133.00,89.59
1132.00,89.38
1131.00,89.15
1130.00,88.88
1129.00,88.56
1128.00,88.19
1127.00,87.80
1126.00,87.41
1125.00,87.03
1124.00,86.69
1123.00,86.38
1122.00,86.07
1121.00,85.75
1120.00,85.38
1119.00,84.95
1118.00,84.47
1117.00,83.92
1116.00,83.32
1115.00,82.71
1114.00,82.12
1113.00,81.59
1112.00,81.15
1111.00,80.82
1110.00,80.59
1109.00,80.43
1108.00,80.31
1107.00,80.25
1106.00,80.23
1105.00,80.22
1104.00,80.24
1103.00,80.29
1102.00,80.38
1101.00,80.51
1100.00,80.69
1099.00,80.91
1098.00,81.17
1097.00,81.42
1096.00,81.67
1095.00,81.90
1094.00,82.14
1093.00,82.36
1092.00,82.55
1091.00,82.71
1090.00,82.83
1089.00,82.91
1088.00,82.96
1087.00,83.01
1086.00,83.05
1085.00,83.06
1084.00,83.04
1083.00,82.97
1082.00,82.85
1081.00,82.67
1080.00,82.43
1079.00,82.15
1078.00,81.86
1077.00,81.56
1076.00,81.28
1075.00,81.01
1074.00,80.77
1073.00,80.51
1072.00,80.21
1071.00,79.88
1070.00,79.50
1069.00,79.06
1068.00,78.54
1067.00,77.94
1066.00,77.30
1065.00,76.59
1064.00,75.83
1063.00,75.06
1062.00,74.30
1061.00,73.59
1060.00,72.95
1059.00,72.41
1058.00,71.99
1057.00,71.67
1056.00,71.42
1055.00,71.26
1054.00,71.17
1053.00,71.14
1052.00,71.17
1051.00,71.29
1050.00,71.49
1049.00,71.73
1048.00,71.99
1047.00,72.27
1046.00,72.56
1045.00,72.80
1044.00,72.97
1043.00,73.05
1042.00,73.06
1041.00,72.96
1040.00,72.75
1039.00,72.44
1038.00,72.06
1037.00,71.63
1036.00,71.20
1035.00,70.81
1034.00,70.48
1033.00,70.22
1032.00,70.03
1031.00,69.93
1030.00,69.90
1029.00,69.93
1028.00,70.00
1027.00,70.11
1026.00,70.25
1025.00,70.40
1024.00,70.56
1023.00,70.72
1022.00,70.88
1021.00,71.03
1020.00,71.17
1019.00,71.30
1018.00,71.44
1017.00,71.57
1016.00,71.69
1015.00,71.81
1014.00,71.92
1013.00,72.01
1012.00,72.09
1011.00,72.18
1010.00,72.26
1009.00,72.31
1008.00,72.33
1007.00,72.34
1006.00,72.36
1005.00,72.35
1004.00,72.33
1003.00,72.31
1002.00,72.31
1001.00,72.34
1000.00,72.39
999.00,72.47
998.00,72.59
997.00,72.73
996.00,72.87
995.00,73.03
994.00,73.20
993.00,73.36
992.00,73.50
991.00,73.61
990.00,73.70
989.00,73.74
988.00,73.74
987.00,73.73
986.00,73.73
985.00,73.76
984.00,73.86
983.00,74.07
982.00,74.39
981.00,74.80
980.00,75.28
979.00,75.79
978.00,76.33
977.00,76.86
976.00,77.36
975.00,77.84
974.00,78.28
973.00,78.69
972.00,79.07
971.00,79.44
970.00,79.78
969.00,80.09
968.00,80.38
967.00,80.66
966.00,80.93
965.00,81.19
964.00,81.43
963.00,81.68
962.00,81.93
961.00,82.18
960.00,82.43
959.00,82.67
958.00,82.92
957.00,83.15
956.00,83.36
955.00,83.58
954.00,83.79
953.00,84.00
952.00,84.20
951.00,84.41
950.00,84.63
949.00,84.83
948.00,85.02
947.00,85.20
946.00,85.38
945.00,85.56
944.00,85.73
943.00,85.88
942.00,86.02
941.00,86.14
940.00,86.26
939.00,86.38
938.00,86.50
937.00,86.63
936.00,86.74
935.00,86.85
934.00,86.95
933.00,87.04
932.00,87.12
931.00,87.20
930.00,87.29
929.00,87.39
928.00,87.49
927.00,87.60
926.00,87.70
925.00,87.79
924.00,87.88
923.00,87.96
922.00,88.04
921.00,88.11
920.00,88.15
919.00,88.20
918.00,88.23
917.00,88.26
916.00,88.28
915.00,88.27
914.00,88.24
913.00,88.21
912.00,88.18
911.00,88.15
910.00,88.13
909.00,88.10
908.00,88.06
907.00,88.00
906.00,87.94
905.00,87.87
904.00,87.81
903.00,87.76
902.00,87.70
901.00,87.63
900.00,87.56
899.00,87.51
898.00,87.49
897.00,87.49
896.00,87.51
895.00,87.55
894.00,87.61
893.00,87.69
892.00,87.79
891.00,87.88
890.00,87.98
889.00,88.08
888.00,88.19
887.00,88.31
886.00,88.45
885.00,88.59
884.00,88.71
883.00,88.83
882.00,88.95
881.00,89.07
880.00,89.19
879.00,89.31
878.00,89.41
877.00,89.50
876.00,89.57
875.00,89.65
874.00,89.75
873.00,89.84
872.00,89.92
871.00,89.98
870.00,90.05
869.00,90.11
868.00,90.16
867.00,90.21
866.00,90.25
865.00,90.29
864.00,90.33
863.00,90.36
862.00,90.37
861.00,90.38
860.00,90.40
859.00,90.43
858.00,90.48
857.00,90.53
856.00,90.58
855.00,90.62
854.00,90.65
853.00,90.65
852.00,90.62
851.00,90.59
850.00,90.59
849.00,90.60
848.00,90.61
847.00,90.63
846.00,90.64
845.00,90.63
844.00,90.62
843.00,90.61
842.00,90.61
841.00,90.61
840.00,90.61
839.00,90.62
838.00,90.64
837.00,90.66
836.00,90.66
835.00,90.65
834.00,90.63
833.00,90.60
832.00,90.59
831.00,90.59
830.00,90.60
829.00,90.60
828.00,90.61
827.00,90.61
826.00,90.61
825.00,90.60
824.00,90.58
823.00,90.55
822.00,90.53
821.00,90.51
820.00,90.51
819.00,90.51
818.00,90.52
817.00,90.53
816.00,90.54
815.00,90.55
814.00,90.57
813.00,90.59
812.00,90.62
811.00,90.63
810.00,90.64
809.00,90.63
808.00,90.59
807.00,90.55
806.00,90.53
805.00,90.51
804.00,90.51
803.00,90.50
802.00,90.49
801.00,90.47
800.00,90.45
799.00,90.44
798.00,90.43
797.00,90.42
796.00,90.42
795.00,90.43
794.00,90.44
793.00,90.44
792.00,90.42
791.00,90.38
790.00,90.33
789.00,90.28
788.00,90.25
787.00,90.22
786.00,90.20
785.00,90.18
784.00,90.14
783.00,90.11
782.00,90.07
781.00,90.04
780.00,90.02
779.00,90.03
778.00,90.05
777.00,90.06
776.00,90.03
775.00,89.98
774.00,89.92
773.00,89.86
772.00,89.82
771.00,89.78
770.00,89.75
769.00,89.70
768.00,89.65
767.00,89.61
766.00,89.59
765.00,89.57
764.00,89.55
763.00,89.52
762.00,89.48
761.00,89.42
760.00,89.36
759.00,89.32
758.00,89.28
757.00,89.23
756.00,89.19
755.00,89.14
754.00,89.09
753.00,89.02
752.00,88.94
751.00,88.86
750.00,88.79
749.00,88.75
748.00,88.71
747.00,88.67
746.00,88.64
745.00,88.59
744.00,88.53
743.00,88.47
742.00,88.41
741.00,88.34
740.00,88.27
739.00,88.20
738.00,88.12
737.00,88.02
736.00,87.93
735.00,87.85
734.00,87.76
733.00,87.65
732.00,87.53
731.00,87.40
730.00,87.28
729.00,87.15
728.00,87.00
727.00,86.84
726.00,86.67
725.00,86.49
724.00,86.31
723.00,86.12
722.00,85.94
721.00,85.73
720.00,85.50
719.00,85.28
718.00,85.10
717.00,84.96
716.00,84.82
715.00,84.68
714.00,84.54
713.00,84.37
712.00,84.20
711.00,84.05
710.00,83.94
709.00,83.84
708.00,83.72
707.00,83.61
706.00,83.53
705.00,83.46
704.00,83.40
703.00,83.37
702.00,83.35
701.00,83.34
700.00,83.29
699.00,83.24
698.00,83.19
697.00,83.15
696.00,83.14
695.00,83.15
694.00,83.18
693.00,83.20
692.00,83.16
691.00,83.11
690.00,83.04
689.00,82.97
688.00,82.89
687.00,82.84
686.00,82.81
685.00,82.78
684.00,82.71
683.00,82.62
682.00,82.51
681.00,82.37
680.00,82.17
679.00,81.94
678.00,81.68
677.00,81.40
676.00,81.09
675.00,80.80
674.00,80.53
673.00,80.26
672.00,79.98
671.00,79.71
670.00,79.45
669.00,79.12
668.00,78.69
667.00,78.39
666.00,78.32
665.00,78.31
664.00,78.25
663.00,78.15
662.00,78.08
661.00,78.05
660.00,78.08
659.00,78.17
658.00,78.32
657.00,78.51
656.00,78.71
655.00,78.94
654.00,79.17
653.00,79.34
652.00,79.43
651.00,79.45
650.00,79.45
649.00,79.42
648.00,79.36
647.00,79.28
646.00,79.25
645.00,79.27
644.00,79.32
643.00,79.38
642.00,79.39
641.00,79.31
640.00,79.16
639.00,79.01
638.00,78.90
637.00,78.79
636.00,78.64
635.00,78.49
634.00,78.36
633.00,78.23
632.00,78.07
631.00,77.92
630.00,77.81
629.00,77.65
628.00,77.43
627.00,77.21
626.00,77.08
625.00,77.03
624.00,77.01
623.00,76.96
622.00,76.81
621.00,76.45
620.00,75.88
619.00,75.36
618.00,75.07
617.00,74.96
616.00,74.91
615.00,74.88
614.00,74.84
613.00,74.73
612.00,74.54
611.00,74.42
610.00,74.47
609.00,74.61
608.00,74.77
607.00,74.95
606.00,75.08
605.00,75.03
604.00,74.80
603.00,74.63
602.00,74.67
601.00,74.84
600.00,74.91
599.00,74.87
598.00,74.79
597.00,74.70
596.00,74.58
595.00,74.47
594.00,74.41
593.00,74.34
592.00,74.29
591.00,74.36
590.00,74.53
589.00,74.61
588.00,74.48
587.00,74.26
586.00,74.12
585.00,74.09
584.00,74.08
583.00,74.04
582.00,73.89
581.00,73.58
580.00,73.24
579.00,73.19
578.00,73.53
577.00,73.96
576.00,74.23
575.00,74.35
574.00,74.37
573.00,74.23
572.00,74.05
571.00,74.06
570.00,74.15
569.00,73.90
568.00,73.19
567.00,72.51
566.00,72.32
565.00,72.44
564.00,72.51
563.00,72.42
562.00,72.18
561.00,71.71
560.00,71.10
559.00,70.63
558.00,70.42
557.00,70.27
556.00,70.08
555.00,70.13
554.00,70.47
553.00,70.75
552.00,70.70
551.00,70.60
550.00,70.64
