Created as New Dataset,6.3 Natural green fiber
cm-1,%T
4000.00,100.71
3999.00,100.72
3998.00,100.74
3997.00,100.75
3996.00,100.77
3995.00,100.77
3994.00,100.76
3993.00,100.75
3992.00,100.73
3991.00,100.72
3990.00,100.71
3989.00,100.70
3988.00,100.69
3987.00,100.68
3986.00,100.67
3985.00,100.66
3984.00,100.67
3983.00,100.69
3982.00,100.70
3981.00,100.72
3980.00,100.74
3979.00,100.75
3978.00,100.77
3977.00,100.78
3976.00,100.78
3975.00,100.77
3974.00,100.76
3973.00,100.74
3972.00,100.73
3971.00,100.72
3970.00,100.72
3969.00,100.72
3968.00,100.72
3967.00,100.74
3966.00,100.75
3965.00,100.75
3964.00,100.75
3963.00,100.75
3962.00,100.75
3961.00,100.76
3960.00,100.78
3959.00,100.80
3958.00,100.81
3957.00,100.82
3956.00,100.81
3955.00,100.79
3954.00,100.78
3953.00,100.77
3952.00,100.77
3951.00,100.77
3950.00,100.78
3949.00,100.78
3948.00,100.79
3947.00,100.79
3946.00,100.78
3945.00,100.77
3944.00,100.75
3943.00,100.73
3942.00,100.71
3941.00,100.71
3940.00,100.72
3939.00,100.74
3938.00,100.76
3937.00,100.79
3936.00,100.80
3935.00,100.79
3934.00,100.78
3933.00,100.76
3932.00,100.74
3931.00,100.74
3930.00,100.74
3929.00,100.74
3928.00,100.73
3927.00,100.72
3926.00,100.71
3925.00,100.69
3924.00,100.68
3923.00,100.68
3922.00,100.70
3921.00,100.72
3920.00,100.75
3919.00,100.75
3918.00,100.74
3917.00,100.71
3916.00,100.70
3915.00,100.70
3914.00,100.71
3913.00,100.73
3912.00,100.75
3911.00,100.77
3910.00,100.78
3909.00,100.78
3908.00,100.77
3907.00,100.76
3906.00,100.75
3905.00,100.74
3904.00,100.74
3903.00,100.74
3902.00,100.73
3901.00,100.72
3900.00,100.72
3899.00,100.72
3898.00,100.72
3897.00,100.72
3896.00,100.73
3895.00,100.74
3894.00,100.74
3893.00,100.74
3892.00,100.75
3891.00,100.78
3890.00,100.80
3889.00,100.80
3888.00,100.76
3887.00,100.73
3886.00,100.72
3885.00,100.74
3884.00,100.75
3883.00,100.74
3882.00,100.73
3881.00,100.73
3880.00,100.73
3879.00,100.73
3878.00,100.70
3877.00,100.67
3876.00,100.65
3875.00,100.64
3874.00,100.64
3873.00,100.64
3872.00,100.64
3871.00,100.64
3870.00,100.68
3869.00,100.72
3868.00,100.74
3867.00,100.72
3866.00,100.70
3865.00,100.69
3864.00,100.68
3863.00,100.67
3862.00,100.66
3861.00,100.65
3860.00,100.66
3859.00,100.67
3858.00,100.68
3857.00,100.69
3856.00,100.68
3855.00,100.66
3854.00,100.66
3853.00,100.70
3852.00,100.74
3851.00,100.75
3850.00,100.74
3849.00,100.74
3848.00,100.75
3847.00,100.76
3846.00,100.75
3845.00,100.74
3844.00,100.74
3843.00,100.73
3842.00,100.71
3841.00,100.69
3840.00,100.67
3839.00,100.65
3838.00,100.66
3837.00,100.67
3836.00,100.69
3835.00,100.71
3834.00,100.72
3833.00,100.73
3832.00,100.74
3831.00,100.73
3830.00,100.72
3829.00,100.71
3828.00,100.71
3827.00,100.73
3826.00,100.75
3825.00,100.75
3824.00,100.72
3823.00,100.67
3822.00,100.63
3821.00,100.63
3820.00,100.65
3819.00,100.67
3818.00,100.66
3817.00,100.66
3816.00,100.66
3815.00,100.65
3814.00,100.63
3813.00,100.61
3812.00,100.62
3811.00,100.65
3810.00,100.68
3809.00,100.68
3808.00,100.66
3807.00,100.64
3806.00,100.63
3805.00,100.63
3804.00,100.61
3803.00,100.60
3802.00,100.61
3801.00,100.63
3800.00,100.64
3799.00,100.62
3798.00,100.60
3797.00,100.61
3796.00,100.64
3795.00,100.67
3794.00,100.68
3793.00,100.68
3792.00,100.68
3791.00,100.68
3790.00,100.68
3789.00,100.68
3788.00,100.68
3787.00,100.68
3786.00,100.67
3785.00,100.66
3784.00,100.65
3783.00,100.65
3782.00,100.66
3781.00,100.67
3780.00,100.69
3779.00,100.71
3778.00,100.71
3777.00,100.69
3776.00,100.67
3775.00,100.66
3774.00,100.65
3773.00,100.64
3772.00,100.62
3771.00,100.60
3770.00,100.59
3769.00,100.59
3768.00,100.59
3767.00,100.59
3766.00,100.60
3765.00,100.61
3764.00,100.63
3763.00,100.62
3762.00,100.61
3761.00,100.59
3760.00,100.57
3759.00,100.58
3758.00,100.60
3757.00,100.63
3756.00,100.65
3755.00,100.64
3754.00,100.60
3753.00,100.55
3752.00,100.50
3751.00,100.47
3750.00,100.47
3749.00,100.48
3748.00,100.49
3747.00,100.48
3746.00,100.48
3745.00,100.51
3744.00,100.55
3743.00,100.58
3742.00,100.56
3741.00,100.53
3740.00,100.52
3739.00,100.52
3738.00,100.52
3737.00,100.50
3736.00,100.49
3735.00,100.49
3734.00,100.48
3733.00,100.48
3732.00,100.50
3731.00,100.52
3730.00,100.53
3729.00,100.52
3728.00,100.51
3727.00,100.51
3726.00,100.52
3725.00,100.52
3724.00,100.50
3723.00,100.47
3722.00,100.46
3721.00,100.47
3720.00,100.49
3719.00,100.51
3718.00,100.52
3717.00,100.53
3716.00,100.53
3715.00,100.51
3714.00,100.48
3713.00,100.45
3712.00,100.43
3711.00,100.42
3710.00,100.41
3709.00,100.41
3708.00,100.41
3707.00,100.42
3706.00,100.44
3705.00,100.45
3704.00,100.46
3703.00,100.47
3702.00,100.48
3701.00,100.49
3700.00,100.49
3699.00,100.47
3698.00,100.46
3697.00,100.46
3696.00,100.47
3695.00,100.47
3694.00,100.46
3693.00,100.44
3692.00,100.43
3691.00,100.42
3690.00,100.42
3689.00,100.43
3688.00,100.43
3687.00,100.43
3686.00,100.42
3685.00,100.41
3684.00,100.41
3683.00,100.42
3682.00,100.43
3681.00,100.42
3680.00,100.41
3679.00,100.39
3678.00,100.35
3677.00,100.31
3676.00,100.28
3675.00,100.28
3674.00,100.29
3673.00,100.28
3672.00,100.28
3671.00,100.29
3670.00,100.31
3669.00,100.32
3668.00,100.30
3667.00,100.28
3666.00,100.27
3665.00,100.28
3664.00,100.30
3663.00,100.31
3662.00,100.31
3661.00,100.31
3660.00,100.30
3659.00,100.29
3658.00,100.28
3657.00,100.27
3656.00,100.24
3655.00,100.20
3654.00,100.14
3653.00,100.08
3652.00,100.06
3651.00,100.07
3650.00,100.09
3649.00,100.09
3648.00,100.05
3647.00,100.02
3646.00,100.01
3645.00,100.02
3644.00,100.04
3643.00,100.05
3642.00,100.04
3641.00,100.03
3640.00,100.00
3639.00,99.97
3638.00,99.95
3637.00,99.93
3636.00,99.90
3635.00,99.86
3634.00,99.82
3633.00,99.81
3632.00,99.82
3631.00,99.84
3630.00,99.85
3629.00,99.85
3628.00,99.84
3627.00,99.82
3626.00,99.79
3625.00,99.78
3624.00,99.77
3623.00,99.75
3622.00,99.71
3621.00,99.66
3620.00,99.61
3619.00,99.58
3618.00,99.56
3617.00,99.55
3616.00,99.54
3615.00,99.52
3614.00,99.50
3613.00,99.48
3612.00,99.45
3611.00,99.43
3610.00,99.40
3609.00,99.38
3608.00,99.35
3607.00,99.33
3606.00,99.30
3605.00,99.27
3604.00,99.25
3603.00,99.22
3602.00,99.18
3601.00,99.16
3600.00,99.14
3599.00,99.13
3598.00,99.12
3597.00,99.08
3596.00,99.04
3595.00,98.98
3594.00,98.94
3593.00,98.91
3592.00,98.89
3591.00,98.88
3590.00,98.87
3589.00,98.84
3588.00,98.82
3587.00,98.81
3586.00,98.80
3585.00,98.78
3584.00,98.75
3583.00,98.72
3582.00,98.68
3581.00,98.65
3580.00,98.62
3579.00,98.59
3578.00,98.56
3577.00,98.54
3576.00,98.51
3575.00,98.48
3574.00,98.45
3573.00,98.43
3572.00,98.41
3571.00,98.39
3570.00,98.36
3569.00,98.32
3568.00,98.26
3567.00,98.21
3566.00,98.16
3565.00,98.13
3564.00,98.11
3563.00,98.09
3562.00,98.05
3561.00,98.00
3560.00,97.94
3559.00,97.90
3558.00,97.87
3557.00,97.86
3556.00,97.86
3555.00,97.85
3554.00,97.82
3553.00,97.78
3552.00,97.73
3551.00,97.68
3550.00,97.63
3549.00,97.59
3548.00,97.54
3547.00,97.51
3546.00,97.48
3545.00,97.46
3544.00,97.44
3543.00,97.41
3542.00,97.38
3541.00,97.36
3540.00,97.34
3539.00,97.32
3538.00,97.28
3537.00,97.23
3536.00,97.19
3535.00,97.16
3534.00,97.14
3533.00,97.11
3532.00,97.06
3531.00,97.01
3530.00,96.95
3529.00,96.90
3528.00,96.84
3527.00,96.78
3526.00,96.73
3525.00,96.70
3524.00,96.68
3523.00,96.67
3522.00,96.65
3521.00,96.62
3520.00,96.58
3519.00,96.54
3518.00,96.49
3517.00,96.45
3516.00,96.42
3515.00,96.40
3514.00,96.38
3513.00,96.36
3512.00,96.31
3511.00,96.25
3510.00,96.20
3509.00,96.17
3508.00,96.14
3507.00,96.09
3506.00,96.03
3505.00,95.95
3504.00,95.89
3503.00,95.84
3502.00,95.80
3501.00,95.76
3500.00,95.72
3499.00,95.68
3498.00,95.64
3497.00,95.59
3496.00,95.54
3495.00,95.50
3494.00,95.46
3493.00,95.43
3492.00,95.39
3491.00,95.34
3490.00,95.28
3489.00,95.23
3488.00,95.18
3487.00,95.12
3486.00,95.04
3485.00,94.97
3484.00,94.90
3483.00,94.85
3482.00,94.80
3481.00,94.75
3480.00,94.69
3479.00,94.63
3478.00,94.58
3477.00,94.52
3476.00,94.47
3475.00,94.41
3474.00,94.36
3473.00,94.31
3472.00,94.26
3471.00,94.21
3470.00,94.17
3469.00,94.13
3468.00,94.07
3467.00,94.02
3466.00,93.95
3465.00,93.88
3464.00,93.80
3463.00,93.73
3462.00,93.67
3461.00,93.62
3460.00,93.58
3459.00,93.54
3458.00,93.49
3457.00,93.42
3456.00,93.35
3455.00,93.27
3454.00,93.19
3453.00,93.11
3452.00,93.04
3451.00,92.99
3450.00,92.94
3449.00,92.89
3448.00,92.84
3447.00,92.79
3446.00,92.75
3445.00,92.70
3444.00,92.63
3443.00,92.56
3442.00,92.48
3441.00,92.41
3440.00,92.35
3439.00,92.30
3438.00,92.25
3437.00,92.20
3436.00,92.15
3435.00,92.09
3434.00,92.02
3433.00,91.94
3432.00,91.85
3431.00,91.77
3430.00,91.69
3429.00,91.60
3428.00,91.52
3427.00,91.45
3426.00,91.40
3425.00,91.35
3424.00,91.30
3423.00,91.24
3422.00,91.16
3421.00,91.09
3420.00,91.02
3419.00,90.96
3418.00,90.88
3417.00,90.79
3416.00,90.70
3415.00,90.61
3414.00,90.52
3413.00,90.45
3412.00,90.37
3411.00,90.28
3410.00,90.20
3409.00,90.12
3408.00,90.05
3407.00,89.99
3406.00,89.92
3405.00,89.87
3404.00,89.83
3403.00,89.80
3402.00,89.77
3401.00,89.75
3400.00,89.71
3399.00,89.65
3398.00,89.58
3397.00,89.51
3396.00,89.45
3395.00,89.40
3394.00,89.36
3393.00,89.34
3392.00,89.32
3391.00,89.28
3390.00,89.22
3389.00,89.15
3388.00,89.09
3387.00,89.04
3386.00,89.00
3385.00,88.95
3384.00,88.89
3383.00,88.82
3382.00,88.75
3381.00,88.69
3380.00,88.64
3379.00,88.57
3378.00,88.50
3377.00,88.43
3376.00,88.36
3375.00,88.31
3374.00,88.25
3373.00,88.19
3372.00,88.12
3371.00,88.05
3370.00,87.98
3369.00,87.92
3368.00,87.85
3367.00,87.77
3366.00,87.69
3365.00,87.61
3364.00,87.54
3363.00,87.47
3362.00,87.41
3361.00,87.35
3360.00,87.28
3359.00,87.20
3358.00,87.11
3357.00,87.01
3356.00,86.91
3355.00,86.82
3354.00,86.74
3353.00,86.65
3352.00,86.56
3351.00,86.46
3350.00,86.37
3349.00,86.29
3348.00,86.23
3347.00,86.17
3346.00,86.10
3345.00,86.01
3344.00,85.92
3343.00,85.83
3342.00,85.76
3341.00,85.70
3340.00,85.64
3339.00,85.60
3338.00,85.57
3337.00,85.56
3336.00,85.55
3335.00,85.55
3334.00,85.55
3333.00,85.55
3332.00,85.55
3331.00,85.57
3330.00,85.59
3329.00,85.62
3328.00,85.66
3327.00,85.70
3326.00,85.75
3325.00,85.80
3324.00,85.84
3323.00,85.87
3322.00,85.91
3321.00,85.95
3320.00,86.00
3319.00,86.05
3318.00,86.11
3317.00,86.15
3316.00,86.18
3315.00,86.18
3314.00,86.17
3313.00,86.15
3312.00,86.15
3311.00,86.16
3310.00,86.18
3309.00,86.18
3308.00,86.18
3307.00,86.19
3306.00,86.20
3305.00,86.20
3304.00,86.18
3303.00,86.15
3302.00,86.12
3301.00,86.10
3300.00,86.10
3299.00,86.11
3298.00,86.11
3297.00,86.11
3296.00,86.11
3295.00,86.10
3294.00,86.09
3293.00,86.08
3292.00,86.08
3291.00,86.09
3290.00,86.12
3289.00,86.15
3288.00,86.17
3287.00,86.18
3286.00,86.18
3285.00,86.17
3284.00,86.18
3283.00,86.19
3282.00,86.20
3281.00,86.21
3280.00,86.23
3279.00,86.25
3278.00,86.28
3277.00,86.31
3276.00,86.33
3275.00,86.36
3274.00,86.40
3273.00,86.45
3272.00,86.51
3271.00,86.56
3270.00,86.60
3269.00,86.64
3268.00,86.69
3267.00,86.76
3266.00,86.84
3265.00,86.93
3264.00,87.02
3263.00,87.10
3262.00,87.18
3261.00,87.26
3260.00,87.34
3259.00,87.44
3258.00,87.54
3257.00,87.65
3256.00,87.74
3255.00,87.83
3254.00,87.90
3253.00,87.98
3252.00,88.05
3251.00,88.14
3250.00,88.24
3249.00,88.34
3248.00,88.45
3247.00,88.54
3246.00,88.62
3245.00,88.69
3244.00,88.76
3243.00,88.82
3242.00,88.87
3241.00,88.94
3240.00,89.01
3239.00,89.10
3238.00,89.19
3237.00,89.27
3236.00,89.35
3235.00,89.42
3234.00,89.47
3233.00,89.53
3232.00,89.59
3231.00,89.66
3230.00,89.72
3229.00,89.77
3228.00,89.83
3227.00,89.91
3226.00,89.99
3225.00,90.07
3224.00,90.14
3223.00,90.20
3222.00,90.26
3221.00,90.32
3220.00,90.38
3219.00,90.43
3218.00,90.49
3217.00,90.55
3216.00,90.61
3215.00,90.68
3214.00,90.74
3213.00,90.81
3212.00,90.87
3211.00,90.94
3210.00,91.00
3209.00,91.07
3208.00,91.12
3207.00,91.18
3206.00,91.22
3205.00,91.28
3204.00,91.34
3203.00,91.42
3202.00,91.50
3201.00,91.57
3200.00,91.63
3199.00,91.68
3198.00,91.71
3197.00,91.75
3196.00,91.80
3195.00,91.87
3194.00,91.93
3193.00,91.99
3192.00,92.05
3191.00,92.10
3190.00,92.15
3189.00,92.19
3188.00,92.23
3187.00,92.27
3186.00,92.31
3185.00,92.35
3184.00,92.41
3183.00,92.47
3182.00,92.54
3181.00,92.58
3180.00,92.60
3179.00,92.62
3178.00,92.65
3177.00,92.69
3176.00,92.75
3175.00,92.81
3174.00,92.87
3173.00,92.92
3172.00,92.98
3171.00,93.04
3170.00,93.11
3169.00,93.17
3168.00,93.22
3167.00,93.26
3166.00,93.29
3165.00,93.32
3164.00,93.36
3163.00,93.40
3162.00,93.43
3161.00,93.47
3160.00,93.50
3159.00,93.54
3158.00,93.58
3157.00,93.62
3156.00,93.66
3155.00,93.71
3154.00,93.77
3153.00,93.82
3152.00,93.88
3151.00,93.92
3150.00,93.96
3149.00,93.99
3148.00,94.01
3147.00,94.03
3146.00,94.05
3145.00,94.09
3144.00,94.13
3143.00,94.18
3142.00,94.23
3141.00,94.27
3140.00,94.30
3139.00,94.33
3138.00,94.35
3137.00,94.37
3136.00,94.38
3135.00,94.40
3134.00,94.43
3133.00,94.46
3132.00,94.50
3131.00,94.53
3130.00,94.57
3129.00,94.62
3128.00,94.66
3127.00,94.70
3126.00,94.73
3125.00,94.76
3124.00,94.79
3123.00,94.84
3122.00,94.89
3121.00,94.93
3120.00,94.97
3119.00,95.00
3118.00,95.03
3117.00,95.06
3116.00,95.08
3115.00,95.11
3114.00,95.13
3113.00,95.16
3112.00,95.19
3111.00,95.22
3110.00,95.25
3109.00,95.28
3108.00,95.32
3107.00,95.36
3106.00,95.39
3105.00,95.40
3104.00,95.40
3103.00,95.39
3102.00,95.41
3101.00,95.43
3100.00,95.47
3099.00,95.52
3098.00,95.58
3097.00,95.64
3096.00,95.69
3095.00,95.72
3094.00,95.73
3093.00,95.74
3092.00,95.75
3091.00,95.78
3090.00,95.82
3089.00,95.85
3088.00,95.89
3087.00,95.91
3086.00,95.94
3085.00,95.97
3084.00,96.01
3083.00,96.04
3082.00,96.06
3081.00,96.06
3080.00,96.06
3079.00,96.06
3078.00,96.07
3077.00,96.09
3076.00,96.12
3075.00,96.14
3074.00,96.17
3073.00,96.19
3072.00,96.22
3071.00,96.24
3070.00,96.27
3069.00,96.30
3068.00,96.32
3067.00,96.34
3066.00,96.36
3065.00,96.38
3064.00,96.41
3063.00,96.45
3062.00,96.49
3061.00,96.52
3060.00,96.55
3059.00,96.58
3058.00,96.60
3057.00,96.61
3056.00,96.62
3055.00,96.64
3054.00,96.65
3053.00,96.66
3052.00,96.66
3051.00,96.68
3050.00,96.70
3049.00,96.73
3048.00,96.76
3047.00,96.78
3046.00,96.80
3045.00,96.80
3044.00,96.81
3043.00,96.82
3042.00,96.85
3041.00,96.88
3040.00,96.91
3039.00,96.93
3038.00,96.95
3037.00,96.96
3036.00,96.96
3035.00,96.96
3034.00,96.95
3033.00,96.96
3032.00,96.97
3031.00,97.00
3030.00,97.03
3029.00,97.06
3028.00,97.08
3027.00,97.09
3026.00,97.09
3025.00,97.09
3024.00,97.09
3023.00,97.11
3022.00,97.13
3021.00,97.15
3020.00,97.17
3019.00,97.19
3018.00,97.20
3017.00,97.20
3016.00,97.21
3015.00,97.22
3014.00,97.24
3013.00,97.26
3012.00,97.29
3011.00,97.32
3010.00,97.33
3009.00,97.33
3008.00,97.32
3007.00,97.33
3006.00,97.34
3005.00,97.35
3004.00,97.37
3003.00,97.39
3002.00,97.41
3001.00,97.41
3000.00,97.41
2999.00,97.40
2998.00,97.40
2997.00,97.40
2996.00,97.41
2995.00,97.43
2994.00,97.44
2993.00,97.46
2992.00,97.47
2991.00,97.47
2990.00,97.46
2989.00,97.44
2988.00,97.41
2987.00,97.40
2986.00,97.39
2985.00,97.39
2984.00,97.37
2983.00,97.35
2982.00,97.33
2981.00,97.30
2980.00,97.28
2979.00,97.25
2978.00,97.21
2977.00,97.17
2976.00,97.11
2975.00,97.05
2974.00,96.99
2973.00,96.93
2972.00,96.88
2971.00,96.83
2970.00,96.78
2969.00,96.73
2968.00,96.70
2967.00,96.69
2966.00,96.68
2965.00,96.68
2964.00,96.66
2963.00,96.64
2962.00,96.62
2961.00,96.61
2960.00,96.59
2959.00,96.57
2958.00,96.54
2957.00,96.50
2956.00,96.45
2955.00,96.39
2954.00,96.33
2953.00,96.26
2952.00,96.19
2951.00,96.12
2950.00,96.06
2949.00,96.01
2948.00,95.95
2947.00,95.90
2946.00,95.84
2945.00,95.79
2944.00,95.74
2943.00,95.70
2942.00,95.66
2941.00,95.64
2940.00,95.62
2939.00,95.59
2938.00,95.56
2937.00,95.53
2936.00,95.50
2935.00,95.47
2934.00,95.41
2933.00,95.34
2932.00,95.26
2931.00,95.18
2930.00,95.12
2929.00,95.04
2928.00,94.95
2927.00,94.84
2926.00,94.70
2925.00,94.54
2924.00,94.36
2923.00,94.18
2922.00,94.01
2921.00,93.85
2920.00,93.69
2919.00,93.56
2918.00,93.44
2917.00,93.36
2916.00,93.31
2915.00,93.29
2914.00,93.31
2913.00,93.34
2912.00,93.37
2911.00,93.40
2910.00,93.42
2909.00,93.42
2908.00,93.41
2907.00,93.40
2906.00,93.37
2905.00,93.34
2904.00,93.32
2903.00,93.30
2902.00,93.29
2901.00,93.30
2900.00,93.30
2899.00,93.32
2898.00,93.34
2897.00,93.36
2896.00,93.39
2895.00,93.42
2894.00,93.46
2893.00,93.51
2892.00,93.56
2891.00,93.61
2890.00,93.66
2889.00,93.71
2888.00,93.78
2887.00,93.85
2886.00,93.92
2885.00,93.98
2884.00,94.04
2883.00,94.09
2882.00,94.14
2881.00,94.18
2880.00,94.22
2879.00,94.25
2878.00,94.28
2877.00,94.31
2876.00,94.33
2875.00,94.36
2874.00,94.37
2873.00,94.39
2872.00,94.42
2871.00,94.45
2870.00,94.48
2869.00,94.50
2868.00,94.51
2867.00,94.51
2866.00,94.52
2865.00,94.56
2864.00,94.61
2863.00,94.66
2862.00,94.70
2861.00,94.72
2860.00,94.72
2859.00,94.71
2858.00,94.69
2857.00,94.66
2856.00,94.61
2855.00,94.53
2854.00,94.43
2853.00,94.31
2852.00,94.22
2851.00,94.16
2850.00,94.17
2849.00,94.23
2848.00,94.36
2847.00,94.54
2846.00,94.74
2845.00,94.93
2844.00,95.10
2843.00,95.25
2842.00,95.38
2841.00,95.51
2840.00,95.63
2839.00,95.72
2838.00,95.80
2837.00,95.86
2836.00,95.92
2835.00,96.00
2834.00,96.07
2833.00,96.14
2832.00,96.19
2831.00,96.23
2830.00,96.25
2829.00,96.27
2828.00,96.29
2827.00,96.33
2826.00,96.37
2825.00,96.41
2824.00,96.45
2823.00,96.50
2822.00,96.55
2821.00,96.61
2820.00,96.65
2819.00,96.68
2818.00,96.69
2817.00,96.71
2816.00,96.73
2815.00,96.75
2814.00,96.77
2813.00,96.80
2812.00,96.82
2811.00,96.85
2810.00,96.87
2809.00,96.89
2808.00,96.91
2807.00,96.93
2806.00,96.95
2805.00,96.97
2804.00,96.99
2803.00,97.02
2802.00,97.05
2801.00,97.08
2800.00,97.10
2799.00,97.11
2798.00,97.11
2797.00,97.12
2796.00,97.12
2795.00,97.13
2794.00,97.15
2793.00,97.17
2792.00,97.19
2791.00,97.20
2790.00,97.20
2789.00,97.20
2788.00,97.21
2787.00,97.22
2786.00,97.22
2785.00,97.22
2784.00,97.23
2783.00,97.24
2782.00,97.26
2781.00,97.28
2780.00,97.30
2779.00,97.32
2778.00,97.33
2777.00,97.35
2776.00,97.36
2775.00,97.38
2774.00,97.38
2773.00,97.38
2772.00,97.37
2771.00,97.37
2770.00,97.37
2769.00,97.37
2768.00,97.37
2767.00,97.36
2766.00,97.36
2765.00,97.37
2764.00,97.39
2763.00,97.42
2762.00,97.45
2761.00,97.46
2760.00,97.45
2759.00,97.43
2758.00,97.42
2757.00,97.43
2756.00,97.44
2755.00,97.45
2754.00,97.46
2753.00,97.47
2752.00,97.48
2751.00,97.49
2750.00,97.49
2749.00,97.49
2748.00,97.48
2747.00,97.48
2746.00,97.49
2745.00,97.50
2744.00,97.50
2743.00,97.50
2742.00,97.49
2741.00,97.48
2740.00,97.48
2739.00,97.48
2738.00,97.48
2737.00,97.48
2736.00,97.47
2735.00,97.47
2734.00,97.47
2733.00,97.47
2732.00,97.48
2731.00,97.49
2730.00,97.50
2729.00,97.52
2728.00,97.53
2727.00,97.53
2726.00,97.53
2725.00,97.52
2724.00,97.52
2723.00,97.53
2722.00,97.54
2721.00,97.55
2720.00,97.56
2719.00,97.57
2718.00,97.58
2717.00,97.60
2716.00,97.61
2715.00,97.62
2714.00,97.63
2713.00,97.63
2712.00,97.62
2711.00,97.62
2710.00,97.61
2709.00,97.62
2708.00,97.64
2707.00,97.65
2706.00,97.67
2705.00,97.68
2704.00,97.68
2703.00,97.69
2702.00,97.70
2701.00,97.71
2700.00,97.72
2699.00,97.73
2698.00,97.73
2697.00,97.73
2696.00,97.73
2695.00,97.74
2694.00,97.75
2693.00,97.77
2692.00,97.78
2691.00,97.79
2690.00,97.80
2689.00,97.80
2688.00,97.79
2687.00,97.78
2686.00,97.79
2685.00,97.80
2684.00,97.81
2683.00,97.82
2682.00,97.82
2681.00,97.83
2680.00,97.83
2679.00,97.84
2678.00,97.85
2677.00,97.86
2676.00,97.87
2675.00,97.88
2674.00,97.88
2673.00,97.89
2672.00,97.90
2671.00,97.91
2670.00,97.92
2669.00,97.93
2668.00,97.94
2667.00,97.95
2666.00,97.94
2665.00,97.93
2664.00,97.91
2663.00,97.89
2662.00,97.88
2661.00,97.87
2660.00,97.87
2659.00,97.88
2658.00,97.88
2657.00,97.88
2656.00,97.89
2655.00,97.89
2654.00,97.89
2653.00,97.89
2652.00,97.88
2651.00,97.88
2650.00,97.88
2649.00,97.88
2648.00,97.87
2647.00,97.85
2646.00,97.83
2645.00,97.81
2644.00,97.81
2643.00,97.80
2642.00,97.79
2641.00,97.77
2640.00,97.76
2639.00,97.77
2638.00,97.78
2637.00,97.81
2636.00,97.82
2635.00,97.83
2634.00,97.82
2633.00,97.81
2632.00,97.80
2631.00,97.79
2630.00,97.78
2629.00,97.78
2628.00,97.79
2627.00,97.80
2626.00,97.80
2625.00,97.80
2624.00,97.79
2623.00,97.79
2622.00,97.79
2621.00,97.78
2620.00,97.78
2619.00,97.77
2618.00,97.76
2617.00,97.74
2616.00,97.73
2615.00,97.73
2614.00,97.74
2613.00,97.76
2612.00,97.78
2611.00,97.81
2610.00,97.82
2609.00,97.82
2608.00,97.81
2607.00,97.80
2606.00,97.78
2605.00,97.77
2604.00,97.77
2603.00,97.77
2602.00,97.77
2601.00,97.77
2600.00,97.77
2599.00,97.78
2598.00,97.78
2597.00,97.79
2596.00,97.80
2595.00,97.81
2594.00,97.83
2593.00,97.82
2592.00,97.81
2591.00,97.79
2590.00,97.76
2589.00,97.74
2588.00,97.72
2587.00,97.72
2586.00,97.73
2585.00,97.75
2584.00,97.76
2583.00,97.77
2582.00,97.78
2581.00,97.78
2580.00,97.76
2579.00,97.74
2578.00,97.72
2577.00,97.71
2576.00,97.71
2575.00,97.71
2574.00,97.71
2573.00,97.70
2572.00,97.69
2571.00,97.69
2570.00,97.70
2569.00,97.72
2568.00,97.74
2567.00,97.74
2566.00,97.74
2565.00,97.73
2564.00,97.71
2563.00,97.70
2562.00,97.69
2561.00,97.68
2560.00,97.68
2559.00,97.69
2558.00,97.71
2557.00,97.73
2556.00,97.73
2555.00,97.73
2554.00,97.73
2553.00,97.73
2552.00,97.73
2551.00,97.72
2550.00,97.71
2549.00,97.70
2548.00,97.70
2547.00,97.72
2546.00,97.73
2545.00,97.73
2544.00,97.73
2543.00,97.72
2542.00,97.72
2541.00,97.72
2540.00,97.73
2539.00,97.74
2538.00,97.74
2537.00,97.73
2536.00,97.71
2535.00,97.70
2534.00,97.70
2533.00,97.71
2532.00,97.73
2531.00,97.74
2530.00,97.74
2529.00,97.73
2528.00,97.71
2527.00,97.70
2526.00,97.69
2525.00,97.70
2524.00,97.73
2523.00,97.75
2522.00,97.76
2521.00,97.77
2520.00,97.77
2519.00,97.78
2518.00,97.78
2517.00,97.79
2516.00,97.80
2515.00,97.82
2514.00,97.81
2513.00,97.78
2512.00,97.75
2511.00,97.73
2510.00,97.75
2509.00,97.77
2508.00,97.78
2507.00,97.78
2506.00,97.80
2505.00,97.81
2504.00,97.83
2503.00,97.84
2502.00,97.84
2501.00,97.83
2500.00,97.84
2499.00,97.84
2498.00,97.85
2497.00,97.85
2496.00,97.84
2495.00,97.82
2494.00,97.81
2493.00,97.79
2492.00,97.78
2491.00,97.79
2490.00,97.82
2489.00,97.85
2488.00,97.87
2487.00,97.87
2486.00,97.87
2485.00,97.86
2484.00,97.85
2483.00,97.85
2482.00,97.87
2481.00,97.89
2480.00,97.89
2479.00,97.89
2478.00,97.88
2477.00,97.87
2476.00,97.86
2475.00,97.87
2474.00,97.88
2473.00,97.89
2472.00,97.90
2471.00,97.90
2470.00,97.89
2469.00,97.89
2468.00,97.89
2467.00,97.90
2466.00,97.92
2465.00,97.94
2464.00,97.94
2463.00,97.92
2462.00,97.90
2461.00,97.90
2460.00,97.91
2459.00,97.91
2458.00,97.90
2457.00,97.88
2456.00,97.87
2455.00,97.86
2454.00,97.85
2453.00,97.85
2452.00,97.85
2451.00,97.87
2450.00,97.89
2449.00,97.92
2448.00,97.94
2447.00,97.95
2446.00,97.94
2445.00,97.92
2444.00,97.90
2443.00,97.89
2442.00,97.90
2441.00,97.92
2440.00,97.95
2439.00,97.97
2438.00,97.98
2437.00,97.99
2436.00,98.00
2435.00,98.01
2434.00,98.01
2433.00,98.00
2432.00,97.99
2431.00,97.98
2430.00,97.98
2429.00,97.98
2428.00,97.98
2427.00,97.99
2426.00,97.99
2425.00,98.00
2424.00,98.01
2423.00,98.03
2422.00,98.04
2421.00,98.05
2420.00,98.06
2419.00,98.07
2418.00,98.08
2417.00,98.08
2416.00,98.09
2415.00,98.09
2414.00,98.09
2413.00,98.08
2412.00,98.07
2411.00,98.07
2410.00,98.08
2409.00,98.10
2408.00,98.10
2407.00,98.11
2406.00,98.12
2405.00,98.12
2404.00,98.12
2403.00,98.12
2402.00,98.13
2401.00,98.14
2400.00,98.14
2399.00,98.15
2398.00,98.15
2397.00,98.16
2396.00,98.17
2395.00,98.18
2394.00,98.19
2393.00,98.19
2392.00,98.20
2391.00,98.22
2390.00,98.24
2389.00,98.26
2388.00,98.27
2387.00,98.28
2386.00,98.29
2385.00,98.29
2384.00,98.29
2383.00,98.30
2382.00,98.31
2381.00,98.33
2380.00,98.34
2379.00,98.35
2378.00,98.35
2377.00,98.34
2376.00,98.34
2375.00,98.34
2374.00,98.36
2373.00,98.38
2372.00,98.39
2371.00,98.40
2370.00,98.43
2369.00,98.46
2368.00,98.48
2367.00,98.45
2366.00,98.40
2365.00,98.37
2364.00,98.40
2363.00,98.44
2362.00,98.47
2361.00,98.45
2360.00,98.41
2359.00,98.36
2358.00,98.30
2357.00,98.25
2356.00,98.23
2355.00,98.24
2354.00,98.28
2353.00,98.34
2352.00,98.40
2351.00,98.43
2350.00,98.43
2349.00,98.42
2348.00,98.41
2347.00,98.44
2346.00,98.49
2345.00,98.51
2344.00,98.49
2343.00,98.44
2342.00,98.40
2341.00,98.38
2340.00,98.36
2339.00,98.34
2338.00,98.32
2337.00,98.31
2336.00,98.32
2335.00,98.36
2334.00,98.43
2333.00,98.50
2332.00,98.54
2331.00,98.51
2330.00,98.43
2329.00,98.35
2328.00,98.30
2327.00,98.28
2326.00,98.27
2325.00,98.24
2324.00,98.19
2323.00,98.13
2322.00,98.09
2321.00,98.08
2320.00,98.08
2319.00,98.10
2318.00,98.11
2317.00,98.11
2316.00,98.09
2315.00,98.08
2314.00,98.07
2313.00,98.07
2312.00,98.06
2311.00,98.04
2310.00,98.02
2309.00,98.02
2308.00,98.04
2307.00,98.06
2306.00,98.07
2305.00,98.08
2304.00,98.08
2303.00,98.06
2302.00,98.03
2301.00,98.00
2300.00,97.98
2299.00,97.97
2298.00,97.97
2297.00,97.97
2296.00,97.97
2295.00,97.97
2294.00,97.96
2293.00,97.94
2292.00,97.92
2291.00,97.90
2290.00,97.87
2289.00,97.85
2288.00,97.83
2287.00,97.81
2286.00,97.77
2285.00,97.73
2284.00,97.69
2283.00,97.68
2282.00,97.69
2281.00,97.70
2280.00,97.68
2279.00,97.65
2278.00,97.62
2277.00,97.60
2276.00,97.59
2275.00,97.59
2274.00,97.57
2273.00,97.53
2272.00,97.47
2271.00,97.41
2270.00,97.37
2269.00,97.36
2268.00,97.36
2267.00,97.38
2266.00,97.39
2265.00,97.41
2264.00,97.43
2263.00,97.45
2262.00,97.47
2261.00,97.48
2260.00,97.46
2259.00,97.42
2258.00,97.38
2257.00,97.37
2256.00,97.38
2255.00,97.39
2254.00,97.40
2253.00,97.40
2252.00,97.39
2251.00,97.39
2250.00,97.38
2249.00,97.37
2248.00,97.33
2247.00,97.27
2246.00,97.23
2245.00,97.22
2244.00,97.24
2243.00,97.27
2242.00,97.28
2241.00,97.27
2240.00,97.22
2239.00,97.14
2238.00,97.07
2237.00,97.04
2236.00,97.04
2235.00,97.07
2234.00,97.09
2233.00,97.09
2232.00,97.07
2231.00,97.06
2230.00,97.04
2229.00,97.03
2228.00,97.01
2227.00,96.98
2226.00,96.97
2225.00,96.98
2224.00,96.98
2223.00,96.98
2222.00,96.97
2221.00,96.96
2220.00,96.95
2219.00,96.94
2218.00,96.93
2217.00,96.91
2216.00,96.90
2215.00,96.89
2214.00,96.88
2213.00,96.88
2212.00,96.88
2211.00,96.89
2210.00,96.89
2209.00,96.88
2208.00,96.84
2207.00,96.78
2206.00,96.72
2205.00,96.71
2204.00,96.72
2203.00,96.73
2202.00,96.72
2201.00,96.67
2200.00,96.59
2199.00,96.51
2198.00,96.45
2197.00,96.43
2196.00,96.44
2195.00,96.47
2194.00,96.50
2193.00,96.50
2192.00,96.49
2191.00,96.48
2190.00,96.47
2189.00,96.47
2188.00,96.46
2187.00,96.44
2186.00,96.38
2185.00,96.33
2184.00,96.31
2183.00,96.33
2182.00,96.36
2181.00,96.37
2180.00,96.36
2179.00,96.31
2178.00,96.27
2177.00,96.25
2176.00,96.29
2175.00,96.35
2174.00,96.38
2173.00,96.37
2172.00,96.31
2171.00,96.22
2170.00,96.14
2169.00,96.07
2168.00,96.01
2167.00,95.96
2166.00,95.92
2165.00,95.87
2164.00,95.80
2163.00,95.72
2162.00,95.66
2161.00,95.65
2160.00,95.75
2159.00,95.92
2158.00,96.12
2157.00,96.29
2156.00,96.40
2155.00,96.49
2154.00,96.55
2153.00,96.61
2152.00,96.65
2151.00,96.67
2150.00,96.69
2149.00,96.72
2148.00,96.74
2147.00,96.76
2146.00,96.78
2145.00,96.77
2144.00,96.75
2143.00,96.71
2142.00,96.67
2141.00,96.66
2140.00,96.70
2139.00,96.77
2138.00,96.84
2137.00,96.90
2136.00,96.94
2135.00,96.98
2134.00,97.04
2133.00,97.10
2132.00,97.17
2131.00,97.23
2130.00,97.28
2129.00,97.31
2128.00,97.31
2127.00,97.30
2126.00,97.29
2125.00,97.31
2124.00,97.33
2123.00,97.35
2122.00,97.35
2121.00,97.32
2120.00,97.28
2119.00,97.24
2118.00,97.22
2117.00,97.23
2116.00,97.26
2115.00,97.30
2114.00,97.31
2113.00,97.29
2112.00,97.29
2111.00,97.31
2110.00,97.34
2109.00,97.36
2108.00,97.35
2107.00,97.33
2106.00,97.30
2105.00,97.28
2104.00,97.29
2103.00,97.32
2102.00,97.36
2101.00,97.38
2100.00,97.36
2099.00,97.33
2098.00,97.29
2097.00,97.25
2096.00,97.22
2095.00,97.23
2094.00,97.27
2093.00,97.29
2092.00,97.31
2091.00,97.33
2090.00,97.33
2089.00,97.32
2088.00,97.28
2087.00,97.25
2086.00,97.23
2085.00,97.23
2084.00,97.23
2083.00,97.20
2082.00,97.16
2081.00,97.12
2080.00,97.11
2079.00,97.11
2078.00,97.11
2077.00,97.11
2076.00,97.10
2075.00,97.09
2074.00,97.06
2073.00,97.04
2072.00,97.04
2071.00,97.06
2070.00,97.08
2069.00,97.09
2068.00,97.08
2067.00,97.09
2066.00,97.11
2065.00,97.15
2064.00,97.18
2063.00,97.17
2062.00,97.11
2061.00,97.02
2060.00,96.95
2059.00,96.92
2058.00,96.93
2057.00,96.97
2056.00,97.02
2055.00,97.05
2054.00,97.05
2053.00,96.98
2052.00,96.85
2051.00,96.70
2050.00,96.60
2049.00,96.56
2048.00,96.56
2047.00,96.56
2046.00,96.54
2045.00,96.49
2044.00,96.42
2043.00,96.36
2042.00,96.30
2041.00,96.27
2040.00,96.26
2039.00,96.27
2038.00,96.26
2037.00,96.19
2036.00,96.08
2035.00,95.99
2034.00,95.95
2033.00,95.97
2032.00,96.02
2031.00,96.07
2030.00,96.14
2029.00,96.23
2028.00,96.31
2027.00,96.35
2026.00,96.35
2025.00,96.32
2024.00,96.32
2023.00,96.36
2022.00,96.38
2021.00,96.36
2020.00,96.32
2019.00,96.30
2018.00,96.32
2017.00,96.37
2016.00,96.41
2015.00,96.44
2014.00,96.46
2013.00,96.45
2012.00,96.43
2011.00,96.41
2010.00,96.42
2009.00,96.45
2008.00,96.50
2007.00,96.55
2006.00,96.60
2005.00,96.65
2004.00,96.68
2003.00,96.71
2002.00,96.75
2001.00,96.78
2000.00,96.81
1999.00,96.81
1998.00,96.78
1997.00,96.74
1996.00,96.70
1995.00,96.67
1994.00,96.65
1993.00,96.62
1992.00,96.58
1991.00,96.57
1990.00,96.59
1989.00,96.63
1988.00,96.67
1987.00,96.69
1986.00,96.70
1985.00,96.67
1984.00,96.61
1983.00,96.52
1982.00,96.42
1981.00,96.34
1980.00,96.31
1979.00,96.33
1978.00,96.38
1977.00,96.43
1976.00,96.46
1975.00,96.50
1974.00,96.56
1973.00,96.64
1972.00,96.72
1971.00,96.77
1970.00,96.78
1969.00,96.77
1968.00,96.75
1967.00,96.75
1966.00,96.77
1965.00,96.82
1964.00,96.90
1963.00,96.98
1962.00,97.06
1961.00,97.10
1960.00,97.09
1959.00,97.05
1958.00,97.00
1957.00,97.00
1956.00,97.03
1955.00,97.08
1954.00,97.13
1953.00,97.16
1952.00,97.17
1951.00,97.17
1950.00,97.17
1949.00,97.19
1948.00,97.24
1947.00,97.31
1946.00,97.38
1945.00,97.42
1944.00,97.44
1943.00,97.42
1942.00,97.39
1941.00,97.38
1940.00,97.39
1939.00,97.44
1938.00,97.50
1937.00,97.55
1936.00,97.59
1935.00,97.61
1934.00,97.63
1933.00,97.63
1932.00,97.62
1931.00,97.61
1930.00,97.60
1929.00,97.59
1928.00,97.59
1927.00,97.61
1926.00,97.65
1925.00,97.69
1924.00,97.72
1923.00,97.74
1922.00,97.75
1921.00,97.75
1920.00,97.74
1919.00,97.74
1918.00,97.75
1917.00,97.76
1916.00,97.77
1915.00,97.76
1914.00,97.76
1913.00,97.76
1912.00,97.78
1911.00,97.80
1910.00,97.81
1909.00,97.80
1908.00,97.78
1907.00,97.78
1906.00,97.81
1905.00,97.85
1904.00,97.88
1903.00,97.89
1902.00,97.91
1901.00,97.92
1900.00,97.93
1899.00,97.93
1898.00,97.94
1897.00,97.94
1896.00,97.93
1895.00,97.92
1894.00,97.91
1893.00,97.92
1892.00,97.94
1891.00,97.98
1890.00,98.02
1889.00,98.04
1888.00,98.04
1887.00,98.02
1886.00,98.01
1885.00,98.01
1884.00,98.02
1883.00,98.03
1882.00,98.04
1881.00,98.05
1880.00,98.06
1879.00,98.08
1878.00,98.07
1877.00,98.06
1876.00,98.05
1875.00,98.05
1874.00,98.07
1873.00,98.08
1872.00,98.09
1871.00,98.08
1870.00,98.07
1869.00,98.05
1868.00,98.03
1867.00,98.02
1866.00,98.03
1865.00,98.05
1864.00,98.08
1863.00,98.11
1862.00,98.14
1861.00,98.15
1860.00,98.15
1859.00,98.15
1858.00,98.15
1857.00,98.17
1856.00,98.19
1855.00,98.21
1854.00,98.21
1853.00,98.20
1852.00,98.18
1851.00,98.16
1850.00,98.15
1849.00,98.16
1848.00,98.18
1847.00,98.21
1846.00,98.22
1845.00,98.22
1844.00,98.22
1843.00,98.21
1842.00,98.21
1841.00,98.20
1840.00,98.20
1839.00,98.21
1838.00,98.23
1837.00,98.25
1836.00,98.25
1835.00,98.27
1834.00,98.29
1833.00,98.31
1832.00,98.33
1831.00,98.34
1830.00,98.32
1829.00,98.30
1828.00,98.26
1827.00,98.24
1826.00,98.22
1825.00,98.22
1824.00,98.23
1823.00,98.25
1822.00,98.27
1821.00,98.27
1820.00,98.28
1819.00,98.31
1818.00,98.34
1817.00,98.37
1816.00,98.37
1815.00,98.36
1814.00,98.34
1813.00,98.32
1812.00,98.30
1811.00,98.30
1810.00,98.30
1809.00,98.30
1808.00,98.30
1807.00,98.31
1806.00,98.32
1805.00,98.33
1804.00,98.33
1803.00,98.32
1802.00,98.33
1801.00,98.34
1800.00,98.35
1799.00,98.35
1798.00,98.34
1797.00,98.34
1796.00,98.35
1795.00,98.37
1794.00,98.39
1793.00,98.41
1792.00,98.41
1791.00,98.40
1790.00,98.38
1789.00,98.37
1788.00,98.36
1787.00,98.36
1786.00,98.35
1785.00,98.36
1784.00,98.36
1783.00,98.35
1782.00,98.34
1781.00,98.33
1780.00,98.33
1779.00,98.34
1778.00,98.34
1777.00,98.34
1776.00,98.33
1775.00,98.32
1774.00,98.30
1773.00,98.29
1772.00,98.28
1771.00,98.28
1770.00,98.28
1769.00,98.27
1768.00,98.24
1767.00,98.21
1766.00,98.20
1765.00,98.20
1764.00,98.18
1763.00,98.16
1762.00,98.13
1761.00,98.12
1760.00,98.11
1759.00,98.10
1758.00,98.07
1757.00,98.03
1756.00,98.00
1755.00,97.97
1754.00,97.95
1753.00,97.91
1752.00,97.85
1751.00,97.78
1750.00,97.71
1749.00,97.66
1748.00,97.62
1747.00,97.58
1746.00,97.54
1745.00,97.47
1744.00,97.39
1743.00,97.32
1742.00,97.27
1741.00,97.23
1740.00,97.21
1739.00,97.19
1738.00,97.17
1737.00,97.15
1736.00,97.11
1735.00,97.08
1734.00,97.07
1733.00,97.07
1732.00,97.07
1731.00,97.08
1730.00,97.09
1729.00,97.10
1728.00,97.09
1727.00,97.08
1726.00,97.07
1725.00,97.06
1724.00,97.05
1723.00,97.04
1722.00,97.04
1721.00,97.02
1720.00,97.01
1719.00,97.00
1718.00,97.01
1717.00,97.02
1716.00,97.01
1715.00,97.00
1714.00,96.99
1713.00,96.98
1712.00,96.97
1711.00,96.97
1710.00,96.97
1709.00,96.97
1708.00,96.97
1707.00,96.98
1706.00,97.01
1705.00,97.04
1704.00,97.06
1703.00,97.05
1702.00,97.04
1701.00,97.04
1700.00,97.04
1699.00,97.04
1698.00,97.02
1697.00,96.99
1696.00,96.96
1695.00,96.94
1694.00,96.93
1693.00,96.93
1692.00,96.93
1691.00,96.91
1690.00,96.90
1689.00,96.88
1688.00,96.85
1687.00,96.81
1686.00,96.75
1685.00,96.70
1684.00,96.65
1683.00,96.62
1682.00,96.59
1681.00,96.55
1680.00,96.50
1679.00,96.45
1678.00,96.40
1677.00,96.34
1676.00,96.27
1675.00,96.22
1674.00,96.19
1673.00,96.18
1672.00,96.16
1671.00,96.12
1670.00,96.07
1669.00,96.00
1668.00,95.92
1667.00,95.85
1666.00,95.80
1665.00,95.74
1664.00,95.67
1663.00,95.60
1662.00,95.56
1661.00,95.53
1660.00,95.50
1659.00,95.46
1658.00,95.42
1657.00,95.39
1656.00,95.33
1655.00,95.25
1654.00,95.15
1653.00,95.06
1652.00,94.99
1651.00,94.97
1650.00,94.98
1649.00,94.97
1648.00,94.94
1647.00,94.89
1646.00,94.83
1645.00,94.77
1644.00,94.73
1643.00,94.72
1642.00,94.71
1641.00,94.69
1640.00,94.66
1639.00,94.62
1638.00,94.57
1637.00,94.53
1636.00,94.49
1635.00,94.44
1634.00,94.41
1633.00,94.39
1632.00,94.38
1631.00,94.37
1630.00,94.36
1629.00,94.37
1628.00,94.38
1627.00,94.38
1626.00,94.38
1625.00,94.35
1624.00,94.33
1623.00,94.32
1622.00,94.34
1621.00,94.36
1620.00,94.38
1619.00,94.39
1618.00,94.41
1617.00,94.44
1616.00,94.46
1615.00,94.47
1614.00,94.45
1613.00,94.43
1612.00,94.41
1611.00,94.40
1610.00,94.42
1609.00,94.45
1608.00,94.47
1607.00,94.48
1606.00,94.49
1605.00,94.49
1604.00,94.50
1603.00,94.51
1602.00,94.54
1601.00,94.57
1600.00,94.61
1599.00,94.65
1598.00,94.70
1597.00,94.74
1596.00,94.78
1595.00,94.82
1594.00,94.87
1593.00,94.92
1592.00,94.98
1591.00,95.05
1590.00,95.12
1589.00,95.19
1588.00,95.24
1587.00,95.29
1586.00,95.33
1585.00,95.38
1584.00,95.44
1583.00,95.49
1582.00,95.55
1581.00,95.60
1580.00,95.66
1579.00,95.71
1578.00,95.77
1577.00,95.83
1576.00,95.88
1575.00,95.92
1574.00,95.96
1573.00,95.99
1572.00,96.02
1571.00,96.05
1570.00,96.09
1569.00,96.12
1568.00,96.15
1567.00,96.18
1566.00,96.22
1565.00,96.25
1564.00,96.29
1563.00,96.32
1562.00,96.35
1561.00,96.39
1560.00,96.42
1559.00,96.46
1558.00,96.49
1557.00,96.50
1556.00,96.51
1555.00,96.50
1554.00,96.51
1553.00,96.53
1552.00,96.54
1551.00,96.56
1550.00,96.59
1549.00,96.61
1548.00,96.62
1547.00,96.63
1546.00,96.64
1545.00,96.65
1544.00,96.68
1543.00,96.70
1542.00,96.72
1541.00,96.74
1540.00,96.75
1539.00,96.76
1538.00,96.76
1537.00,96.78
1536.00,96.79
1535.00,96.79
1534.00,96.78
1533.00,96.78
1532.00,96.78
1531.00,96.78
1530.00,96.79
1529.00,96.80
1528.00,96.81
1527.00,96.80
1526.00,96.79
1525.00,96.79
1524.00,96.79
1523.00,96.80
1522.00,96.80
1521.00,96.81
1520.00,96.81
1519.00,96.82
1518.00,96.83
1517.00,96.83
1516.00,96.83
1515.00,96.84
1514.00,96.85
1513.00,96.85
1512.00,96.85
1511.00,96.86
1510.00,96.88
1509.00,96.90
1508.00,96.93
1507.00,96.97
1506.00,96.99
1505.00,96.99
1504.00,96.99
1503.00,97.00
1502.00,97.01
1501.00,97.00
1500.00,96.98
1499.00,96.95
1498.00,96.92
1497.00,96.90
1496.00,96.88
1495.00,96.88
1494.00,96.88
1493.00,96.86
1492.00,96.83
1491.00,96.78
1490.00,96.72
1489.00,96.67
1488.00,96.60
1487.00,96.51
1486.00,96.41
1485.00,96.29
1484.00,96.17
1483.00,96.06
1482.00,95.95
1481.00,95.87
1480.00,95.81
1479.00,95.75
1478.00,95.70
1477.00,95.62
1476.00,95.52
1475.00,95.42
1474.00,95.29
1473.00,95.14
1472.00,95.00
1471.00,94.89
1470.00,94.80
1469.00,94.71
1468.00,94.60
1467.00,94.46
1466.00,94.30
1465.00,94.14
1464.00,94.00
1463.00,93.91
1462.00,93.84
1461.00,93.78
1460.00,93.69
1459.00,93.58
1458.00,93.44
1457.00,93.30
1456.00,93.20
1455.00,93.14
1454.00,93.11
1453.00,93.08
1452.00,93.04
1451.00,92.99
1450.00,92.95
1449.00,92.91
1448.00,92.89
1447.00,92.87
1446.00,92.86
1445.00,92.84
1444.00,92.81
1443.00,92.78
1442.00,92.74
1441.00,92.67
1440.00,92.59
1439.00,92.48
1438.00,92.34
1437.00,92.17
1436.00,92.00
1435.00,91.85
1434.00,91.71
1433.00,91.55
1432.00,91.37
1431.00,91.22
1430.00,91.10
1429.00,91.02
1428.00,90.98
1427.00,90.99
1426.00,91.02
1425.00,91.07
1424.00,91.14
1423.00,91.24
1422.00,91.33
1421.00,91.44
1420.00,91.57
1419.00,91.76
1418.00,91.95
1417.00,92.12
1416.00,92.27
1415.00,92.40
1414.00,92.51
1413.00,92.61
1412.00,92.70
1411.00,92.77
1410.00,92.83
1409.00,92.87
1408.00,92.90
1407.00,92.93
1406.00,92.95
1405.00,92.97
1404.00,93.00
1403.00,93.03
1402.00,93.06
1401.00,93.09
1400.00,93.12
1399.00,93.15
1398.00,93.19
1397.00,93.21
1396.00,93.22
1395.00,93.22
1394.00,93.23
1393.00,93.23
1392.00,93.23
1391.00,93.22
1390.00,93.18
1389.00,93.12
1388.00,93.03
1387.00,92.94
1386.00,92.84
1385.00,92.72
1384.00,92.58
1383.00,92.41
1382.00,92.22
1381.00,92.01
1380.00,91.80
1379.00,91.58
1378.00,91.36
1377.00,91.15
1376.00,90.91
1375.00,90.66
1374.00,90.40
1373.00,90.17
1372.00,89.99
1371.00,89.88
1370.00,89.83
1369.00,89.82
1368.00,89.84
1367.00,89.87
1366.00,89.89
1365.00,89.89
1364.00,89.86
1363.00,89.83
1362.00,89.82
1361.00,89.83
1360.00,89.86
1359.00,89.92
1358.00,89.97
1357.00,90.03
1356.00,90.09
1355.00,90.17
1354.00,90.27
1353.00,90.37
1352.00,90.47
1351.00,90.56
1350.00,90.61
1349.00,90.62
1348.00,90.57
1347.00,90.47
1346.00,90.32
1345.00,90.13
1344.00,89.91
1343.00,89.69
1342.00,89.48
1341.00,89.27
1340.00,89.06
1339.00,88.87
1338.00,88.71
1337.00,88.58
1336.00,88.49
1335.00,88.46
1334.00,88.49
1333.00,88.57
1332.00,88.69
1331.00,88.83
1330.00,88.97
1329.00,89.07
1328.00,89.13
1327.00,89.14
1326.00,89.10
1325.00,89.00
1324.00,88.85
1323.00,88.65
1322.00,88.42
1321.00,88.15
1320.00,87.87
1319.00,87.58
1318.00,87.33
1317.00,87.13
1316.00,87.01
1315.00,86.97
1314.00,87.03
1313.00,87.16
1312.00,87.36
1311.00,87.60
1310.00,87.87
1309.00,88.17
1308.00,88.47
1307.00,88.78
1306.00,89.09
1305.00,89.39
1304.00,89.69
1303.00,89.98
1302.00,90.26
1301.00,90.52
1300.00,90.73
1299.00,90.91
1298.00,91.06
1297.00,91.16
1296.00,91.23
1295.00,91.28
1294.00,91.30
1293.00,91.30
1292.00,91.29
1291.00,91.29
1290.00,91.29
1289.00,91.28
1288.00,91.25
1287.00,91.20
1286.00,91.13
1285.00,91.03
1284.00,90.91
1283.00,90.80
1282.00,90.71
1281.00,90.66
1280.00,90.65
1279.00,90.67
1278.00,90.71
1277.00,90.76
1276.00,90.81
1275.00,90.87
1274.00,90.95
1273.00,91.04
1272.00,91.12
1271.00,91.19
1270.00,91.26
1269.00,91.31
1268.00,91.37
1267.00,91.42
1266.00,91.48
1265.00,91.55
1264.00,91.60
1263.00,91.64
1262.00,91.67
1261.00,91.68
1260.00,91.71
1259.00,91.74
1258.00,91.76
1257.00,91.78
1256.00,91.78
1255.00,91.78
1254.00,91.76
1253.00,91.74
1252.00,91.71
1251.00,91.67
1250.00,91.64
1249.00,91.63
1248.00,91.63
1247.00,91.66
1246.00,91.71
1245.00,91.78
1244.00,91.85
1243.00,91.92
1242.00,91.98
1241.00,92.03
1240.00,92.06
1239.00,92.08
1238.00,92.08
1237.00,92.08
1236.00,92.09
1235.00,92.12
1234.00,92.19
1233.00,92.29
1232.00,92.43
1231.00,92.58
1230.00,92.73
1229.00,92.87
1228.00,93.00
1227.00,93.11
1226.00,93.22
1225.00,93.34
1224.00,93.46
1223.00,93.59
1222.00,93.71
1221.00,93.81
1220.00,93.90
1219.00,93.98
1218.00,94.05
1217.00,94.11
1216.00,94.14
1215.00,94.12
1214.00,94.07
1213.00,93.95
1212.00,93.78
1211.00,93.55
1210.00,93.26
1209.00,92.97
1208.00,92.71
1207.00,92.51
1206.00,92.36
1205.00,92.27
1204.00,92.21
1203.00,92.20
1202.00,92.23
1201.00,92.31
1200.00,92.41
1199.00,92.53
1198.00,92.66
1197.00,92.80
1196.00,92.95
1195.00,93.09
1194.00,93.23
1193.00,93.36
1192.00,93.48
1191.00,93.58
1190.00,93.67
1189.00,93.72
1188.00,93.76
1187.00,93.77
1186.00,93.78
1185.00,93.76
1184.00,93.71
1183.00,93.64
1182.00,93.53
1181.00,93.39
1180.00,93.20
1179.00,92.99
1178.00,92.74
1177.00,92.46
1176.00,92.16
1175.00,91.82
1174.00,91.44
1173.00,90.98
1172.00,90.45
1171.00,89.86
1170.00,89.21
1169.00,88.53
1168.00,87.80
1167.00,87.08
1166.00,86.40
1165.00,85.78
1164.00,85.25
1163.00,84.83
1162.00,84.53
1161.00,84.34
1160.00,84.26
1159.00,84.29
1158.00,84.40
1157.00,84.57
1156.00,84.78
1155.00,85.01
1154.00,85.24
1153.00,85.46
1152.00,85.68
1151.00,85.89
1150.00,86.10
1149.00,86.30
1148.00,86.50
1147.00,86.73
1146.00,86.98
1145.00,87.24
1144.00,87.52
1143.00,87.81
1142.00,88.09
1141.00,88.33
1140.00,88.49
1139.00,88.57
1138.00,88.56
1137.00,88.48
1136.00,88.33
1135.00,88.14
1134.00,87.93
1133.00,87.68
1132.00,87.39
1131.00,87.06
1130.00,86.68
1129.00,86.26
1128.00,85.77
1127.00,85.25
1126.00,84.71
1125.00,84.21
1124.00,83.76
1123.00,83.36
1122.00,82.97
1121.00,82.54
1120.00,82.03
1119.00,81.44
1118.00,80.77
1117.00,80.02
1116.00,79.21
1115.00,78.38
1114.00,77.59
1113.00,76.89
1112.00,76.32
1111.00,75.88
1110.00,75.57
1109.00,75.37
1108.00,75.27
1107.00,75.23
1106.00,75.23
1105.00,75.23
1104.00,75.24
1103.00,75.28
1102.00,75.40
1101.00,75.58
1100.00,75.84
1099.00,76.16
1098.00,76.54
1097.00,76.91
1096.00,77.25
1095.00,77.58
1094.00,77.91
1093.00,78.21
1092.00,78.48
1091.00,78.71
1090.00,78.89
1089.00,79.04
1088.00,79.16
1087.00,79.26
1086.00,79.34
1085.00,79.38
1084.00,79.36
1083.00,79.31
1082.00,79.21
1081.00,79.03
1080.00,78.76
1079.00,78.40
1078.00,77.99
1077.00,77.56
1076.00,77.17
1075.00,76.83
1074.00,76.52
1073.00,76.19
1072.00,75.80
1071.00,75.36
1070.00,74.85
1069.00,74.27
1068.00,73.61
1067.00,72.86
1066.00,72.02
1065.00,71.05
1064.00,70.00
1063.00,68.93
1062.00,67.90
1061.00,66.94
1060.00,66.08
1059.00,65.38
1058.00,64.83
1057.00,64.39
1056.00,64.04
1055.00,63.80
1054.00,63.68
1053.00,63.67
1052.00,63.74
1051.00,63.92
1050.00,64.23
1049.00,64.61
1048.00,65.04
1047.00,65.49
1046.00,65.90
1045.00,66.25
1044.00,66.50
1043.00,66.64
1042.00,66.66
1041.00,66.55
1040.00,66.29
1039.00,65.90
1038.00,65.38
1037.00,64.79
1036.00,64.18
1035.00,63.65
1034.00,63.23
1033.00,62.93
1032.00,62.76
1031.00,62.69
1030.00,62.69
1029.00,62.73
1028.00,62.83
1027.00,63.00
1026.00,63.25
1025.00,63.54
1024.00,63.82
1023.00,64.10
1022.00,64.36
1021.00,64.61
1020.00,64.83
1019.00,65.05
1018.00,65.26
1017.00,65.44
1016.00,65.60
1015.00,65.75
1014.00,65.88
1013.00,65.99
1012.00,66.10
1011.00,66.23
1010.00,66.37
1009.00,66.48
1008.00,66.53
1007.00,66.54
1006.00,66.53
1005.00,66.51
1004.00,66.48
1003.00,66.47
1002.00,66.48
1001.00,66.52
1000.00,66.62
999.00,66.78
998.00,67.01
997.00,67.27
996.00,67.55
995.00,67.84
994.00,68.12
993.00,68.37
992.00,68.60
991.00,68.78
990.00,68.91
989.00,68.95
988.00,68.93
987.00,68.89
986.00,68.90
985.00,68.98
984.00,69.18
983.00,69.54
982.00,70.05
981.00,70.68
980.00,71.38
979.00,72.11
978.00,72.86
977.00,73.60
976.00,74.31
975.00,74.99
974.00,75.65
973.00,76.25
972.00,76.79
971.00,77.28
970.00,77.74
969.00,78.17
968.00,78.57
967.00,78.94
966.00,79.29
965.00,79.63
964.00,79.96
963.00,80.28
962.00,80.59
961.00,80.90
960.00,81.21
959.00,81.52
958.00,81.82
957.00,82.11
956.00,82.38
955.00,82.64
954.00,82.89
953.00,83.13
952.00,83.37
951.00,83.60
950.00,83.83
949.00,84.04
948.00,84.25
947.00,84.48
946.00,84.72
945.00,84.94
944.00,85.15
943.00,85.33
942.00,85.50
941.00,85.65
940.00,85.78
939.00,85.92
938.00,86.05
937.00,86.17
936.00,86.27
935.00,86.36
934.00,86.45
933.00,86.55
932.00,86.65
931.00,86.75
930.00,86.86
929.00,86.99
928.00,87.10
927.00,87.21
926.00,87.30
925.00,87.37
924.00,87.43
923.00,87.49
922.00,87.56
921.00,87.64
920.00,87.72
919.00,87.80
918.00,87.84
917.00,87.84
916.00,87.81
915.00,87.77
914.00,87.72
913.00,87.67
912.00,87.61
911.00,87.57
910.00,87.52
909.00,87.47
908.00,87.40
907.00,87.32
906.00,87.25
905.00,87.19
904.00,87.13
903.00,87.07
902.00,87.00
901.00,86.93
900.00,86.88
899.00,86.84
898.00,86.83
897.00,86.84
896.00,86.86
895.00,86.90
894.00,86.96
893.00,87.05
892.00,87.16
891.00,87.28
890.00,87.41
889.00,87.55
888.00,87.71
887.00,87.87
886.00,88.04
885.00,88.20
884.00,88.37
883.00,88.52
882.00,88.67
881.00,88.78
880.00,88.89
879.00,88.98
878.00,89.08
877.00,89.18
876.00,89.30
875.00,89.41
874.00,89.50
873.00,89.57
872.00,89.63
871.00,89.71
870.00,89.79
869.00,89.85
868.00,89.88
867.00,89.92
866.00,89.98
865.00,90.04
864.00,90.10
863.00,90.14
862.00,90.19
861.00,90.24
860.00,90.28
859.00,90.30
858.00,90.30
857.00,90.29
856.00,90.29
855.00,90.30
854.00,90.32
853.00,90.34
852.00,90.36
851.00,90.37
850.00,90.38
849.00,90.39
848.00,90.41
847.00,90.43
846.00,90.45
845.00,90.49
844.00,90.54
843.00,90.59
842.00,90.61
841.00,90.58
840.00,90.52
839.00,90.47
838.00,90.45
837.00,90.47
836.00,90.48
835.00,90.48
834.00,90.47
833.00,90.46
832.00,90.45
831.00,90.43
830.00,90.40
829.00,90.36
828.00,90.33
827.00,90.32
826.00,90.33
825.00,90.34
824.00,90.35
823.00,90.36
822.00,90.35
821.00,90.30
820.00,90.23
819.00,90.15
818.00,90.11
817.00,90.11
816.00,90.11
815.00,90.10
814.00,90.07
813.00,90.05
812.00,90.04
811.00,90.03
810.00,90.02
809.00,90.01
808.00,90.02
807.00,90.06
806.00,90.11
805.00,90.13
804.00,90.11
803.00,90.08
802.00,90.06
801.00,90.06
800.00,90.07
799.00,90.07
798.00,90.06
797.00,90.02
796.00,89.98
795.00,89.94
794.00,89.90
793.00,89.87
792.00,89.84
791.00,89.81
790.00,89.78
789.00,89.73
788.00,89.66
787.00,89.57
786.00,89.50
785.00,89.46
784.00,89.46
783.00,89.49
782.00,89.51
781.00,89.49
780.00,89.43
779.00,89.36
778.00,89.29
777.00,89.23
776.00,89.16
775.00,89.12
774.00,89.10
773.00,89.11
772.00,89.11
771.00,89.07
770.00,89.02
769.00,88.96
768.00,88.92
767.00,88.88
766.00,88.84
765.00,88.80
764.00,88.75
763.00,88.72
762.00,88.67
761.00,88.62
760.00,88.55
759.00,88.48
758.00,88.41
757.00,88.33
756.00,88.25
755.00,88.17
754.00,88.10
753.00,88.02
752.00,87.95
751.00,87.89
750.00,87.82
749.00,87.73
748.00,87.62
747.00,87.51
746.00,87.42
745.00,87.34
744.00,87.28
743.00,87.23
742.00,87.18
741.00,87.09
740.00,86.98
739.00,86.89
738.00,86.82
737.00,86.76
736.00,86.66
735.00,86.54
734.00,86.40
733.00,86.25
732.00,86.07
731.00,85.86
730.00,85.65
729.00,85.42
728.00,85.18
727.00,84.93
726.00,84.68
725.00,84.40
724.00,84.11
723.00,83.82
722.00,83.52
721.00,83.21
720.00,82.88
719.00,82.59
718.00,82.35
717.00,82.16
716.00,81.97
715.00,81.77
714.00,81.57
713.00,81.37
712.00,81.17
711.00,81.02
710.00,80.93
709.00,80.84
708.00,80.74
707.00,80.62
706.00,80.48
705.00,80.36
704.00,80.26
703.00,80.19
702.00,80.14
701.00,80.09
700.00,80.03
699.00,80.00
698.00,80.00
697.00,79.99
696.00,79.97
695.00,79.94
694.00,79.94
693.00,79.94
692.00,79.92
691.00,79.86
690.00,79.82
689.00,79.78
688.00,79.74
687.00,79.68
686.00,79.61
685.00,79.52
684.00,79.42
683.00,79.31
682.00,79.19
681.00,79.03
680.00,78.78
679.00,78.49
678.00,78.17
677.00,77.84
676.00,77.51
675.00,77.18
674.00,76.85
673.00,76.49
672.00,76.10
671.00,75.75
670.00,75.44
669.00,75.07
668.00,74.57
667.00,74.16
666.00,73.96
665.00,73.87
664.00,73.77
663.00,73.65
662.00,73.55
661.00,73.56
660.00,73.71
659.00,74.02
658.00,74.41
657.00,74.74
656.00,74.99
655.00,75.21
654.00,75.40
653.00,75.53
652.00,75.60
651.00,75.68
650.00,75.78
649.00,75.88
648.00,75.90
647.00,75.88
646.00,75.86
645.00,75.85
644.00,75.78
643.00,75.61
642.00,75.39
641.00,75.18
640.00,75.04
639.00,74.95
638.00,74.85
637.00,74.68
636.00,74.48
635.00,74.33
634.00,74.22
633.00,74.05
632.00,73.82
631.00,73.64
630.00,73.64
629.00,73.72
628.00,73.69
627.00,73.48
626.00,73.15
625.00,72.76
624.00,72.34
623.00,71.93
622.00,71.58
621.00,71.38
620.00,71.38
619.00,71.51
618.00,71.49
617.00,71.16
616.00,70.70
615.00,70.46
614.00,70.48
613.00,70.52
612.00,70.43
611.00,70.36
610.00,70.41
609.00,70.42
608.00,70.29
607.00,70.16
606.00,70.17
605.00,70.30
604.00,70.45
603.00,70.60
602.00,70.74
601.00,70.82
600.00,70.84
599.00,70.87
598.00,70.85
597.00,70.64
596.00,70.22
595.00,69.75
594.00,69.35
593.00,68.94
592.00,68.58
591.00,68.55
590.00,68.96
589.00,69.49
588.00,69.76
587.00,69.71
586.00,69.61
585.00,69.63
584.00,69.77
583.00,69.98
582.00,70.16
581.00,70.21
580.00,70.13
579.00,70.08
578.00,70.14
577.00,70.26
576.00,70.48
575.00,70.82
574.00,71.07
573.00,70.89
572.00,70.32
571.00,69.69
570.00,69.15
569.00,68.53
568.00,67.91
567.00,67.69
566.00,67.94
565.00,68.15
564.00,67.91
563.00,67.32
562.00,66.61
561.00,65.81
560.00,65.03
559.00,64.65
558.00,64.81
557.00,65.19
556.00,65.50
555.00,65.75
554.00,65.94
553.00,65.95
552.00,65.91
551.00,66.29
550.00,67.15
