Created as New Dataset,Bio-Couture 3x2/16 Cotton (Red)
cm-1,%T
4000.00,100.78
3999.00,100.76
3998.00,100.74
3997.00,100.72
3996.00,100.70
3995.00,100.69
3994.00,100.68
3993.00,100.68
3992.00,100.68
3991.00,100.69
3990.00,100.69
3989.00,100.69
3988.00,100.68
3987.00,100.68
3986.00,100.68
3985.00,100.69
3984.00,100.70
3983.00,100.70
3982.00,100.70
3981.00,100.70
3980.00,100.69
3979.00,100.69
3978.00,100.69
3977.00,100.69
3976.00,100.69
3975.00,100.71
3974.00,100.73
3973.00,100.75
3972.00,100.76
3971.00,100.75
3970.00,100.72
3969.00,100.69
3968.00,100.66
3967.00,100.65
3966.00,100.65
3965.00,100.67
3964.00,100.68
3963.00,100.69
3962.00,100.68
3961.00,100.67
3960.00,100.67
3959.00,100.67
3958.00,100.68
3957.00,100.69
3956.00,100.70
3955.00,100.71
3954.00,100.72
3953.00,100.73
3952.00,100.74
3951.00,100.75
3950.00,100.75
3949.00,100.74
3948.00,100.73
3947.00,100.72
3946.00,100.72
3945.00,100.70
3944.00,100.69
3943.00,100.68
3942.00,100.68
3941.00,100.69
3940.00,100.69
3939.00,100.69
3938.00,100.69
3937.00,100.70
3936.00,100.73
3935.00,100.74
3934.00,100.74
3933.00,100.72
3932.00,100.69
3931.00,100.67
3930.00,100.67
3929.00,100.68
3928.00,100.70
3927.00,100.71
3926.00,100.72
3925.00,100.73
3924.00,100.73
3923.00,100.74
3922.00,100.73
3921.00,100.72
3920.00,100.71
3919.00,100.70
3918.00,100.69
3917.00,100.69
3916.00,100.68
3915.00,100.68
3914.00,100.68
3913.00,100.69
3912.00,100.70
3911.00,100.71
3910.00,100.72
3909.00,100.72
3908.00,100.73
3907.00,100.74
3906.00,100.75
3905.00,100.75
3904.00,100.75
3903.00,100.75
3902.00,100.75
3901.00,100.75
3900.00,100.75
3899.00,100.74
3898.00,100.74
3897.00,100.75
3896.00,100.75
3895.00,100.76
3894.00,100.77
3893.00,100.78
3892.00,100.77
3891.00,100.75
3890.00,100.73
3889.00,100.71
3888.00,100.69
3887.00,100.66
3886.00,100.66
3885.00,100.68
3884.00,100.73
3883.00,100.76
3882.00,100.77
3881.00,100.76
3880.00,100.77
3879.00,100.78
3878.00,100.80
3877.00,100.79
3876.00,100.78
3875.00,100.77
3874.00,100.78
3873.00,100.79
3872.00,100.79
3871.00,100.78
3870.00,100.77
3869.00,100.78
3868.00,100.79
3867.00,100.79
3866.00,100.78
3865.00,100.77
3864.00,100.77
3863.00,100.77
3862.00,100.76
3861.00,100.75
3860.00,100.74
3859.00,100.74
3858.00,100.75
3857.00,100.76
3856.00,100.77
3855.00,100.77
3854.00,100.74
3853.00,100.73
3852.00,100.75
3851.00,100.77
3850.00,100.75
3849.00,100.72
3848.00,100.72
3847.00,100.73
3846.00,100.74
3845.00,100.75
3844.00,100.76
3843.00,100.77
3842.00,100.79
3841.00,100.82
3840.00,100.85
3839.00,100.87
3838.00,100.88
3837.00,100.89
3836.00,100.88
3835.00,100.84
3834.00,100.80
3833.00,100.75
3832.00,100.73
3831.00,100.72
3830.00,100.74
3829.00,100.75
3828.00,100.75
3827.00,100.75
3826.00,100.77
3825.00,100.80
3824.00,100.84
3823.00,100.86
3822.00,100.84
3821.00,100.82
3820.00,100.81
3819.00,100.81
3818.00,100.78
3817.00,100.73
3816.00,100.70
3815.00,100.70
3814.00,100.72
3813.00,100.71
3812.00,100.69
3811.00,100.68
3810.00,100.69
3809.00,100.70
3808.00,100.70
3807.00,100.69
3806.00,100.70
3805.00,100.74
3804.00,100.78
3803.00,100.78
3802.00,100.75
3801.00,100.72
3800.00,100.72
3799.00,100.72
3798.00,100.71
3797.00,100.70
3796.00,100.70
3795.00,100.72
3794.00,100.72
3793.00,100.70
3792.00,100.69
3791.00,100.68
3790.00,100.68
3789.00,100.68
3788.00,100.68
3787.00,100.68
3786.00,100.69
3785.00,100.69
3784.00,100.71
3783.00,100.73
3782.00,100.74
3781.00,100.73
3780.00,100.70
3779.00,100.68
3778.00,100.66
3777.00,100.65
3776.00,100.63
3775.00,100.63
3774.00,100.65
3773.00,100.68
3772.00,100.70
3771.00,100.69
3770.00,100.67
3769.00,100.67
3768.00,100.67
3767.00,100.67
3766.00,100.67
3765.00,100.67
3764.00,100.69
3763.00,100.70
3762.00,100.70
3761.00,100.70
3760.00,100.69
3759.00,100.68
3758.00,100.67
3757.00,100.68
3756.00,100.70
3755.00,100.72
3754.00,100.75
3753.00,100.76
3752.00,100.74
3751.00,100.71
3750.00,100.69
3749.00,100.70
3748.00,100.71
3747.00,100.71
3746.00,100.69
3745.00,100.66
3744.00,100.65
3743.00,100.68
3742.00,100.70
3741.00,100.66
3740.00,100.63
3739.00,100.62
3738.00,100.63
3737.00,100.64
3736.00,100.63
3735.00,100.64
3734.00,100.65
3733.00,100.65
3732.00,100.63
3731.00,100.61
3730.00,100.59
3729.00,100.56
3728.00,100.52
3727.00,100.50
3726.00,100.51
3725.00,100.55
3724.00,100.58
3723.00,100.60
3722.00,100.60
3721.00,100.59
3720.00,100.59
3719.00,100.59
3718.00,100.59
3717.00,100.58
3716.00,100.57
3715.00,100.55
3714.00,100.54
3713.00,100.54
3712.00,100.56
3711.00,100.59
3710.00,100.60
3709.00,100.61
3708.00,100.60
3707.00,100.58
3706.00,100.57
3705.00,100.57
3704.00,100.56
3703.00,100.54
3702.00,100.52
3701.00,100.50
3700.00,100.50
3699.00,100.51
3698.00,100.52
3697.00,100.52
3696.00,100.52
3695.00,100.52
3694.00,100.51
3693.00,100.51
3692.00,100.52
3691.00,100.53
3690.00,100.52
3689.00,100.51
3688.00,100.50
3687.00,100.50
3686.00,100.49
3685.00,100.48
3684.00,100.47
3683.00,100.46
3682.00,100.46
3681.00,100.46
3680.00,100.45
3679.00,100.46
3678.00,100.47
3677.00,100.46
3676.00,100.42
3675.00,100.40
3674.00,100.42
3673.00,100.42
3672.00,100.39
3671.00,100.35
3670.00,100.32
3669.00,100.31
3668.00,100.32
3667.00,100.30
3666.00,100.26
3665.00,100.21
3664.00,100.17
3663.00,100.15
3662.00,100.15
3661.00,100.16
3660.00,100.16
3659.00,100.15
3658.00,100.12
3657.00,100.06
3656.00,100.02
3655.00,100.03
3654.00,100.05
3653.00,100.05
3652.00,100.03
3651.00,99.99
3650.00,99.95
3649.00,99.94
3648.00,99.95
3647.00,99.97
3646.00,99.97
3645.00,99.95
3644.00,99.91
3643.00,99.86
3642.00,99.83
3641.00,99.80
3640.00,99.77
3639.00,99.72
3638.00,99.67
3637.00,99.62
3636.00,99.58
3635.00,99.53
3634.00,99.51
3633.00,99.52
3632.00,99.54
3631.00,99.54
3630.00,99.50
3629.00,99.43
3628.00,99.38
3627.00,99.35
3626.00,99.31
3625.00,99.24
3624.00,99.19
3623.00,99.16
3622.00,99.15
3621.00,99.15
3620.00,99.15
3619.00,99.14
3618.00,99.12
3617.00,99.09
3616.00,99.05
3615.00,98.99
3614.00,98.94
3613.00,98.90
3612.00,98.87
3611.00,98.83
3610.00,98.79
3609.00,98.74
3608.00,98.70
3607.00,98.66
3606.00,98.63
3605.00,98.59
3604.00,98.56
3603.00,98.52
3602.00,98.47
3601.00,98.40
3600.00,98.33
3599.00,98.27
3598.00,98.21
3597.00,98.15
3596.00,98.11
3595.00,98.07
3594.00,98.05
3593.00,98.04
3592.00,98.03
3591.00,98.01
3590.00,97.97
3589.00,97.92
3588.00,97.86
3587.00,97.81
3586.00,97.76
3585.00,97.72
3584.00,97.66
3583.00,97.61
3582.00,97.55
3581.00,97.49
3580.00,97.43
3579.00,97.36
3578.00,97.29
3577.00,97.24
3576.00,97.20
3575.00,97.19
3574.00,97.17
3573.00,97.13
3572.00,97.07
3571.00,97.00
3570.00,96.91
3569.00,96.82
3568.00,96.75
3567.00,96.71
3566.00,96.69
3565.00,96.68
3564.00,96.64
3563.00,96.58
3562.00,96.51
3561.00,96.43
3560.00,96.36
3559.00,96.30
3558.00,96.23
3557.00,96.15
3556.00,96.07
3555.00,95.99
3554.00,95.92
3553.00,95.86
3552.00,95.82
3551.00,95.79
3550.00,95.75
3549.00,95.69
3548.00,95.61
3547.00,95.50
3546.00,95.40
3545.00,95.29
3544.00,95.21
3543.00,95.14
3542.00,95.08
3541.00,95.03
3540.00,94.96
3539.00,94.89
3538.00,94.81
3537.00,94.73
3536.00,94.66
3535.00,94.59
3534.00,94.52
3533.00,94.44
3532.00,94.37
3531.00,94.30
3530.00,94.23
3529.00,94.17
3528.00,94.11
3527.00,94.03
3526.00,93.93
3525.00,93.83
3524.00,93.74
3523.00,93.68
3522.00,93.62
3521.00,93.55
3520.00,93.47
3519.00,93.38
3518.00,93.29
3517.00,93.20
3516.00,93.10
3515.00,93.00
3514.00,92.90
3513.00,92.80
3512.00,92.71
3511.00,92.59
3510.00,92.46
3509.00,92.33
3508.00,92.19
3507.00,92.05
3506.00,91.91
3505.00,91.76
3504.00,91.59
3503.00,91.42
3502.00,91.26
3501.00,91.09
3500.00,90.93
3499.00,90.76
3498.00,90.58
3497.00,90.39
3496.00,90.19
3495.00,90.00
3494.00,89.82
3493.00,89.65
3492.00,89.49
3491.00,89.34
3490.00,89.22
3489.00,89.12
3488.00,89.05
3487.00,89.01
3486.00,88.99
3485.00,88.98
3484.00,88.96
3483.00,88.94
3482.00,88.93
3481.00,88.92
3480.00,88.91
3479.00,88.90
3478.00,88.88
3477.00,88.85
3476.00,88.80
3475.00,88.72
3474.00,88.64
3473.00,88.55
3472.00,88.45
3471.00,88.35
3470.00,88.25
3469.00,88.16
3468.00,88.07
3467.00,87.98
3466.00,87.90
3465.00,87.80
3464.00,87.70
3463.00,87.59
3462.00,87.47
3461.00,87.34
3460.00,87.20
3459.00,87.05
3458.00,86.90
3457.00,86.75
3456.00,86.60
3455.00,86.45
3454.00,86.29
3453.00,86.12
3452.00,85.93
3451.00,85.75
3450.00,85.56
3449.00,85.38
3448.00,85.20
3447.00,85.02
3446.00,84.86
3445.00,84.72
3444.00,84.59
3443.00,84.49
3442.00,84.39
3441.00,84.32
3440.00,84.27
3439.00,84.25
3438.00,84.26
3437.00,84.28
3436.00,84.30
3435.00,84.33
3434.00,84.35
3433.00,84.36
3432.00,84.36
3431.00,84.33
3430.00,84.30
3429.00,84.27
3428.00,84.26
3427.00,84.25
3426.00,84.24
3425.00,84.20
3424.00,84.14
3423.00,84.07
3422.00,83.98
3421.00,83.90
3420.00,83.83
3419.00,83.75
3418.00,83.68
3417.00,83.60
3416.00,83.52
3415.00,83.45
3414.00,83.38
3413.00,83.30
3412.00,83.23
3411.00,83.15
3410.00,83.08
3409.00,83.02
3408.00,82.96
3407.00,82.89
3406.00,82.82
3405.00,82.74
3404.00,82.67
3403.00,82.62
3402.00,82.56
3401.00,82.49
3400.00,82.42
3399.00,82.35
3398.00,82.29
3397.00,82.25
3396.00,82.20
3395.00,82.15
3394.00,82.10
3393.00,82.06
3392.00,82.01
3391.00,81.97
3390.00,81.91
3389.00,81.85
3388.00,81.78
3387.00,81.73
3386.00,81.67
3385.00,81.62
3384.00,81.56
3383.00,81.49
3382.00,81.41
3381.00,81.34
3380.00,81.27
3379.00,81.19
3378.00,81.11
3377.00,81.04
3376.00,80.96
3375.00,80.89
3374.00,80.82
3373.00,80.76
3372.00,80.70
3371.00,80.62
3370.00,80.54
3369.00,80.45
3368.00,80.36
3367.00,80.28
3366.00,80.19
3365.00,80.10
3364.00,80.01
3363.00,79.92
3362.00,79.83
3361.00,79.73
3360.00,79.63
3359.00,79.52
3358.00,79.41
3357.00,79.30
3356.00,79.19
3355.00,79.08
3354.00,78.96
3353.00,78.83
3352.00,78.70
3351.00,78.57
3350.00,78.46
3349.00,78.35
3348.00,78.24
3347.00,78.15
3346.00,78.05
3345.00,77.95
3344.00,77.86
3343.00,77.78
3342.00,77.71
3341.00,77.65
3340.00,77.60
3339.00,77.55
3338.00,77.50
3337.00,77.48
3336.00,77.48
3335.00,77.49
3334.00,77.51
3333.00,77.53
3332.00,77.55
3331.00,77.59
3330.00,77.64
3329.00,77.70
3328.00,77.76
3327.00,77.82
3326.00,77.88
3325.00,77.94
3324.00,78.00
3323.00,78.06
3322.00,78.13
3321.00,78.20
3320.00,78.26
3319.00,78.31
3318.00,78.35
3317.00,78.39
3316.00,78.42
3315.00,78.45
3314.00,78.47
3313.00,78.48
3312.00,78.49
3311.00,78.51
3310.00,78.53
3309.00,78.54
3308.00,78.54
3307.00,78.54
3306.00,78.52
3305.00,78.50
3304.00,78.48
3303.00,78.46
3302.00,78.44
3301.00,78.42
3300.00,78.42
3299.00,78.42
3298.00,78.43
3297.00,78.44
3296.00,78.44
3295.00,78.45
3294.00,78.46
3293.00,78.48
3292.00,78.51
3291.00,78.53
3290.00,78.54
3289.00,78.54
3288.00,78.55
3287.00,78.55
3286.00,78.56
3285.00,78.58
3284.00,78.61
3283.00,78.64
3282.00,78.69
3281.00,78.73
3280.00,78.77
3279.00,78.80
3278.00,78.84
3277.00,78.88
3276.00,78.91
3275.00,78.94
3274.00,78.98
3273.00,79.02
3272.00,79.09
3271.00,79.16
3270.00,79.23
3269.00,79.29
3268.00,79.35
3267.00,79.43
3266.00,79.52
3265.00,79.62
3264.00,79.72
3263.00,79.81
3262.00,79.89
3261.00,79.98
3260.00,80.08
3259.00,80.20
3258.00,80.32
3257.00,80.44
3256.00,80.54
3255.00,80.63
3254.00,80.71
3253.00,80.80
3252.00,80.90
3251.00,81.01
3250.00,81.12
3249.00,81.23
3248.00,81.34
3247.00,81.45
3246.00,81.56
3245.00,81.68
3244.00,81.80
3243.00,81.90
3242.00,81.98
3241.00,82.06
3240.00,82.13
3239.00,82.19
3238.00,82.26
3237.00,82.32
3236.00,82.39
3235.00,82.48
3234.00,82.59
3233.00,82.68
3232.00,82.77
3231.00,82.84
3230.00,82.90
3229.00,82.97
3228.00,83.04
3227.00,83.12
3226.00,83.20
3225.00,83.28
3224.00,83.36
3223.00,83.43
3222.00,83.49
3221.00,83.55
3220.00,83.62
3219.00,83.69
3218.00,83.77
3217.00,83.85
3216.00,83.92
3215.00,83.97
3214.00,84.02
3213.00,84.07
3212.00,84.14
3211.00,84.22
3210.00,84.30
3209.00,84.37
3208.00,84.43
3207.00,84.48
3206.00,84.53
3205.00,84.59
3204.00,84.66
3203.00,84.72
3202.00,84.78
3201.00,84.83
3200.00,84.87
3199.00,84.92
3198.00,84.98
3197.00,85.05
3196.00,85.13
3195.00,85.19
3194.00,85.25
3193.00,85.31
3192.00,85.37
3191.00,85.43
3190.00,85.46
3189.00,85.49
3188.00,85.52
3187.00,85.57
3186.00,85.62
3185.00,85.68
3184.00,85.75
3183.00,85.81
3182.00,85.85
3181.00,85.88
3180.00,85.91
3179.00,85.93
3178.00,85.96
3177.00,86.00
3176.00,86.05
3175.00,86.11
3174.00,86.17
3173.00,86.21
3172.00,86.23
3171.00,86.25
3170.00,86.29
3169.00,86.34
3168.00,86.40
3167.00,86.45
3166.00,86.50
3165.00,86.55
3164.00,86.60
3163.00,86.64
3162.00,86.68
3161.00,86.71
3160.00,86.76
3159.00,86.80
3158.00,86.85
3157.00,86.89
3156.00,86.94
3155.00,86.98
3154.00,87.02
3153.00,87.07
3152.00,87.12
3151.00,87.17
3150.00,87.23
3149.00,87.29
3148.00,87.36
3147.00,87.43
3146.00,87.49
3145.00,87.54
3144.00,87.58
3143.00,87.64
3142.00,87.69
3141.00,87.75
3140.00,87.81
3139.00,87.88
3138.00,87.94
3137.00,88.00
3136.00,88.06
3135.00,88.12
3134.00,88.19
3133.00,88.26
3132.00,88.33
3131.00,88.40
3130.00,88.46
3129.00,88.52
3128.00,88.59
3127.00,88.67
3126.00,88.75
3125.00,88.83
3124.00,88.91
3123.00,88.98
3122.00,89.05
3121.00,89.12
3120.00,89.20
3119.00,89.28
3118.00,89.37
3117.00,89.44
3116.00,89.51
3115.00,89.58
3114.00,89.65
3113.00,89.74
3112.00,89.83
3111.00,89.91
3110.00,89.99
3109.00,90.05
3108.00,90.11
3107.00,90.16
3106.00,90.21
3105.00,90.27
3104.00,90.34
3103.00,90.41
3102.00,90.49
3101.00,90.56
3100.00,90.62
3099.00,90.69
3098.00,90.76
3097.00,90.84
3096.00,90.93
3095.00,91.00
3094.00,91.07
3093.00,91.13
3092.00,91.19
3091.00,91.26
3090.00,91.33
3089.00,91.40
3088.00,91.47
3087.00,91.54
3086.00,91.62
3085.00,91.69
3084.00,91.76
3083.00,91.82
3082.00,91.88
3081.00,91.94
3080.00,92.01
3079.00,92.08
3078.00,92.14
3077.00,92.20
3076.00,92.25
3075.00,92.30
3074.00,92.37
3073.00,92.43
3072.00,92.50
3071.00,92.57
3070.00,92.62
3069.00,92.67
3068.00,92.73
3067.00,92.79
3066.00,92.84
3065.00,92.90
3064.00,92.96
3063.00,93.01
3062.00,93.06
3061.00,93.11
3060.00,93.15
3059.00,93.20
3058.00,93.25
3057.00,93.31
3056.00,93.37
3055.00,93.43
3054.00,93.49
3053.00,93.54
3052.00,93.59
3051.00,93.64
3050.00,93.69
3049.00,93.73
3048.00,93.77
3047.00,93.81
3046.00,93.85
3045.00,93.89
3044.00,93.93
3043.00,93.97
3042.00,94.02
3041.00,94.06
3040.00,94.11
3039.00,94.17
3038.00,94.22
3037.00,94.26
3036.00,94.30
3035.00,94.32
3034.00,94.35
3033.00,94.37
3032.00,94.41
3031.00,94.45
3030.00,94.49
3029.00,94.53
3028.00,94.57
3027.00,94.60
3026.00,94.64
3025.00,94.68
3024.00,94.72
3023.00,94.76
3022.00,94.78
3021.00,94.79
3020.00,94.81
3019.00,94.83
3018.00,94.86
3017.00,94.89
3016.00,94.91
3015.00,94.93
3014.00,94.95
3013.00,94.98
3012.00,95.01
3011.00,95.03
3010.00,95.06
3009.00,95.08
3008.00,95.09
3007.00,95.11
3006.00,95.11
3005.00,95.13
3004.00,95.14
3003.00,95.17
3002.00,95.20
3001.00,95.23
3000.00,95.25
2999.00,95.26
2998.00,95.28
2997.00,95.30
2996.00,95.31
2995.00,95.32
2994.00,95.32
2993.00,95.32
2992.00,95.31
2991.00,95.29
2990.00,95.26
2989.00,95.22
2988.00,95.17
2987.00,95.12
2986.00,95.05
2985.00,94.98
2984.00,94.93
2983.00,94.88
2982.00,94.86
2981.00,94.83
2980.00,94.81
2979.00,94.76
2978.00,94.71
2977.00,94.64
2976.00,94.56
2975.00,94.48
2974.00,94.38
2973.00,94.26
2972.00,94.13
2971.00,93.99
2970.00,93.87
2969.00,93.78
2968.00,93.71
2967.00,93.66
2966.00,93.61
2965.00,93.54
2964.00,93.45
2963.00,93.35
2962.00,93.26
2961.00,93.18
2960.00,93.10
2959.00,93.01
2958.00,92.91
2957.00,92.80
2956.00,92.70
2955.00,92.61
2954.00,92.53
2953.00,92.45
2952.00,92.38
2951.00,92.31
2950.00,92.24
2949.00,92.16
2948.00,92.07
2947.00,91.96
2946.00,91.86
2945.00,91.73
2944.00,91.60
2943.00,91.44
2942.00,91.26
2941.00,91.07
2940.00,90.86
2939.00,90.64
2938.00,90.41
2937.00,90.18
2936.00,89.94
2935.00,89.70
2934.00,89.47
2933.00,89.22
2932.00,88.97
2931.00,88.71
2930.00,88.43
2929.00,88.14
2928.00,87.80
2927.00,87.44
2926.00,87.06
2925.00,86.68
2924.00,86.30
2923.00,85.94
2922.00,85.61
2921.00,85.33
2920.00,85.14
2919.00,85.03
2918.00,85.04
2917.00,85.14
2916.00,85.31
2915.00,85.53
2914.00,85.76
2913.00,85.98
2912.00,86.17
2911.00,86.30
2910.00,86.37
2909.00,86.38
2908.00,86.37
2907.00,86.35
2906.00,86.35
2905.00,86.35
2904.00,86.37
2903.00,86.39
2902.00,86.43
2901.00,86.48
2900.00,86.52
2899.00,86.55
2898.00,86.58
2897.00,86.61
2896.00,86.62
2895.00,86.63
2894.00,86.64
2893.00,86.67
2892.00,86.73
2891.00,86.83
2890.00,86.96
2889.00,87.11
2888.00,87.27
2887.00,87.42
2886.00,87.56
2885.00,87.70
2884.00,87.83
2883.00,87.94
2882.00,88.02
2881.00,88.10
2880.00,88.17
2879.00,88.23
2878.00,88.29
2877.00,88.34
2876.00,88.39
2875.00,88.44
2874.00,88.50
2873.00,88.56
2872.00,88.63
2871.00,88.72
2870.00,88.81
2869.00,88.91
2868.00,89.01
2867.00,89.10
2866.00,89.18
2865.00,89.25
2864.00,89.31
2863.00,89.36
2862.00,89.38
2861.00,89.37
2860.00,89.33
2859.00,89.24
2858.00,89.12
2857.00,88.97
2856.00,88.77
2855.00,88.53
2854.00,88.27
2853.00,88.03
2852.00,87.87
2851.00,87.86
2850.00,88.03
2849.00,88.40
2848.00,88.90
2847.00,89.46
2846.00,90.00
2845.00,90.49
2844.00,90.91
2843.00,91.27
2842.00,91.57
2841.00,91.82
2840.00,92.03
2839.00,92.21
2838.00,92.37
2837.00,92.50
2836.00,92.62
2835.00,92.73
2834.00,92.84
2833.00,92.95
2832.00,93.04
2831.00,93.13
2830.00,93.20
2829.00,93.26
2828.00,93.32
2827.00,93.38
2826.00,93.45
2825.00,93.52
2824.00,93.59
2823.00,93.65
2822.00,93.70
2821.00,93.75
2820.00,93.80
2819.00,93.86
2818.00,93.91
2817.00,93.95
2816.00,93.99
2815.00,94.04
2814.00,94.07
2813.00,94.11
2812.00,94.13
2811.00,94.16
2810.00,94.19
2809.00,94.24
2808.00,94.29
2807.00,94.34
2806.00,94.38
2805.00,94.41
2804.00,94.43
2803.00,94.45
2802.00,94.47
2801.00,94.51
2800.00,94.56
2799.00,94.60
2798.00,94.64
2797.00,94.67
2796.00,94.70
2795.00,94.73
2794.00,94.76
2793.00,94.80
2792.00,94.83
2791.00,94.87
2790.00,94.90
2789.00,94.92
2788.00,94.95
2787.00,94.97
2786.00,95.00
2785.00,95.03
2784.00,95.07
2783.00,95.10
2782.00,95.13
2781.00,95.16
2780.00,95.19
2779.00,95.20
2778.00,95.20
2777.00,95.20
2776.00,95.21
2775.00,95.22
2774.00,95.25
2773.00,95.28
2772.00,95.32
2771.00,95.35
2770.00,95.38
2769.00,95.40
2768.00,95.41
2767.00,95.42
2766.00,95.43
2765.00,95.45
2764.00,95.47
2763.00,95.50
2762.00,95.52
2761.00,95.53
2760.00,95.53
2759.00,95.53
2758.00,95.53
2757.00,95.53
2756.00,95.54
2755.00,95.55
2754.00,95.55
2753.00,95.54
2752.00,95.54
2751.00,95.54
2750.00,95.54
2749.00,95.54
2748.00,95.55
2747.00,95.56
2746.00,95.57
2745.00,95.58
2744.00,95.58
2743.00,95.58
2742.00,95.59
2741.00,95.59
2740.00,95.59
2739.00,95.59
2738.00,95.58
2737.00,95.58
2736.00,95.58
2735.00,95.59
2734.00,95.58
2733.00,95.58
2732.00,95.57
2731.00,95.56
2730.00,95.57
2729.00,95.58
2728.00,95.60
2727.00,95.61
2726.00,95.63
2725.00,95.66
2724.00,95.68
2723.00,95.70
2722.00,95.71
2721.00,95.72
2720.00,95.73
2719.00,95.74
2718.00,95.76
2717.00,95.79
2716.00,95.80
2715.00,95.82
2714.00,95.82
2713.00,95.83
2712.00,95.84
2711.00,95.84
2710.00,95.85
2709.00,95.86
2708.00,95.89
2707.00,95.91
2706.00,95.94
2705.00,95.97
2704.00,95.99
2703.00,95.99
2702.00,95.98
2701.00,95.98
2700.00,95.98
2699.00,96.00
2698.00,96.02
2697.00,96.04
2696.00,96.06
2695.00,96.08
2694.00,96.10
2693.00,96.12
2692.00,96.14
2691.00,96.17
2690.00,96.19
2689.00,96.20
2688.00,96.22
2687.00,96.23
2686.00,96.24
2685.00,96.25
2684.00,96.26
2683.00,96.27
2682.00,96.28
2681.00,96.30
2680.00,96.31
2679.00,96.32
2678.00,96.33
2677.00,96.33
2676.00,96.33
2675.00,96.35
2674.00,96.36
2673.00,96.37
2672.00,96.38
2671.00,96.39
2670.00,96.40
2669.00,96.42
2668.00,96.44
2667.00,96.46
2666.00,96.46
2665.00,96.46
2664.00,96.44
2663.00,96.42
2662.00,96.41
2661.00,96.41
2660.00,96.42
2659.00,96.44
2658.00,96.45
2657.00,96.45
2656.00,96.46
2655.00,96.47
2654.00,96.48
2653.00,96.49
2652.00,96.48
2651.00,96.46
2650.00,96.44
2649.00,96.43
2648.00,96.44
2647.00,96.46
2646.00,96.49
2645.00,96.50
2644.00,96.50
2643.00,96.50
2642.00,96.49
2641.00,96.49
2640.00,96.49
2639.00,96.49
2638.00,96.48
2637.00,96.49
2636.00,96.50
2635.00,96.52
2634.00,96.54
2633.00,96.55
2632.00,96.56
2631.00,96.56
2630.00,96.57
2629.00,96.57
2628.00,96.58
2627.00,96.58
2626.00,96.59
2625.00,96.58
2624.00,96.57
2623.00,96.57
2622.00,96.57
2621.00,96.57
2620.00,96.57
2619.00,96.57
2618.00,96.58
2617.00,96.59
2616.00,96.60
2615.00,96.62
2614.00,96.65
2613.00,96.67
2612.00,96.67
2611.00,96.67
2610.00,96.66
2609.00,96.66
2608.00,96.67
2607.00,96.68
2606.00,96.68
2605.00,96.67
2604.00,96.67
2603.00,96.68
2602.00,96.70
2601.00,96.72
2600.00,96.72
2599.00,96.71
2598.00,96.70
2597.00,96.70
2596.00,96.71
2595.00,96.74
2594.00,96.75
2593.00,96.76
2592.00,96.75
2591.00,96.75
2590.00,96.75
2589.00,96.75
2588.00,96.75
2587.00,96.75
2586.00,96.75
2585.00,96.76
2584.00,96.77
2583.00,96.77
2582.00,96.77
2581.00,96.78
2580.00,96.79
2579.00,96.81
2578.00,96.82
2577.00,96.81
2576.00,96.80
2575.00,96.79
2574.00,96.80
2573.00,96.80
2572.00,96.80
2571.00,96.79
2570.00,96.78
2569.00,96.77
2568.00,96.78
2567.00,96.79
2566.00,96.79
2565.00,96.79
2564.00,96.79
2563.00,96.80
2562.00,96.81
2561.00,96.80
2560.00,96.79
2559.00,96.77
2558.00,96.77
2557.00,96.78
2556.00,96.79
2555.00,96.81
2554.00,96.83
2553.00,96.84
2552.00,96.86
2551.00,96.88
2550.00,96.88
2549.00,96.87
2548.00,96.85
2547.00,96.82
2546.00,96.80
2545.00,96.79
2544.00,96.79
2543.00,96.80
2542.00,96.83
2541.00,96.86
2540.00,96.88
2539.00,96.89
2538.00,96.88
2537.00,96.86
2536.00,96.84
2535.00,96.83
2534.00,96.85
2533.00,96.87
2532.00,96.88
2531.00,96.87
2530.00,96.84
2529.00,96.80
2528.00,96.78
2527.00,96.76
2526.00,96.76
2525.00,96.78
2524.00,96.82
2523.00,96.85
2522.00,96.87
2521.00,96.88
2520.00,96.89
2519.00,96.92
2518.00,96.94
2517.00,96.94
2516.00,96.92
2515.00,96.90
2514.00,96.90
2513.00,96.91
2512.00,96.93
2511.00,96.94
2510.00,96.95
2509.00,96.95
2508.00,96.96
2507.00,96.97
2506.00,96.99
2505.00,97.00
2504.00,97.02
2503.00,97.01
2502.00,97.00
2501.00,96.97
2500.00,96.95
2499.00,96.94
2498.00,96.94
2497.00,96.96
2496.00,96.98
2495.00,97.01
2494.00,97.03
2493.00,97.03
2492.00,97.01
2491.00,97.00
2490.00,97.00
2489.00,97.00
2488.00,97.00
2487.00,97.00
2486.00,96.99
2485.00,97.00
2484.00,97.01
2483.00,97.02
2482.00,97.05
2481.00,97.07
2480.00,97.08
2479.00,97.07
2478.00,97.06
2477.00,97.06
2476.00,97.08
2475.00,97.10
2474.00,97.13
2473.00,97.15
2472.00,97.16
2471.00,97.16
2470.00,97.14
2469.00,97.13
2468.00,97.14
2467.00,97.16
2466.00,97.18
2465.00,97.19
2464.00,97.18
2463.00,97.16
2462.00,97.14
2461.00,97.15
2460.00,97.17
2459.00,97.20
2458.00,97.22
2457.00,97.23
2456.00,97.22
2455.00,97.21
2454.00,97.19
2453.00,97.18
2452.00,97.17
2451.00,97.17
2450.00,97.17
2449.00,97.16
2448.00,97.16
2447.00,97.17
2446.00,97.17
2445.00,97.18
2444.00,97.19
2443.00,97.23
2442.00,97.28
2441.00,97.33
2440.00,97.36
2439.00,97.35
2438.00,97.32
2437.00,97.31
2436.00,97.31
2435.00,97.32
2434.00,97.32
2433.00,97.31
2432.00,97.31
2431.00,97.32
2430.00,97.34
2429.00,97.36
2428.00,97.37
2427.00,97.37
2426.00,97.36
2425.00,97.35
2424.00,97.35
2423.00,97.36
2422.00,97.37
2421.00,97.39
2420.00,97.40
2419.00,97.41
2418.00,97.42
2417.00,97.43
2416.00,97.43
2415.00,97.44
2414.00,97.44
2413.00,97.45
2412.00,97.45
2411.00,97.45
2410.00,97.45
2409.00,97.45
2408.00,97.45
2407.00,97.45
2406.00,97.47
2405.00,97.50
2404.00,97.51
2403.00,97.52
2402.00,97.52
2401.00,97.53
2400.00,97.55
2399.00,97.57
2398.00,97.59
2397.00,97.59
2396.00,97.59
2395.00,97.58
2394.00,97.58
2393.00,97.60
2392.00,97.62
2391.00,97.63
2390.00,97.63
2389.00,97.64
2388.00,97.64
2387.00,97.63
2386.00,97.63
2385.00,97.61
2384.00,97.61
2383.00,97.63
2382.00,97.67
2381.00,97.73
2380.00,97.79
2379.00,97.84
2378.00,97.89
2377.00,97.94
2376.00,97.99
2375.00,98.04
2374.00,98.09
2373.00,98.11
2372.00,98.10
2371.00,98.04
2370.00,97.97
2369.00,97.92
2368.00,97.93
2367.00,97.96
2366.00,97.99
2365.00,97.98
2364.00,97.96
2363.00,97.94
2362.00,97.91
2361.00,97.90
2360.00,97.94
2359.00,98.01
2358.00,98.05
2357.00,98.02
2356.00,97.95
2355.00,97.89
2354.00,97.87
2353.00,97.88
2352.00,97.91
2351.00,97.96
2350.00,97.98
2349.00,97.98
2348.00,97.97
2347.00,97.97
2346.00,97.98
2345.00,97.99
2344.00,98.01
2343.00,98.04
2342.00,98.05
2341.00,98.04
2340.00,97.99
2339.00,97.93
2338.00,97.91
2337.00,97.92
2336.00,97.96
2335.00,98.01
2334.00,98.04
2333.00,98.05
2332.00,98.05
2331.00,98.04
2330.00,98.02
2329.00,97.96
2328.00,97.87
2327.00,97.76
2326.00,97.65
2325.00,97.57
2324.00,97.54
2323.00,97.57
2322.00,97.63
2321.00,97.69
2320.00,97.72
2319.00,97.71
2318.00,97.67
2317.00,97.61
2316.00,97.57
2315.00,97.56
2314.00,97.57
2313.00,97.60
2312.00,97.62
2311.00,97.63
2310.00,97.64
2309.00,97.64
2308.00,97.64
2307.00,97.63
2306.00,97.61
2305.00,97.61
2304.00,97.61
2303.00,97.62
2302.00,97.61
2301.00,97.58
2300.00,97.54
2299.00,97.50
2298.00,97.46
2297.00,97.41
2296.00,97.37
2295.00,97.33
2294.00,97.33
2293.00,97.34
2292.00,97.34
2291.00,97.33
2290.00,97.31
2289.00,97.28
2288.00,97.25
2287.00,97.23
2286.00,97.21
2285.00,97.20
2284.00,97.19
2283.00,97.18
2282.00,97.18
2281.00,97.18
2280.00,97.19
2279.00,97.19
2278.00,97.20
2277.00,97.20
2276.00,97.17
2275.00,97.14
2274.00,97.12
2273.00,97.10
2272.00,97.08
2271.00,97.07
2270.00,97.07
2269.00,97.09
2268.00,97.12
2267.00,97.13
2266.00,97.12
2265.00,97.09
2264.00,97.06
2263.00,97.01
2262.00,96.98
2261.00,96.96
2260.00,96.97
2259.00,96.99
2258.00,96.99
2257.00,96.97
2256.00,96.96
2255.00,96.96
2254.00,96.99
2253.00,97.02
2252.00,97.05
2251.00,97.04
2250.00,97.02
2249.00,96.98
2248.00,96.97
2247.00,96.98
2246.00,97.00
2245.00,97.00
2244.00,96.96
2243.00,96.91
2242.00,96.87
2241.00,96.87
2240.00,96.89
2239.00,96.92
2238.00,96.94
2237.00,96.95
2236.00,96.97
2235.00,96.99
2234.00,97.00
2233.00,96.99
2232.00,96.96
2231.00,96.91
2230.00,96.86
2229.00,96.81
2228.00,96.79
2227.00,96.80
2226.00,96.81
2225.00,96.82
2224.00,96.83
2223.00,96.85
2222.00,96.87
2221.00,96.86
2220.00,96.83
2219.00,96.83
2218.00,96.84
2217.00,96.86
2216.00,96.84
2215.00,96.79
2214.00,96.70
2213.00,96.61
2212.00,96.55
2211.00,96.56
2210.00,96.61
2209.00,96.68
2208.00,96.71
2207.00,96.68
2206.00,96.64
2205.00,96.61
2204.00,96.63
2203.00,96.67
2202.00,96.72
2201.00,96.77
2200.00,96.78
2199.00,96.75
2198.00,96.69
2197.00,96.62
2196.00,96.59
2195.00,96.59
2194.00,96.59
2193.00,96.56
2192.00,96.51
2191.00,96.46
2190.00,96.45
2189.00,96.46
2188.00,96.48
2187.00,96.49
2186.00,96.49
2185.00,96.50
2184.00,96.54
2183.00,96.60
2182.00,96.64
2181.00,96.63
2180.00,96.59
2179.00,96.55
2178.00,96.55
2177.00,96.56
2176.00,96.56
2175.00,96.54
2174.00,96.49
2173.00,96.45
2172.00,96.41
2171.00,96.37
2170.00,96.35
2169.00,96.33
2168.00,96.30
2167.00,96.23
2166.00,96.13
2165.00,96.01
2164.00,95.92
2163.00,95.85
2162.00,95.84
2161.00,95.90
2160.00,96.08
2159.00,96.33
2158.00,96.58
2157.00,96.73
2156.00,96.77
2155.00,96.75
2154.00,96.71
2153.00,96.70
2152.00,96.72
2151.00,96.76
2150.00,96.79
2149.00,96.78
2148.00,96.75
2147.00,96.71
2146.00,96.69
2145.00,96.68
2144.00,96.68
2143.00,96.69
2142.00,96.73
2141.00,96.78
2140.00,96.84
2139.00,96.89
2138.00,96.92
2137.00,96.94
2136.00,96.96
2135.00,96.98
2134.00,97.00
2133.00,97.02
2132.00,97.03
2131.00,97.02
2130.00,97.00
2129.00,96.98
2128.00,96.95
2127.00,96.93
2126.00,96.93
2125.00,96.91
2124.00,96.89
2123.00,96.87
2122.00,96.85
2121.00,96.84
2120.00,96.83
2119.00,96.81
2118.00,96.79
2117.00,96.79
2116.00,96.80
2115.00,96.81
2114.00,96.81
2113.00,96.79
2112.00,96.76
2111.00,96.75
2110.00,96.75
2109.00,96.76
2108.00,96.77
2107.00,96.81
2106.00,96.86
2105.00,96.88
2104.00,96.85
2103.00,96.78
2102.00,96.71
2101.00,96.67
2100.00,96.66
2099.00,96.66
2098.00,96.66
2097.00,96.68
2096.00,96.72
2095.00,96.79
2094.00,96.86
2093.00,96.90
2092.00,96.92
2091.00,96.90
2090.00,96.86
2089.00,96.83
2088.00,96.82
2087.00,96.83
2086.00,96.85
2085.00,96.85
2084.00,96.84
2083.00,96.82
2082.00,96.81
2081.00,96.82
2080.00,96.82
2079.00,96.81
2078.00,96.78
2077.00,96.73
2076.00,96.67
2075.00,96.63
2074.00,96.62
2073.00,96.63
2072.00,96.66
2071.00,96.70
2070.00,96.76
2069.00,96.81
2068.00,96.85
2067.00,96.84
2066.00,96.80
2065.00,96.74
2064.00,96.68
2063.00,96.64
2062.00,96.62
2061.00,96.61
2060.00,96.60
2059.00,96.61
2058.00,96.61
2057.00,96.62
2056.00,96.63
2055.00,96.64
2054.00,96.63
2053.00,96.58
2052.00,96.52
2051.00,96.46
2050.00,96.44
2049.00,96.44
2048.00,96.46
2047.00,96.46
2046.00,96.44
2045.00,96.42
2044.00,96.42
2043.00,96.43
2042.00,96.45
2041.00,96.43
2040.00,96.37
2039.00,96.31
2038.00,96.28
2037.00,96.29
2036.00,96.30
2035.00,96.30
2034.00,96.31
2033.00,96.36
2032.00,96.43
2031.00,96.49
2030.00,96.50
2029.00,96.48
2028.00,96.43
2027.00,96.38
2026.00,96.35
2025.00,96.39
2024.00,96.49
2023.00,96.59
2022.00,96.63
2021.00,96.62
2020.00,96.58
2019.00,96.55
2018.00,96.56
2017.00,96.59
2016.00,96.62
2015.00,96.62
2014.00,96.61
2013.00,96.61
2012.00,96.63
2011.00,96.65
2010.00,96.68
2009.00,96.72
2008.00,96.77
2007.00,96.83
2006.00,96.87
2005.00,96.90
2004.00,96.91
2003.00,96.88
2002.00,96.83
2001.00,96.77
2000.00,96.73
1999.00,96.71
1998.00,96.70
1997.00,96.70
1996.00,96.69
1995.00,96.68
1994.00,96.67
1993.00,96.65
1992.00,96.62
1991.00,96.59
1990.00,96.55
1989.00,96.53
1988.00,96.55
1987.00,96.59
1986.00,96.63
1985.00,96.63
1984.00,96.60
1983.00,96.53
1982.00,96.45
1981.00,96.39
1980.00,96.38
1979.00,96.42
1978.00,96.51
1977.00,96.60
1976.00,96.66
1975.00,96.69
1974.00,96.72
1973.00,96.74
1972.00,96.78
1971.00,96.82
1970.00,96.85
1969.00,96.87
1968.00,96.87
1967.00,96.88
1966.00,96.90
1965.00,96.94
1964.00,96.98
1963.00,97.01
1962.00,97.03
1961.00,97.06
1960.00,97.10
1959.00,97.14
1958.00,97.16
1957.00,97.15
1956.00,97.10
1955.00,97.06
1954.00,97.04
1953.00,97.05
1952.00,97.07
1951.00,97.09
1950.00,97.11
1949.00,97.11
1948.00,97.08
1947.00,97.06
1946.00,97.07
1945.00,97.11
1944.00,97.16
1943.00,97.20
1942.00,97.23
1941.00,97.24
1940.00,97.23
1939.00,97.21
1938.00,97.18
1937.00,97.16
1936.00,97.16
1935.00,97.17
1934.00,97.19
1933.00,97.22
1932.00,97.24
1931.00,97.26
1930.00,97.26
1929.00,97.26
1928.00,97.26
1927.00,97.28
1926.00,97.30
1925.00,97.31
1924.00,97.30
1923.00,97.26
1922.00,97.22
1921.00,97.18
1920.00,97.19
1919.00,97.21
1918.00,97.24
1917.00,97.25
1916.00,97.26
1915.00,97.29
1914.00,97.34
1913.00,97.38
1912.00,97.40
1911.00,97.41
1910.00,97.41
1909.00,97.41
1908.00,97.42
1907.00,97.43
1906.00,97.43
1905.00,97.44
1904.00,97.44
1903.00,97.44
1902.00,97.42
1901.00,97.42
1900.00,97.43
1899.00,97.45
1898.00,97.45
1897.00,97.43
1896.00,97.41
1895.00,97.41
1894.00,97.44
1893.00,97.46
1892.00,97.48
1891.00,97.48
1890.00,97.45
1889.00,97.42
1888.00,97.40
1887.00,97.40
1886.00,97.42
1885.00,97.44
1884.00,97.45
1883.00,97.47
1882.00,97.48
1881.00,97.49
1880.00,97.48
1879.00,97.47
1878.00,97.46
1877.00,97.44
1876.00,97.43
1875.00,97.44
1874.00,97.46
1873.00,97.45
1872.00,97.44
1871.00,97.43
1870.00,97.43
1869.00,97.44
1868.00,97.47
1867.00,97.49
1866.00,97.51
1865.00,97.51
1864.00,97.50
1863.00,97.49
1862.00,97.48
1861.00,97.48
1860.00,97.48
1859.00,97.50
1858.00,97.51
1857.00,97.52
1856.00,97.52
1855.00,97.52
1854.00,97.51
1853.00,97.50
1852.00,97.49
1851.00,97.49
1850.00,97.48
1849.00,97.49
1848.00,97.50
1847.00,97.52
1846.00,97.53
1845.00,97.51
1844.00,97.49
1843.00,97.48
1842.00,97.49
1841.00,97.52
1840.00,97.54
1839.00,97.54
1838.00,97.53
1837.00,97.51
1836.00,97.50
1835.00,97.50
1834.00,97.51
1833.00,97.52
1832.00,97.52
1831.00,97.51
1830.00,97.50
1829.00,97.49
1828.00,97.50
1827.00,97.50
1826.00,97.49
1825.00,97.48
1824.00,97.46
1823.00,97.45
1822.00,97.45
1821.00,97.45
1820.00,97.47
1819.00,97.51
1818.00,97.55
1817.00,97.58
1816.00,97.59
1815.00,97.59
1814.00,97.57
1813.00,97.55
1812.00,97.54
1811.00,97.54
1810.00,97.54
1809.00,97.53
1808.00,97.51
1807.00,97.50
1806.00,97.50
1805.00,97.50
1804.00,97.50
1803.00,97.49
1802.00,97.48
1801.00,97.48
1800.00,97.48
1799.00,97.50
1798.00,97.51
1797.00,97.51
1796.00,97.49
1795.00,97.47
1794.00,97.47
1793.00,97.47
1792.00,97.48
1791.00,97.49
1790.00,97.47
1789.00,97.44
1788.00,97.42
1787.00,97.40
1786.00,97.39
1785.00,97.38
1784.00,97.38
1783.00,97.39
1782.00,97.39
1781.00,97.39
1780.00,97.39
1779.00,97.40
1778.00,97.41
1777.00,97.41
1776.00,97.40
1775.00,97.38
1774.00,97.36
1773.00,97.35
1772.00,97.35
1771.00,97.36
1770.00,97.36
1769.00,97.34
1768.00,97.32
1767.00,97.31
1766.00,97.32
1765.00,97.32
1764.00,97.31
1763.00,97.30
1762.00,97.29
1761.00,97.27
1760.00,97.25
1759.00,97.23
1758.00,97.19
1757.00,97.15
1756.00,97.11
1755.00,97.07
1754.00,97.04
1753.00,97.00
1752.00,96.96
1751.00,96.90
1750.00,96.84
1749.00,96.79
1748.00,96.75
1747.00,96.73
1746.00,96.73
1745.00,96.71
1744.00,96.68
1743.00,96.63
1742.00,96.59
1741.00,96.53
1740.00,96.48
1739.00,96.44
1738.00,96.41
1737.00,96.39
1736.00,96.40
1735.00,96.43
1734.00,96.46
1733.00,96.47
1732.00,96.47
1731.00,96.47
1730.00,96.49
1729.00,96.51
1728.00,96.53
1727.00,96.54
1726.00,96.56
1725.00,96.56
1724.00,96.55
1723.00,96.55
1722.00,96.54
1721.00,96.54
1720.00,96.53
1719.00,96.52
1718.00,96.51
1717.00,96.49
1716.00,96.46
1715.00,96.43
1714.00,96.42
1713.00,96.43
1712.00,96.44
1711.00,96.45
1710.00,96.44
1709.00,96.42
1708.00,96.39
1707.00,96.36
1706.00,96.33
1705.00,96.31
1704.00,96.30
1703.00,96.29
1702.00,96.27
1701.00,96.22
1700.00,96.17
1699.00,96.16
1698.00,96.16
1697.00,96.15
1696.00,96.12
1695.00,96.09
1694.00,96.06
1693.00,96.01
1692.00,95.96
1691.00,95.93
1690.00,95.90
1689.00,95.86
1688.00,95.82
1687.00,95.79
1686.00,95.77
1685.00,95.74
1684.00,95.68
1683.00,95.61
1682.00,95.54
1681.00,95.46
1680.00,95.40
1679.00,95.36
1678.00,95.33
1677.00,95.29
1676.00,95.23
1675.00,95.15
1674.00,95.09
1673.00,95.05
1672.00,95.00
1671.00,94.95
1670.00,94.87
1669.00,94.80
1668.00,94.73
1667.00,94.67
1666.00,94.63
1665.00,94.58
1664.00,94.52
1663.00,94.46
1662.00,94.42
1661.00,94.37
1660.00,94.32
1659.00,94.27
1658.00,94.22
1657.00,94.17
1656.00,94.12
1655.00,94.08
1654.00,94.04
1653.00,93.98
1652.00,93.95
1651.00,93.90
1650.00,93.84
1649.00,93.78
1648.00,93.74
1647.00,93.73
1646.00,93.73
1645.00,93.73
1644.00,93.72
1643.00,93.72
1642.00,93.73
1641.00,93.74
1640.00,93.76
1639.00,93.77
1638.00,93.78
1637.00,93.78
1636.00,93.77
1635.00,93.77
1634.00,93.79
1633.00,93.81
1632.00,93.82
1631.00,93.85
1630.00,93.89
1629.00,93.93
1628.00,93.96
1627.00,94.00
1626.00,94.04
1625.00,94.09
1624.00,94.15
1623.00,94.21
1622.00,94.26
1621.00,94.30
1620.00,94.33
1619.00,94.37
1618.00,94.45
1617.00,94.53
1616.00,94.60
1615.00,94.64
1614.00,94.66
1613.00,94.67
1612.00,94.71
1611.00,94.75
1610.00,94.80
1609.00,94.85
1608.00,94.90
1607.00,94.95
1606.00,95.00
1605.00,95.03
1604.00,95.07
1603.00,95.10
1602.00,95.14
1601.00,95.18
1600.00,95.21
1599.00,95.24
1598.00,95.26
1597.00,95.28
1596.00,95.30
1595.00,95.32
1594.00,95.34
1593.00,95.35
1592.00,95.36
1591.00,95.38
1590.00,95.40
1589.00,95.41
1588.00,95.42
1587.00,95.41
1586.00,95.40
1585.00,95.38
1584.00,95.36
1583.00,95.35
1582.00,95.34
1581.00,95.32
1580.00,95.30
1579.00,95.29
1578.00,95.29
1577.00,95.32
1576.00,95.35
1575.00,95.37
1574.00,95.38
1573.00,95.37
1572.00,95.39
1571.00,95.42
1570.00,95.47
1569.00,95.51
1568.00,95.53
1567.00,95.53
1566.00,95.53
1565.00,95.55
1564.00,95.57
1563.00,95.59
1562.00,95.60
1561.00,95.61
1560.00,95.61
1559.00,95.60
1558.00,95.62
1557.00,95.62
1556.00,95.61
1555.00,95.60
1554.00,95.61
1553.00,95.60
1552.00,95.59
1551.00,95.56
1550.00,95.54
1549.00,95.53
1548.00,95.52
1547.00,95.50
1546.00,95.47
1545.00,95.43
1544.00,95.38
1543.00,95.34
1542.00,95.35
1541.00,95.38
1540.00,95.45
1539.00,95.52
1538.00,95.56
1537.00,95.56
1536.00,95.55
1535.00,95.56
1534.00,95.58
1533.00,95.61
1532.00,95.64
1531.00,95.67
1530.00,95.71
1529.00,95.75
1528.00,95.78
1527.00,95.80
1526.00,95.82
1525.00,95.83
1524.00,95.82
1523.00,95.82
1522.00,95.80
1521.00,95.77
1520.00,95.74
1519.00,95.73
1518.00,95.72
1517.00,95.71
1516.00,95.70
1515.00,95.69
1514.00,95.69
1513.00,95.67
1512.00,95.65
1511.00,95.63
1510.00,95.61
1509.00,95.60
1508.00,95.59
1507.00,95.59
1506.00,95.58
1505.00,95.53
1504.00,95.48
1503.00,95.42
1502.00,95.37
1501.00,95.32
1500.00,95.25
1499.00,95.18
1498.00,95.13
1497.00,95.07
1496.00,95.02
1495.00,94.95
1494.00,94.88
1493.00,94.77
1492.00,94.65
1491.00,94.51
1490.00,94.36
1489.00,94.18
1488.00,94.00
1487.00,93.83
1486.00,93.65
1485.00,93.46
1484.00,93.27
1483.00,93.07
1482.00,92.88
1481.00,92.71
1480.00,92.56
1479.00,92.42
1478.00,92.27
1477.00,92.07
1476.00,91.84
1475.00,91.60
1474.00,91.37
1473.00,91.16
1472.00,91.01
1471.00,90.92
1470.00,90.85
1469.00,90.75
1468.00,90.63
1467.00,90.50
1466.00,90.36
1465.00,90.21
1464.00,90.08
1463.00,89.99
1462.00,89.93
1461.00,89.89
1460.00,89.85
1459.00,89.80
1458.00,89.71
1457.00,89.59
1456.00,89.51
1455.00,89.46
1454.00,89.43
1453.00,89.38
1452.00,89.34
1451.00,89.31
1450.00,89.26
1449.00,89.21
1448.00,89.15
1447.00,89.10
1446.00,89.06
1445.00,89.01
1444.00,88.96
1443.00,88.91
1442.00,88.86
1441.00,88.81
1440.00,88.75
1439.00,88.67
1438.00,88.58
1437.00,88.45
1436.00,88.31
1435.00,88.20
1434.00,88.09
1433.00,87.98
1432.00,87.87
1431.00,87.78
1430.00,87.72
1429.00,87.69
1428.00,87.69
1427.00,87.70
1426.00,87.71
1425.00,87.73
1424.00,87.77
1423.00,87.83
1422.00,87.91
1421.00,87.99
1420.00,88.11
1419.00,88.25
1418.00,88.39
1417.00,88.50
1416.00,88.61
1415.00,88.73
1414.00,88.84
1413.00,88.94
1412.00,89.03
1411.00,89.11
1410.00,89.18
1409.00,89.25
1408.00,89.31
1407.00,89.35
1406.00,89.36
1405.00,89.36
1404.00,89.36
1403.00,89.36
1402.00,89.35
1401.00,89.34
1400.00,89.32
1399.00,89.31
1398.00,89.31
1397.00,89.30
1396.00,89.28
1395.00,89.27
1394.00,89.25
1393.00,89.23
1392.00,89.19
1391.00,89.14
1390.00,89.06
1389.00,88.95
1388.00,88.80
1387.00,88.63
1386.00,88.42
1385.00,88.17
1384.00,87.87
1383.00,87.52
1382.00,87.11
1381.00,86.68
1380.00,86.22
1379.00,85.79
1378.00,85.42
1377.00,85.11
1376.00,84.84
1375.00,84.58
1374.00,84.32
1373.00,84.09
1372.00,83.90
1371.00,83.76
1370.00,83.67
1369.00,83.61
1368.00,83.58
1367.00,83.57
1366.00,83.56
1365.00,83.55
1364.00,83.53
1363.00,83.54
1362.00,83.59
1361.00,83.71
1360.00,83.87
1359.00,84.07
1358.00,84.28
1357.00,84.48
1356.00,84.69
1355.00,84.89
1354.00,85.08
1353.00,85.26
1352.00,85.40
1351.00,85.51
1350.00,85.56
1349.00,85.54
1348.00,85.45
1347.00,85.30
1346.00,85.12
1345.00,84.91
1344.00,84.68
1343.00,84.44
1342.00,84.20
1341.00,83.93
1340.00,83.67
1339.00,83.43
1338.00,83.25
1337.00,83.12
1336.00,83.06
1335.00,83.07
1334.00,83.16
1333.00,83.30
1332.00,83.48
1331.00,83.68
1330.00,83.85
1329.00,83.97
1328.00,84.04
1327.00,84.05
1326.00,84.00
1325.00,83.89
1324.00,83.71
1323.00,83.45
1322.00,83.10
1321.00,82.66
1320.00,82.13
1319.00,81.59
1318.00,81.10
1317.00,80.72
1316.00,80.48
1315.00,80.38
1314.00,80.39
1313.00,80.50
1312.00,80.70
1311.00,81.00
1310.00,81.39
1309.00,81.86
1308.00,82.38
1307.00,82.93
1306.00,83.47
1305.00,83.97
1304.00,84.43
1303.00,84.85
1302.00,85.24
1301.00,85.60
1300.00,85.92
1299.00,86.21
1298.00,86.45
1297.00,86.63
1296.00,86.76
1295.00,86.86
1294.00,86.95
1293.00,87.06
1292.00,87.19
1291.00,87.34
1290.00,87.49
1289.00,87.62
1288.00,87.72
1287.00,87.79
1286.00,87.81
1285.00,87.79
1284.00,87.71
1283.00,87.59
1282.00,87.43
1281.00,87.27
1280.00,87.13
1279.00,87.04
1278.00,87.01
1277.00,87.02
1276.00,87.08
1275.00,87.17
1274.00,87.28
1273.00,87.39
1272.00,87.48
1271.00,87.54
1270.00,87.55
1269.00,87.51
1268.00,87.43
1267.00,87.31
1266.00,87.17
1265.00,87.03
1264.00,86.90
1263.00,86.80
1262.00,86.77
1261.00,86.80
1260.00,86.90
1259.00,87.06
1258.00,87.25
1257.00,87.46
1256.00,87.68
1255.00,87.89
1254.00,88.08
1253.00,88.23
1252.00,88.35
1251.00,88.43
1250.00,88.49
1249.00,88.54
1248.00,88.60
1247.00,88.66
1246.00,88.71
1245.00,88.75
1244.00,88.79
1243.00,88.82
1242.00,88.83
1241.00,88.84
1240.00,88.84
1239.00,88.83
1238.00,88.80
1237.00,88.75
1236.00,88.72
1235.00,88.71
1234.00,88.73
1233.00,88.78
1232.00,88.84
1231.00,88.90
1230.00,88.93
1229.00,88.94
1228.00,88.93
1227.00,88.94
1226.00,89.00
1225.00,89.12
1224.00,89.34
1223.00,89.60
1222.00,89.88
1221.00,90.14
1220.00,90.37
1219.00,90.57
1218.00,90.74
1217.00,90.86
1216.00,90.95
1215.00,90.99
1214.00,90.98
1213.00,90.90
1212.00,90.74
1211.00,90.48
1210.00,90.16
1209.00,89.81
1208.00,89.46
1207.00,89.15
1206.00,88.86
1205.00,88.60
1204.00,88.36
1203.00,88.17
1202.00,88.04
1201.00,87.98
1200.00,87.98
1199.00,88.03
1198.00,88.13
1197.00,88.28
1196.00,88.49
1195.00,88.77
1194.00,89.08
1193.00,89.42
1192.00,89.76
1191.00,90.07
1190.00,90.34
1189.00,90.56
1188.00,90.72
1187.00,90.82
1186.00,90.86
1185.00,90.86
1184.00,90.83
1183.00,90.77
1182.00,90.65
1181.00,90.49
1180.00,90.27
1179.00,90.00
1178.00,89.68
1177.00,89.32
1176.00,88.94
1175.00,88.52
1174.00,88.05
1173.00,87.50
1172.00,86.86
1171.00,86.16
1170.00,85.38
1169.00,84.53
1168.00,83.62
1167.00,82.68
1166.00,81.74
1165.00,80.85
1164.00,80.04
1163.00,79.36
1162.00,78.83
1161.00,78.45
1160.00,78.22
1159.00,78.14
1158.00,78.17
1157.00,78.31
1156.00,78.54
1155.00,78.83
1154.00,79.17
1153.00,79.51
1152.00,79.84
1151.00,80.14
1150.00,80.41
1149.00,80.65
1148.00,80.90
1147.00,81.16
1146.00,81.44
1145.00,81.72
1144.00,81.98
1143.00,82.22
1142.00,82.42
1141.00,82.54
1140.00,82.55
1139.00,82.45
1138.00,82.25
1137.00,81.97
1136.00,81.65
1135.00,81.28
1134.00,80.88
1133.00,80.44
1132.00,79.99
1131.00,79.52
1130.00,79.02
1129.00,78.47
1128.00,77.85
1127.00,77.19
1126.00,76.50
1125.00,75.80
1124.00,75.11
1123.00,74.48
1122.00,73.91
1121.00,73.36
1120.00,72.82
1119.00,72.26
1118.00,71.66
1117.00,70.97
1116.00,70.19
1115.00,69.38
1114.00,68.62
1113.00,67.96
1112.00,67.46
1111.00,67.15
1110.00,67.00
1109.00,66.94
1108.00,66.90
1107.00,66.87
1106.00,66.82
1105.00,66.73
1104.00,66.57
1103.00,66.37
1102.00,66.13
1101.00,65.84
1100.00,65.56
1099.00,65.32
1098.00,65.13
1097.00,64.98
1096.00,64.88
1095.00,64.81
1094.00,64.78
1093.00,64.71
1092.00,64.60
1091.00,64.47
1090.00,64.31
1089.00,64.13
1088.00,63.90
1087.00,63.67
1086.00,63.43
1085.00,63.16
1084.00,62.89
1083.00,62.62
1082.00,62.39
1081.00,62.15
1080.00,61.92
1079.00,61.71
1078.00,61.52
1077.00,61.33
1076.00,61.14
1075.00,61.00
1074.00,60.89
1073.00,60.76
1072.00,60.56
1071.00,60.31
1070.00,59.98
1069.00,59.52
1068.00,58.92
1067.00,58.21
1066.00,57.41
1065.00,56.50
1064.00,55.47
1063.00,54.39
1062.00,53.31
1061.00,52.27
1060.00,51.33
1059.00,50.53
1058.00,49.90
1057.00,49.42
1056.00,49.05
1055.00,48.81
1054.00,48.68
1053.00,48.63
1052.00,48.65
1051.00,48.76
1050.00,48.94
1049.00,49.13
1048.00,49.31
1047.00,49.50
1046.00,49.67
1045.00,49.79
1044.00,49.86
1043.00,49.89
1042.00,49.88
1041.00,49.77
1040.00,49.52
1039.00,49.15
1038.00,48.66
1037.00,48.05
1036.00,47.35
1035.00,46.66
1034.00,46.03
1033.00,45.47
1032.00,44.99
1031.00,44.63
1030.00,44.37
1029.00,44.18
1028.00,44.05
1027.00,44.01
1026.00,44.07
1025.00,44.17
1024.00,44.29
1023.00,44.45
1022.00,44.64
1021.00,44.85
1020.00,45.07
1019.00,45.31
1018.00,45.56
1017.00,45.80
1016.00,46.04
1015.00,46.32
1014.00,46.64
1013.00,46.97
1012.00,47.28
1011.00,47.56
1010.00,47.79
1009.00,47.95
1008.00,48.04
1007.00,48.12
1006.00,48.18
1005.00,48.21
1004.00,48.20
1003.00,48.15
1002.00,48.07
1001.00,47.94
1000.00,47.81
999.00,47.77
998.00,47.86
997.00,48.07
996.00,48.38
995.00,48.80
994.00,49.32
993.00,49.87
992.00,50.42
991.00,50.96
990.00,51.49
989.00,51.96
988.00,52.36
987.00,52.73
986.00,53.08
985.00,53.45
984.00,53.91
983.00,54.52
982.00,55.30
981.00,56.21
980.00,57.22
979.00,58.28
978.00,59.34
977.00,60.36
976.00,61.31
975.00,62.19
974.00,63.02
973.00,63.77
972.00,64.46
971.00,65.09
970.00,65.65
969.00,66.16
968.00,66.63
967.00,67.09
966.00,67.55
965.00,68.00
964.00,68.44
963.00,68.89
962.00,69.37
961.00,69.84
960.00,70.32
959.00,70.81
958.00,71.32
957.00,71.84
956.00,72.37
955.00,72.89
954.00,73.40
953.00,73.87
952.00,74.31
951.00,74.73
950.00,75.14
949.00,75.54
948.00,75.90
947.00,76.26
946.00,76.60
945.00,76.91
944.00,77.20
943.00,77.49
942.00,77.77
941.00,78.02
940.00,78.25
939.00,78.47
938.00,78.69
937.00,78.88
936.00,79.04
935.00,79.19
934.00,79.33
933.00,79.45
932.00,79.58
931.00,79.73
930.00,79.89
929.00,80.05
928.00,80.19
927.00,80.34
926.00,80.48
925.00,80.61
924.00,80.75
923.00,80.91
922.00,81.07
921.00,81.21
920.00,81.30
919.00,81.35
918.00,81.40
917.00,81.42
916.00,81.41
915.00,81.37
914.00,81.30
913.00,81.18
912.00,81.02
911.00,80.85
910.00,80.69
909.00,80.53
908.00,80.37
907.00,80.19
906.00,79.97
905.00,79.71
904.00,79.42
903.00,79.11
902.00,78.77
901.00,78.39
900.00,77.98
899.00,77.56
898.00,77.16
897.00,76.81
896.00,76.53
895.00,76.38
894.00,76.36
893.00,76.48
892.00,76.71
891.00,77.07
890.00,77.55
889.00,78.09
888.00,78.64
887.00,79.16
886.00,79.64
885.00,80.09
884.00,80.51
883.00,80.90
882.00,81.27
881.00,81.61
880.00,81.94
879.00,82.26
878.00,82.58
877.00,82.88
876.00,83.13
875.00,83.34
874.00,83.53
873.00,83.72
872.00,83.91
871.00,84.09
870.00,84.24
869.00,84.36
868.00,84.44
867.00,84.52
866.00,84.60
865.00,84.68
864.00,84.75
863.00,84.82
862.00,84.91
861.00,84.99
860.00,85.05
859.00,85.09
858.00,85.12
857.00,85.14
856.00,85.18
855.00,85.23
854.00,85.28
853.00,85.30
852.00,85.30
851.00,85.30
850.00,85.32
849.00,85.34
848.00,85.36
847.00,85.37
846.00,85.38
845.00,85.38
844.00,85.36
843.00,85.36
842.00,85.36
841.00,85.36
840.00,85.33
839.00,85.30
838.00,85.28
837.00,85.28
836.00,85.26
835.00,85.23
834.00,85.20
833.00,85.17
832.00,85.14
831.00,85.10
830.00,85.03
829.00,84.93
828.00,84.83
827.00,84.74
826.00,84.67
825.00,84.62
824.00,84.56
823.00,84.49
822.00,84.42
821.00,84.34
820.00,84.25
819.00,84.16
818.00,84.08
817.00,84.00
816.00,83.92
815.00,83.85
814.00,83.80
813.00,83.77
812.00,83.74
811.00,83.70
810.00,83.65
809.00,83.59
808.00,83.50
807.00,83.41
806.00,83.33
805.00,83.27
804.00,83.21
803.00,83.15
802.00,83.12
801.00,83.12
800.00,83.13
799.00,83.13
798.00,83.12
797.00,83.11
796.00,83.10
795.00,83.13
794.00,83.18
793.00,83.23
792.00,83.28
791.00,83.34
790.00,83.38
789.00,83.38
788.00,83.36
787.00,83.34
786.00,83.35
785.00,83.38
784.00,83.38
783.00,83.36
782.00,83.33
781.00,83.31
780.00,83.30
779.00,83.29
778.00,83.27
777.00,83.22
776.00,83.15
775.00,83.07
774.00,82.98
773.00,82.91
772.00,82.87
771.00,82.86
770.00,82.85
769.00,82.80
768.00,82.72
767.00,82.64
766.00,82.56
765.00,82.47
764.00,82.38
763.00,82.29
762.00,82.21
761.00,82.11
760.00,81.97
759.00,81.82
758.00,81.71
757.00,81.63
756.00,81.56
755.00,81.47
754.00,81.36
753.00,81.23
752.00,81.08
751.00,80.97
750.00,80.89
749.00,80.81
748.00,80.70
747.00,80.57
746.00,80.44
745.00,80.32
744.00,80.20
743.00,80.09
742.00,79.97
741.00,79.83
740.00,79.66
739.00,79.51
738.00,79.39
737.00,79.25
736.00,79.04
735.00,78.78
734.00,78.53
733.00,78.35
732.00,78.19
731.00,78.01
730.00,77.81
729.00,77.59
728.00,77.36
727.00,77.12
726.00,76.85
725.00,76.57
724.00,76.28
723.00,75.99
722.00,75.67
721.00,75.29
720.00,74.90
719.00,74.54
718.00,74.22
717.00,73.94
716.00,73.69
715.00,73.48
714.00,73.30
713.00,73.12
712.00,72.93
711.00,72.76
710.00,72.60
709.00,72.45
708.00,72.31
707.00,72.21
706.00,72.15
705.00,72.09
704.00,72.05
703.00,72.03
702.00,72.04
701.00,72.05
700.00,72.04
699.00,72.02
698.00,71.98
697.00,71.91
696.00,71.83
695.00,71.79
694.00,71.81
693.00,71.83
692.00,71.82
691.00,71.82
690.00,71.84
689.00,71.84
688.00,71.78
687.00,71.70
686.00,71.63
685.00,71.54
684.00,71.40
683.00,71.21
682.00,70.94
681.00,70.53
680.00,69.95
679.00,69.28
678.00,68.55
677.00,67.74
676.00,66.82
675.00,65.80
674.00,64.75
673.00,63.71
672.00,62.81
671.00,62.12
670.00,61.63
669.00,61.24
668.00,60.89
667.00,60.66
666.00,60.55
665.00,60.47
664.00,60.40
663.00,60.35
662.00,60.37
661.00,60.42
660.00,60.51
659.00,60.71
658.00,61.03
657.00,61.41
656.00,61.79
655.00,62.14
654.00,62.41
653.00,62.55
652.00,62.60
651.00,62.65
650.00,62.76
649.00,62.90
648.00,63.02
647.00,63.16
646.00,63.32
645.00,63.40
644.00,63.33
643.00,63.13
642.00,62.90
641.00,62.71
640.00,62.59
639.00,62.56
638.00,62.55
637.00,62.42
636.00,62.16
635.00,61.85
634.00,61.61
633.00,61.45
632.00,61.40
631.00,61.47
630.00,61.58
629.00,61.59
628.00,61.46
627.00,61.29
626.00,61.14
625.00,60.98
624.00,60.83
623.00,60.76
622.00,60.64
621.00,60.26
620.00,59.66
619.00,59.15
618.00,58.93
617.00,58.82
616.00,58.74
615.00,58.72
614.00,58.63
613.00,58.20
612.00,57.41
611.00,56.57
610.00,55.91
609.00,55.42
608.00,55.17
607.00,55.38
606.00,55.96
605.00,56.55
604.00,57.01
603.00,57.52
602.00,58.10
601.00,58.43
600.00,58.30
599.00,57.88
598.00,57.43
597.00,57.00
596.00,56.66
595.00,56.64
594.00,56.93
593.00,57.15
592.00,56.99
591.00,56.72
590.00,56.65
589.00,56.66
588.00,56.49
587.00,56.20
586.00,56.02
585.00,55.99
584.00,56.03
583.00,56.26
582.00,56.64
581.00,56.92
580.00,56.96
579.00,56.99
578.00,57.13
577.00,57.08
576.00,56.65
575.00,56.17
574.00,56.02
573.00,56.14
572.00,56.39
571.00,56.70
570.00,56.84
569.00,56.58
568.00,56.16
567.00,56.01
566.00,55.94
565.00,55.31
564.00,54.17
563.00,53.27
562.00,52.86
561.00,52.32
560.00,51.46
559.00,51.03
558.00,51.48
557.00,52.09
556.00,52.11
555.00,51.74
554.00,51.46
553.00,51.27
552.00,50.97
551.00,50.72
550.00,50.61
