Created as New Dataset,16/2 Merc. cotton
cm-1,%T
4000.00,98.16
3999.00,98.17
3998.00,98.18
3997.00,98.19
3996.00,98.20
3995.00,98.21
3994.00,98.21
3993.00,98.21
3992.00,98.19
3991.00,98.18
3990.00,98.16
3989.00,98.14
3988.00,98.13
3987.00,98.13
3986.00,98.13
3985.00,98.13
3984.00,98.13
3983.00,98.15
3982.00,98.17
3981.00,98.20
3980.00,98.22
3979.00,98.23
3978.00,98.23
3977.00,98.22
3976.00,98.21
3975.00,98.20
3974.00,98.19
3973.00,98.19
3972.00,98.19
3971.00,98.19
3970.00,98.20
3969.00,98.20
3968.00,98.20
3967.00,98.21
3966.00,98.22
3965.00,98.23
3964.00,98.24
3963.00,98.24
3962.00,98.23
3961.00,98.22
3960.00,98.22
3959.00,98.23
3958.00,98.24
3957.00,98.24
3956.00,98.24
3955.00,98.23
3954.00,98.22
3953.00,98.21
3952.00,98.21
3951.00,98.21
3950.00,98.21
3949.00,98.21
3948.00,98.21
3947.00,98.20
3946.00,98.20
3945.00,98.19
3944.00,98.19
3943.00,98.18
3942.00,98.17
3941.00,98.15
3940.00,98.14
3939.00,98.13
3938.00,98.14
3937.00,98.15
3936.00,98.15
3935.00,98.14
3934.00,98.13
3933.00,98.13
3932.00,98.15
3931.00,98.17
3930.00,98.20
3929.00,98.22
3928.00,98.21
3927.00,98.18
3926.00,98.17
3925.00,98.16
3924.00,98.16
3923.00,98.16
3922.00,98.17
3921.00,98.17
3920.00,98.18
3919.00,98.18
3918.00,98.19
3917.00,98.21
3916.00,98.23
3915.00,98.24
3914.00,98.24
3913.00,98.24
3912.00,98.25
3911.00,98.26
3910.00,98.27
3909.00,98.26
3908.00,98.22
3907.00,98.19
3906.00,98.16
3905.00,98.15
3904.00,98.15
3903.00,98.13
3902.00,98.10
3901.00,98.08
3900.00,98.08
3899.00,98.09
3898.00,98.11
3897.00,98.12
3896.00,98.14
3895.00,98.17
3894.00,98.20
3893.00,98.24
3892.00,98.27
3891.00,98.28
3890.00,98.25
3889.00,98.21
3888.00,98.19
3887.00,98.20
3886.00,98.21
3885.00,98.19
3884.00,98.15
3883.00,98.11
3882.00,98.12
3881.00,98.16
3880.00,98.20
3879.00,98.21
3878.00,98.19
3877.00,98.18
3876.00,98.20
3875.00,98.23
3874.00,98.23
3873.00,98.19
3872.00,98.14
3871.00,98.12
3870.00,98.13
3869.00,98.13
3868.00,98.12
3867.00,98.10
3866.00,98.10
3865.00,98.11
3864.00,98.11
3863.00,98.12
3862.00,98.15
3861.00,98.20
3860.00,98.25
3859.00,98.29
3858.00,98.30
3857.00,98.28
3856.00,98.27
3855.00,98.29
3854.00,98.32
3853.00,98.29
3852.00,98.23
3851.00,98.17
3850.00,98.15
3849.00,98.14
3848.00,98.15
3847.00,98.16
3846.00,98.17
3845.00,98.17
3844.00,98.18
3843.00,98.18
3842.00,98.19
3841.00,98.19
3840.00,98.20
3839.00,98.18
3838.00,98.14
3837.00,98.10
3836.00,98.08
3835.00,98.09
3834.00,98.13
3833.00,98.17
3832.00,98.20
3831.00,98.19
3830.00,98.16
3829.00,98.14
3828.00,98.14
3827.00,98.17
3826.00,98.17
3825.00,98.15
3824.00,98.10
3823.00,98.08
3822.00,98.11
3821.00,98.14
3820.00,98.14
3819.00,98.12
3818.00,98.11
3817.00,98.15
3816.00,98.19
3815.00,98.19
3814.00,98.16
3813.00,98.15
3812.00,98.16
3811.00,98.18
3810.00,98.18
3809.00,98.17
3808.00,98.16
3807.00,98.15
3806.00,98.13
3805.00,98.08
3804.00,98.02
3803.00,98.00
3802.00,98.02
3801.00,98.05
3800.00,98.06
3799.00,98.07
3798.00,98.09
3797.00,98.12
3796.00,98.15
3795.00,98.16
3794.00,98.16
3793.00,98.16
3792.00,98.16
3791.00,98.17
3790.00,98.18
3789.00,98.19
3788.00,98.20
3787.00,98.21
3786.00,98.22
3785.00,98.22
3784.00,98.18
3783.00,98.13
3782.00,98.09
3781.00,98.07
3780.00,98.09
3779.00,98.12
3778.00,98.15
3777.00,98.17
3776.00,98.19
3775.00,98.20
3774.00,98.18
3773.00,98.15
3772.00,98.12
3771.00,98.10
3770.00,98.08
3769.00,98.06
3768.00,98.04
3767.00,98.05
3766.00,98.09
3765.00,98.12
3764.00,98.13
3763.00,98.11
3762.00,98.09
3761.00,98.09
3760.00,98.11
3759.00,98.12
3758.00,98.12
3757.00,98.13
3756.00,98.13
3755.00,98.13
3754.00,98.14
3753.00,98.14
3752.00,98.14
3751.00,98.13
3750.00,98.12
3749.00,98.11
3748.00,98.10
3747.00,98.07
3746.00,98.06
3745.00,98.07
3744.00,98.08
3743.00,98.06
3742.00,98.05
3741.00,98.08
3740.00,98.13
3739.00,98.16
3738.00,98.16
3737.00,98.15
3736.00,98.12
3735.00,98.08
3734.00,98.03
3733.00,98.01
3732.00,98.00
3731.00,98.00
3730.00,98.00
3729.00,98.00
3728.00,98.02
3727.00,98.06
3726.00,98.09
3725.00,98.10
3724.00,98.10
3723.00,98.10
3722.00,98.09
3721.00,98.08
3720.00,98.07
3719.00,98.06
3718.00,98.06
3717.00,98.06
3716.00,98.06
3715.00,98.06
3714.00,98.06
3713.00,98.06
3712.00,98.05
3711.00,98.03
3710.00,98.01
3709.00,98.02
3708.00,98.04
3707.00,98.07
3706.00,98.09
3705.00,98.09
3704.00,98.08
3703.00,98.09
3702.00,98.10
3701.00,98.11
3700.00,98.10
3699.00,98.09
3698.00,98.09
3697.00,98.11
3696.00,98.13
3695.00,98.13
3694.00,98.11
3693.00,98.09
3692.00,98.07
3691.00,98.07
3690.00,98.07
3689.00,98.09
3688.00,98.09
3687.00,98.09
3686.00,98.09
3685.00,98.10
3684.00,98.11
3683.00,98.11
3682.00,98.09
3681.00,98.07
3680.00,98.05
3679.00,98.02
3678.00,98.00
3677.00,97.99
3676.00,98.00
3675.00,97.99
3674.00,97.96
3673.00,97.93
3672.00,97.95
3671.00,98.00
3670.00,98.04
3669.00,98.03
3668.00,98.00
3667.00,97.96
3666.00,97.95
3665.00,97.95
3664.00,97.97
3663.00,97.98
3662.00,98.00
3661.00,98.00
3660.00,97.98
3659.00,97.94
3658.00,97.91
3657.00,97.91
3656.00,97.91
3655.00,97.89
3654.00,97.85
3653.00,97.81
3652.00,97.80
3651.00,97.81
3650.00,97.79
3649.00,97.73
3648.00,97.67
3647.00,97.65
3646.00,97.67
3645.00,97.71
3644.00,97.75
3643.00,97.78
3642.00,97.79
3641.00,97.77
3640.00,97.75
3639.00,97.74
3638.00,97.72
3637.00,97.71
3636.00,97.69
3635.00,97.68
3634.00,97.68
3633.00,97.65
3632.00,97.61
3631.00,97.58
3630.00,97.56
3629.00,97.55
3628.00,97.54
3627.00,97.55
3626.00,97.57
3625.00,97.59
3624.00,97.58
3623.00,97.54
3622.00,97.49
3621.00,97.45
3620.00,97.44
3619.00,97.44
3618.00,97.41
3617.00,97.36
3616.00,97.32
3615.00,97.31
3614.00,97.32
3613.00,97.33
3612.00,97.31
3611.00,97.28
3610.00,97.27
3609.00,97.28
3608.00,97.27
3607.00,97.25
3606.00,97.20
3605.00,97.17
3604.00,97.16
3603.00,97.16
3602.00,97.17
3601.00,97.16
3600.00,97.15
3599.00,97.13
3598.00,97.11
3597.00,97.10
3596.00,97.09
3595.00,97.07
3594.00,97.05
3593.00,97.01
3592.00,96.96
3591.00,96.92
3590.00,96.90
3589.00,96.92
3588.00,96.94
3587.00,96.94
3586.00,96.93
3585.00,96.92
3584.00,96.91
3583.00,96.91
3582.00,96.88
3581.00,96.85
3580.00,96.80
3579.00,96.77
3578.00,96.75
3577.00,96.75
3576.00,96.74
3575.00,96.72
3574.00,96.69
3573.00,96.65
3572.00,96.60
3571.00,96.53
3570.00,96.47
3569.00,96.43
3568.00,96.41
3567.00,96.40
3566.00,96.39
3565.00,96.36
3564.00,96.34
3563.00,96.31
3562.00,96.29
3561.00,96.26
3560.00,96.24
3559.00,96.21
3558.00,96.18
3557.00,96.15
3556.00,96.12
3555.00,96.10
3554.00,96.08
3553.00,96.05
3552.00,96.02
3551.00,95.97
3550.00,95.93
3549.00,95.91
3548.00,95.90
3547.00,95.91
3546.00,95.91
3545.00,95.89
3544.00,95.86
3543.00,95.81
3542.00,95.77
3541.00,95.73
3540.00,95.69
3539.00,95.66
3538.00,95.63
3537.00,95.59
3536.00,95.56
3535.00,95.52
3534.00,95.50
3533.00,95.48
3532.00,95.47
3531.00,95.44
3530.00,95.41
3529.00,95.36
3528.00,95.31
3527.00,95.26
3526.00,95.21
3525.00,95.16
3524.00,95.10
3523.00,95.04
3522.00,94.99
3521.00,94.95
3520.00,94.92
3519.00,94.88
3518.00,94.85
3517.00,94.81
3516.00,94.77
3515.00,94.73
3514.00,94.68
3513.00,94.61
3512.00,94.54
3511.00,94.46
3510.00,94.40
3509.00,94.35
3508.00,94.30
3507.00,94.24
3506.00,94.18
3505.00,94.11
3504.00,94.03
3503.00,93.95
3502.00,93.85
3501.00,93.75
3500.00,93.65
3499.00,93.55
3498.00,93.44
3497.00,93.34
3496.00,93.24
3495.00,93.15
3494.00,93.06
3493.00,92.97
3492.00,92.86
3491.00,92.76
3490.00,92.65
3489.00,92.57
3488.00,92.50
3487.00,92.47
3486.00,92.45
3485.00,92.44
3484.00,92.44
3483.00,92.43
3482.00,92.42
3481.00,92.41
3480.00,92.40
3479.00,92.40
3478.00,92.39
3477.00,92.39
3476.00,92.38
3475.00,92.37
3474.00,92.34
3473.00,92.32
3472.00,92.29
3471.00,92.26
3470.00,92.23
3469.00,92.19
3468.00,92.14
3467.00,92.07
3466.00,92.01
3465.00,91.98
3464.00,91.95
3463.00,91.93
3462.00,91.87
3461.00,91.79
3460.00,91.69
3459.00,91.59
3458.00,91.51
3457.00,91.45
3456.00,91.38
3455.00,91.31
3454.00,91.21
3453.00,91.11
3452.00,91.00
3451.00,90.88
3450.00,90.76
3449.00,90.66
3448.00,90.56
3447.00,90.47
3446.00,90.38
3445.00,90.29
3444.00,90.20
3443.00,90.12
3442.00,90.05
3441.00,90.00
3440.00,89.96
3439.00,89.94
3438.00,89.93
3437.00,89.93
3436.00,89.93
3435.00,89.94
3434.00,89.96
3433.00,89.99
3432.00,90.02
3431.00,90.06
3430.00,90.08
3429.00,90.09
3428.00,90.08
3427.00,90.06
3426.00,90.05
3425.00,90.04
3424.00,90.04
3423.00,90.05
3422.00,90.06
3421.00,90.06
3420.00,90.05
3419.00,90.03
3418.00,90.01
3417.00,89.97
3416.00,89.94
3415.00,89.90
3414.00,89.87
3413.00,89.85
3412.00,89.84
3411.00,89.83
3410.00,89.82
3409.00,89.81
3408.00,89.79
3407.00,89.76
3406.00,89.72
3405.00,89.67
3404.00,89.62
3403.00,89.58
3402.00,89.56
3401.00,89.54
3400.00,89.53
3399.00,89.51
3398.00,89.48
3397.00,89.46
3396.00,89.43
3395.00,89.40
3394.00,89.37
3393.00,89.33
3392.00,89.30
3391.00,89.27
3390.00,89.26
3389.00,89.24
3388.00,89.23
3387.00,89.20
3386.00,89.17
3385.00,89.13
3384.00,89.09
3383.00,89.06
3382.00,89.02
3381.00,88.98
3380.00,88.94
3379.00,88.91
3378.00,88.88
3377.00,88.86
3376.00,88.84
3375.00,88.81
3374.00,88.79
3373.00,88.75
3372.00,88.71
3371.00,88.66
3370.00,88.61
3369.00,88.57
3368.00,88.54
3367.00,88.52
3366.00,88.49
3365.00,88.46
3364.00,88.43
3363.00,88.40
3362.00,88.37
3361.00,88.32
3360.00,88.26
3359.00,88.20
3358.00,88.15
3357.00,88.10
3356.00,88.05
3355.00,88.01
3354.00,87.96
3353.00,87.91
3352.00,87.86
3351.00,87.80
3350.00,87.75
3349.00,87.69
3348.00,87.63
3347.00,87.57
3346.00,87.51
3345.00,87.47
3344.00,87.44
3343.00,87.43
3342.00,87.41
3341.00,87.37
3340.00,87.30
3339.00,87.23
3338.00,87.16
3337.00,87.11
3336.00,87.09
3335.00,87.09
3334.00,87.10
3333.00,87.12
3332.00,87.14
3331.00,87.15
3330.00,87.16
3329.00,87.16
3328.00,87.17
3327.00,87.18
3326.00,87.20
3325.00,87.22
3324.00,87.23
3323.00,87.23
3322.00,87.24
3321.00,87.26
3320.00,87.28
3319.00,87.31
3318.00,87.32
3317.00,87.34
3316.00,87.36
3315.00,87.39
3314.00,87.41
3313.00,87.42
3312.00,87.42
3311.00,87.42
3310.00,87.42
3309.00,87.41
3308.00,87.41
3307.00,87.41
3306.00,87.41
3305.00,87.41
3304.00,87.41
3303.00,87.41
3302.00,87.41
3301.00,87.42
3300.00,87.42
3299.00,87.42
3298.00,87.41
3297.00,87.41
3296.00,87.41
3295.00,87.42
3294.00,87.43
3293.00,87.43
3292.00,87.43
3291.00,87.43
3290.00,87.42
3289.00,87.42
3288.00,87.42
3287.00,87.43
3286.00,87.45
3285.00,87.46
3284.00,87.48
3283.00,87.49
3282.00,87.50
3281.00,87.52
3280.00,87.54
3279.00,87.55
3278.00,87.56
3277.00,87.57
3276.00,87.58
3275.00,87.57
3274.00,87.57
3273.00,87.57
3272.00,87.56
3271.00,87.56
3270.00,87.56
3269.00,87.57
3268.00,87.60
3267.00,87.64
3266.00,87.68
3265.00,87.72
3264.00,87.76
3263.00,87.80
3262.00,87.84
3261.00,87.88
3260.00,87.92
3259.00,87.95
3258.00,87.98
3257.00,88.01
3256.00,88.05
3255.00,88.10
3254.00,88.14
3253.00,88.18
3252.00,88.23
3251.00,88.27
3250.00,88.31
3249.00,88.35
3248.00,88.38
3247.00,88.41
3246.00,88.43
3245.00,88.46
3244.00,88.48
3243.00,88.51
3242.00,88.54
3241.00,88.58
3240.00,88.61
3239.00,88.65
3238.00,88.69
3237.00,88.74
3236.00,88.78
3235.00,88.82
3234.00,88.85
3233.00,88.89
3232.00,88.93
3231.00,88.97
3230.00,89.00
3229.00,89.03
3228.00,89.07
3227.00,89.11
3226.00,89.16
3225.00,89.19
3224.00,89.23
3223.00,89.25
3222.00,89.27
3221.00,89.27
3220.00,89.27
3219.00,89.28
3218.00,89.29
3217.00,89.33
3216.00,89.37
3215.00,89.41
3214.00,89.45
3213.00,89.48
3212.00,89.51
3211.00,89.54
3210.00,89.58
3209.00,89.61
3208.00,89.64
3207.00,89.67
3206.00,89.70
3205.00,89.72
3204.00,89.73
3203.00,89.75
3202.00,89.76
3201.00,89.78
3200.00,89.82
3199.00,89.85
3198.00,89.89
3197.00,89.92
3196.00,89.94
3195.00,89.96
3194.00,89.97
3193.00,89.96
3192.00,89.96
3191.00,89.97
3190.00,90.01
3189.00,90.05
3188.00,90.09
3187.00,90.11
3186.00,90.13
3185.00,90.15
3184.00,90.17
3183.00,90.18
3182.00,90.20
3181.00,90.23
3180.00,90.27
3179.00,90.31
3178.00,90.34
3177.00,90.35
3176.00,90.35
3175.00,90.36
3174.00,90.36
3173.00,90.37
3172.00,90.38
3171.00,90.39
3170.00,90.40
3169.00,90.42
3168.00,90.45
3167.00,90.48
3166.00,90.51
3165.00,90.54
3164.00,90.55
3163.00,90.56
3162.00,90.58
3161.00,90.61
3160.00,90.65
3159.00,90.68
3158.00,90.70
3157.00,90.73
3156.00,90.75
3155.00,90.77
3154.00,90.79
3153.00,90.81
3152.00,90.84
3151.00,90.88
3150.00,90.91
3149.00,90.95
3148.00,90.98
3147.00,90.99
3146.00,91.00
3145.00,91.01
3144.00,91.05
3143.00,91.09
3142.00,91.13
3141.00,91.17
3140.00,91.19
3139.00,91.20
3138.00,91.23
3137.00,91.26
3136.00,91.29
3135.00,91.32
3134.00,91.34
3133.00,91.38
3132.00,91.42
3131.00,91.46
3130.00,91.50
3129.00,91.53
3128.00,91.56
3127.00,91.60
3126.00,91.63
3125.00,91.66
3124.00,91.70
3123.00,91.73
3122.00,91.75
3121.00,91.77
3120.00,91.79
3119.00,91.81
3118.00,91.84
3117.00,91.86
3116.00,91.89
3115.00,91.92
3114.00,91.98
3113.00,92.03
3112.00,92.08
3111.00,92.12
3110.00,92.16
3109.00,92.20
3108.00,92.25
3107.00,92.28
3106.00,92.32
3105.00,92.35
3104.00,92.38
3103.00,92.40
3102.00,92.42
3101.00,92.44
3100.00,92.46
3099.00,92.50
3098.00,92.54
3097.00,92.58
3096.00,92.62
3095.00,92.65
3094.00,92.67
3093.00,92.68
3092.00,92.70
3091.00,92.73
3090.00,92.77
3089.00,92.81
3088.00,92.84
3087.00,92.88
3086.00,92.92
3085.00,92.97
3084.00,93.01
3083.00,93.06
3082.00,93.10
3081.00,93.12
3080.00,93.12
3079.00,93.13
3078.00,93.14
3077.00,93.17
3076.00,93.20
3075.00,93.24
3074.00,93.28
3073.00,93.32
3072.00,93.37
3071.00,93.41
3070.00,93.44
3069.00,93.45
3068.00,93.46
3067.00,93.48
3066.00,93.51
3065.00,93.54
3064.00,93.57
3063.00,93.60
3062.00,93.63
3061.00,93.65
3060.00,93.68
3059.00,93.70
3058.00,93.72
3057.00,93.74
3056.00,93.77
3055.00,93.80
3054.00,93.83
3053.00,93.87
3052.00,93.91
3051.00,93.94
3050.00,93.95
3049.00,93.96
3048.00,93.98
3047.00,94.02
3046.00,94.06
3045.00,94.09
3044.00,94.13
3043.00,94.16
3042.00,94.18
3041.00,94.18
3040.00,94.18
3039.00,94.18
3038.00,94.18
3037.00,94.18
3036.00,94.19
3035.00,94.21
3034.00,94.23
3033.00,94.25
3032.00,94.27
3031.00,94.30
3030.00,94.34
3029.00,94.37
3028.00,94.40
3027.00,94.42
3026.00,94.43
3025.00,94.44
3024.00,94.46
3023.00,94.48
3022.00,94.50
3021.00,94.53
3020.00,94.56
3019.00,94.58
3018.00,94.61
3017.00,94.62
3016.00,94.63
3015.00,94.64
3014.00,94.65
3013.00,94.65
3012.00,94.67
3011.00,94.68
3010.00,94.69
3009.00,94.71
3008.00,94.74
3007.00,94.77
3006.00,94.80
3005.00,94.82
3004.00,94.82
3003.00,94.83
3002.00,94.85
3001.00,94.86
3000.00,94.87
2999.00,94.88
2998.00,94.89
2997.00,94.91
2996.00,94.92
2995.00,94.92
2994.00,94.91
2993.00,94.88
2992.00,94.86
2991.00,94.85
2990.00,94.85
2989.00,94.86
2988.00,94.85
2987.00,94.85
2986.00,94.84
2985.00,94.83
2984.00,94.82
2983.00,94.82
2982.00,94.81
2981.00,94.81
2980.00,94.80
2979.00,94.79
2978.00,94.79
2977.00,94.79
2976.00,94.78
2975.00,94.76
2974.00,94.74
2973.00,94.71
2972.00,94.66
2971.00,94.61
2970.00,94.57
2969.00,94.54
2968.00,94.53
2967.00,94.51
2966.00,94.49
2965.00,94.47
2964.00,94.44
2963.00,94.41
2962.00,94.37
2961.00,94.34
2960.00,94.30
2959.00,94.27
2958.00,94.25
2957.00,94.24
2956.00,94.22
2955.00,94.21
2954.00,94.18
2953.00,94.15
2952.00,94.10
2951.00,94.07
2950.00,94.04
2949.00,94.02
2948.00,93.99
2947.00,93.96
2946.00,93.91
2945.00,93.87
2944.00,93.83
2943.00,93.78
2942.00,93.73
2941.00,93.69
2940.00,93.65
2939.00,93.60
2938.00,93.55
2937.00,93.49
2936.00,93.43
2935.00,93.37
2934.00,93.32
2933.00,93.28
2932.00,93.24
2931.00,93.19
2930.00,93.14
2929.00,93.09
2928.00,93.03
2927.00,92.97
2926.00,92.89
2925.00,92.80
2924.00,92.70
2923.00,92.60
2922.00,92.52
2921.00,92.45
2920.00,92.38
2919.00,92.31
2918.00,92.24
2917.00,92.20
2916.00,92.17
2915.00,92.17
2914.00,92.18
2913.00,92.18
2912.00,92.17
2911.00,92.13
2910.00,92.08
2909.00,92.04
2908.00,92.00
2907.00,91.97
2906.00,91.96
2905.00,91.95
2904.00,91.94
2903.00,91.92
2902.00,91.90
2901.00,91.86
2900.00,91.83
2899.00,91.79
2898.00,91.77
2897.00,91.75
2896.00,91.74
2895.00,91.73
2894.00,91.71
2893.00,91.70
2892.00,91.70
2891.00,91.71
2890.00,91.76
2889.00,91.81
2888.00,91.87
2887.00,91.92
2886.00,91.97
2885.00,92.01
2884.00,92.04
2883.00,92.07
2882.00,92.09
2881.00,92.11
2880.00,92.12
2879.00,92.13
2878.00,92.16
2877.00,92.18
2876.00,92.21
2875.00,92.23
2874.00,92.25
2873.00,92.28
2872.00,92.31
2871.00,92.34
2870.00,92.37
2869.00,92.41
2868.00,92.46
2867.00,92.50
2866.00,92.54
2865.00,92.58
2864.00,92.62
2863.00,92.66
2862.00,92.70
2861.00,92.73
2860.00,92.75
2859.00,92.77
2858.00,92.78
2857.00,92.80
2856.00,92.80
2855.00,92.79
2854.00,92.77
2853.00,92.75
2852.00,92.75
2851.00,92.79
2850.00,92.85
2849.00,92.93
2848.00,93.02
2847.00,93.10
2846.00,93.19
2845.00,93.27
2844.00,93.35
2843.00,93.43
2842.00,93.50
2841.00,93.56
2840.00,93.62
2839.00,93.67
2838.00,93.71
2837.00,93.75
2836.00,93.79
2835.00,93.83
2834.00,93.86
2833.00,93.89
2832.00,93.91
2831.00,93.94
2830.00,93.96
2829.00,93.99
2828.00,94.01
2827.00,94.03
2826.00,94.06
2825.00,94.08
2824.00,94.11
2823.00,94.13
2822.00,94.15
2821.00,94.16
2820.00,94.18
2819.00,94.19
2818.00,94.21
2817.00,94.23
2816.00,94.25
2815.00,94.28
2814.00,94.30
2813.00,94.33
2812.00,94.34
2811.00,94.35
2810.00,94.36
2809.00,94.37
2808.00,94.39
2807.00,94.41
2806.00,94.44
2805.00,94.46
2804.00,94.48
2803.00,94.50
2802.00,94.51
2801.00,94.52
2800.00,94.53
2799.00,94.54
2798.00,94.55
2797.00,94.58
2796.00,94.61
2795.00,94.63
2794.00,94.64
2793.00,94.64
2792.00,94.63
2791.00,94.63
2790.00,94.63
2789.00,94.64
2788.00,94.66
2787.00,94.68
2786.00,94.70
2785.00,94.73
2784.00,94.76
2783.00,94.78
2782.00,94.80
2781.00,94.82
2780.00,94.83
2779.00,94.84
2778.00,94.85
2777.00,94.85
2776.00,94.85
2775.00,94.86
2774.00,94.87
2773.00,94.88
2772.00,94.91
2771.00,94.93
2770.00,94.95
2769.00,94.96
2768.00,94.97
2767.00,94.97
2766.00,94.97
2765.00,94.96
2764.00,94.96
2763.00,94.96
2762.00,94.96
2761.00,94.97
2760.00,94.97
2759.00,94.98
2758.00,94.98
2757.00,94.98
2756.00,94.98
2755.00,94.97
2754.00,94.97
2753.00,94.98
2752.00,94.98
2751.00,94.99
2750.00,94.99
2749.00,95.00
2748.00,95.02
2747.00,95.02
2746.00,95.02
2745.00,95.02
2744.00,95.01
2743.00,95.00
2742.00,95.00
2741.00,95.01
2740.00,95.01
2739.00,95.00
2738.00,94.99
2737.00,94.98
2736.00,94.99
2735.00,95.00
2734.00,95.01
2733.00,95.02
2732.00,95.03
2731.00,95.03
2730.00,95.03
2729.00,95.03
2728.00,95.04
2727.00,95.05
2726.00,95.07
2725.00,95.07
2724.00,95.07
2723.00,95.07
2722.00,95.07
2721.00,95.06
2720.00,95.06
2719.00,95.07
2718.00,95.08
2717.00,95.10
2716.00,95.11
2715.00,95.12
2714.00,95.14
2713.00,95.16
2712.00,95.17
2711.00,95.19
2710.00,95.19
2709.00,95.18
2708.00,95.17
2707.00,95.16
2706.00,95.16
2705.00,95.16
2704.00,95.18
2703.00,95.19
2702.00,95.21
2701.00,95.22
2700.00,95.23
2699.00,95.24
2698.00,95.25
2697.00,95.26
2696.00,95.26
2695.00,95.26
2694.00,95.25
2693.00,95.25
2692.00,95.24
2691.00,95.25
2690.00,95.26
2689.00,95.27
2688.00,95.28
2687.00,95.29
2686.00,95.30
2685.00,95.32
2684.00,95.33
2683.00,95.34
2682.00,95.35
2681.00,95.36
2680.00,95.36
2679.00,95.36
2678.00,95.36
2677.00,95.37
2676.00,95.37
2675.00,95.38
2674.00,95.38
2673.00,95.38
2672.00,95.39
2671.00,95.40
2670.00,95.43
2669.00,95.45
2668.00,95.47
2667.00,95.48
2666.00,95.48
2665.00,95.47
2664.00,95.46
2663.00,95.45
2662.00,95.44
2661.00,95.43
2660.00,95.43
2659.00,95.44
2658.00,95.44
2657.00,95.45
2656.00,95.45
2655.00,95.45
2654.00,95.45
2653.00,95.44
2652.00,95.43
2651.00,95.42
2650.00,95.42
2649.00,95.43
2648.00,95.42
2647.00,95.41
2646.00,95.40
2645.00,95.40
2644.00,95.41
2643.00,95.42
2642.00,95.43
2641.00,95.42
2640.00,95.39
2639.00,95.36
2638.00,95.34
2637.00,95.33
2636.00,95.32
2635.00,95.33
2634.00,95.33
2633.00,95.35
2632.00,95.36
2631.00,95.36
2630.00,95.35
2629.00,95.35
2628.00,95.35
2627.00,95.35
2626.00,95.36
2625.00,95.36
2624.00,95.36
2623.00,95.35
2622.00,95.34
2621.00,95.33
2620.00,95.32
2619.00,95.31
2618.00,95.31
2617.00,95.32
2616.00,95.32
2615.00,95.32
2614.00,95.32
2613.00,95.33
2612.00,95.34
2611.00,95.35
2610.00,95.34
2609.00,95.33
2608.00,95.32
2607.00,95.31
2606.00,95.31
2605.00,95.32
2604.00,95.34
2603.00,95.35
2602.00,95.36
2601.00,95.36
2600.00,95.36
2599.00,95.36
2598.00,95.36
2597.00,95.35
2596.00,95.33
2595.00,95.32
2594.00,95.30
2593.00,95.30
2592.00,95.29
2591.00,95.30
2590.00,95.32
2589.00,95.34
2588.00,95.36
2587.00,95.37
2586.00,95.36
2585.00,95.35
2584.00,95.33
2583.00,95.32
2582.00,95.31
2581.00,95.31
2580.00,95.33
2579.00,95.34
2578.00,95.34
2577.00,95.34
2576.00,95.32
2575.00,95.31
2574.00,95.30
2573.00,95.31
2572.00,95.34
2571.00,95.35
2570.00,95.33
2569.00,95.30
2568.00,95.27
2567.00,95.25
2566.00,95.25
2565.00,95.27
2564.00,95.27
2563.00,95.28
2562.00,95.28
2561.00,95.29
2560.00,95.30
2559.00,95.32
2558.00,95.33
2557.00,95.34
2556.00,95.33
2555.00,95.31
2554.00,95.29
2553.00,95.28
2552.00,95.28
2551.00,95.29
2550.00,95.31
2549.00,95.33
2548.00,95.35
2547.00,95.34
2546.00,95.32
2545.00,95.28
2544.00,95.26
2543.00,95.24
2542.00,95.23
2541.00,95.23
2540.00,95.23
2539.00,95.25
2538.00,95.27
2537.00,95.28
2536.00,95.26
2535.00,95.23
2534.00,95.21
2533.00,95.22
2532.00,95.24
2531.00,95.26
2530.00,95.28
2529.00,95.29
2528.00,95.30
2527.00,95.31
2526.00,95.32
2525.00,95.32
2524.00,95.31
2523.00,95.31
2522.00,95.30
2521.00,95.30
2520.00,95.30
2519.00,95.30
2518.00,95.30
2517.00,95.29
2516.00,95.29
2515.00,95.31
2514.00,95.34
2513.00,95.35
2512.00,95.36
2511.00,95.37
2510.00,95.37
2509.00,95.36
2508.00,95.34
2507.00,95.32
2506.00,95.31
2505.00,95.32
2504.00,95.33
2503.00,95.35
2502.00,95.34
2501.00,95.33
2500.00,95.32
2499.00,95.33
2498.00,95.36
2497.00,95.39
2496.00,95.40
2495.00,95.40
2494.00,95.40
2493.00,95.39
2492.00,95.39
2491.00,95.39
2490.00,95.40
2489.00,95.40
2488.00,95.39
2487.00,95.38
2486.00,95.37
2485.00,95.36
2484.00,95.36
2483.00,95.38
2482.00,95.39
2481.00,95.40
2480.00,95.39
2479.00,95.37
2478.00,95.37
2477.00,95.39
2476.00,95.42
2475.00,95.44
2474.00,95.46
2473.00,95.46
2472.00,95.45
2471.00,95.42
2470.00,95.40
2469.00,95.38
2468.00,95.38
2467.00,95.39
2466.00,95.41
2465.00,95.43
2464.00,95.45
2463.00,95.47
2462.00,95.49
2461.00,95.50
2460.00,95.50
2459.00,95.47
2458.00,95.45
2457.00,95.43
2456.00,95.43
2455.00,95.45
2454.00,95.48
2453.00,95.51
2452.00,95.53
2451.00,95.53
2450.00,95.53
2449.00,95.52
2448.00,95.51
2447.00,95.50
2446.00,95.50
2445.00,95.50
2444.00,95.50
2443.00,95.48
2442.00,95.47
2441.00,95.46
2440.00,95.48
2439.00,95.49
2438.00,95.51
2437.00,95.52
2436.00,95.52
2435.00,95.52
2434.00,95.52
2433.00,95.53
2432.00,95.54
2431.00,95.55
2430.00,95.56
2429.00,95.57
2428.00,95.58
2427.00,95.60
2426.00,95.60
2425.00,95.60
2424.00,95.60
2423.00,95.60
2422.00,95.60
2421.00,95.61
2420.00,95.61
2419.00,95.60
2418.00,95.61
2417.00,95.62
2416.00,95.64
2415.00,95.65
2414.00,95.67
2413.00,95.69
2412.00,95.70
2411.00,95.70
2410.00,95.69
2409.00,95.68
2408.00,95.67
2407.00,95.66
2406.00,95.65
2405.00,95.65
2404.00,95.66
2403.00,95.68
2402.00,95.70
2401.00,95.71
2400.00,95.70
2399.00,95.70
2398.00,95.70
2397.00,95.71
2396.00,95.71
2395.00,95.71
2394.00,95.73
2393.00,95.75
2392.00,95.79
2391.00,95.83
2390.00,95.86
2389.00,95.88
2388.00,95.89
2387.00,95.90
2386.00,95.91
2385.00,95.92
2384.00,95.94
2383.00,95.97
2382.00,96.01
2381.00,96.03
2380.00,96.05
2379.00,96.06
2378.00,96.06
2377.00,96.07
2376.00,96.07
2375.00,96.06
2374.00,96.04
2373.00,96.02
2372.00,96.00
2371.00,96.00
2370.00,96.04
2369.00,96.08
2368.00,96.10
2367.00,96.09
2366.00,96.08
2365.00,96.09
2364.00,96.13
2363.00,96.17
2362.00,96.17
2361.00,96.15
2360.00,96.14
2359.00,96.18
2358.00,96.23
2357.00,96.24
2356.00,96.20
2355.00,96.13
2354.00,96.08
2353.00,96.08
2352.00,96.10
2351.00,96.14
2350.00,96.18
2349.00,96.21
2348.00,96.24
2347.00,96.25
2346.00,96.25
2345.00,96.23
2344.00,96.23
2343.00,96.22
2342.00,96.22
2341.00,96.21
2340.00,96.19
2339.00,96.16
2338.00,96.13
2337.00,96.12
2336.00,96.12
2335.00,96.13
2334.00,96.13
2333.00,96.12
2332.00,96.09
2331.00,96.07
2330.00,96.07
2329.00,96.09
2328.00,96.12
2327.00,96.12
2326.00,96.08
2325.00,96.02
2324.00,95.97
2323.00,95.95
2322.00,95.96
2321.00,95.98
2320.00,96.00
2319.00,96.00
2318.00,95.99
2317.00,95.97
2316.00,95.95
2315.00,95.93
2314.00,95.93
2313.00,95.92
2312.00,95.91
2311.00,95.89
2310.00,95.87
2309.00,95.85
2308.00,95.84
2307.00,95.82
2306.00,95.81
2305.00,95.79
2304.00,95.77
2303.00,95.76
2302.00,95.75
2301.00,95.73
2300.00,95.72
2299.00,95.70
2298.00,95.69
2297.00,95.69
2296.00,95.69
2295.00,95.67
2294.00,95.65
2293.00,95.62
2292.00,95.59
2291.00,95.54
2290.00,95.49
2289.00,95.45
2288.00,95.42
2287.00,95.41
2286.00,95.41
2285.00,95.39
2284.00,95.36
2283.00,95.33
2282.00,95.30
2281.00,95.30
2280.00,95.33
2279.00,95.37
2278.00,95.40
2277.00,95.39
2276.00,95.36
2275.00,95.31
2274.00,95.28
2273.00,95.25
2272.00,95.24
2271.00,95.22
2270.00,95.21
2269.00,95.20
2268.00,95.20
2267.00,95.19
2266.00,95.17
2265.00,95.14
2264.00,95.11
2263.00,95.09
2262.00,95.08
2261.00,95.11
2260.00,95.14
2259.00,95.16
2258.00,95.19
2257.00,95.20
2256.00,95.21
2255.00,95.19
2254.00,95.15
2253.00,95.10
2252.00,95.08
2251.00,95.09
2250.00,95.10
2249.00,95.09
2248.00,95.05
2247.00,95.00
2246.00,94.95
2245.00,94.92
2244.00,94.91
2243.00,94.92
2242.00,94.93
2241.00,94.94
2240.00,94.94
2239.00,94.93
2238.00,94.93
2237.00,94.93
2236.00,94.93
2235.00,94.92
2234.00,94.91
2233.00,94.90
2232.00,94.88
2231.00,94.86
2230.00,94.83
2229.00,94.81
2228.00,94.80
2227.00,94.81
2226.00,94.82
2225.00,94.81
2224.00,94.79
2223.00,94.77
2222.00,94.74
2221.00,94.73
2220.00,94.73
2219.00,94.75
2218.00,94.80
2217.00,94.86
2216.00,94.90
2215.00,94.90
2214.00,94.86
2213.00,94.79
2212.00,94.73
2211.00,94.68
2210.00,94.64
2209.00,94.62
2208.00,94.61
2207.00,94.61
2206.00,94.61
2205.00,94.60
2204.00,94.59
2203.00,94.57
2202.00,94.55
2201.00,94.51
2200.00,94.45
2199.00,94.41
2198.00,94.38
2197.00,94.38
2196.00,94.41
2195.00,94.46
2194.00,94.49
2193.00,94.50
2192.00,94.48
2191.00,94.46
2190.00,94.45
2189.00,94.43
2188.00,94.40
2187.00,94.37
2186.00,94.36
2185.00,94.36
2184.00,94.36
2183.00,94.35
2182.00,94.36
2181.00,94.39
2180.00,94.43
2179.00,94.46
2178.00,94.46
2177.00,94.45
2176.00,94.43
2175.00,94.42
2174.00,94.41
2173.00,94.41
2172.00,94.42
2171.00,94.41
2170.00,94.37
2169.00,94.30
2168.00,94.22
2167.00,94.16
2166.00,94.11
2165.00,94.07
2164.00,94.00
2163.00,93.91
2162.00,93.84
2161.00,93.82
2160.00,93.88
2159.00,94.00
2158.00,94.12
2157.00,94.21
2156.00,94.27
2155.00,94.28
2154.00,94.28
2153.00,94.30
2152.00,94.35
2151.00,94.42
2150.00,94.49
2149.00,94.54
2148.00,94.57
2147.00,94.61
2146.00,94.66
2145.00,94.69
2144.00,94.69
2143.00,94.68
2142.00,94.67
2141.00,94.70
2140.00,94.74
2139.00,94.77
2138.00,94.79
2137.00,94.80
2136.00,94.81
2135.00,94.83
2134.00,94.86
2133.00,94.88
2132.00,94.91
2131.00,94.94
2130.00,94.96
2129.00,94.99
2128.00,95.01
2127.00,95.02
2126.00,95.03
2125.00,95.04
2124.00,95.06
2123.00,95.07
2122.00,95.08
2121.00,95.09
2120.00,95.10
2119.00,95.11
2118.00,95.13
2117.00,95.14
2116.00,95.12
2115.00,95.10
2114.00,95.08
2113.00,95.08
2112.00,95.09
2111.00,95.08
2110.00,95.07
2109.00,95.05
2108.00,95.05
2107.00,95.06
2106.00,95.08
2105.00,95.08
2104.00,95.09
2103.00,95.10
2102.00,95.12
2101.00,95.12
2100.00,95.11
2099.00,95.08
2098.00,95.06
2097.00,95.05
2096.00,95.06
2095.00,95.08
2094.00,95.09
2093.00,95.08
2092.00,95.05
2091.00,95.01
2090.00,94.98
2089.00,94.98
2088.00,95.00
2087.00,95.05
2086.00,95.10
2085.00,95.12
2084.00,95.11
2083.00,95.08
2082.00,95.05
2081.00,95.05
2080.00,95.05
2079.00,95.04
2078.00,95.01
2077.00,94.98
2076.00,94.94
2075.00,94.90
2074.00,94.87
2073.00,94.84
2072.00,94.84
2071.00,94.86
2070.00,94.88
2069.00,94.90
2068.00,94.92
2067.00,94.94
2066.00,94.96
2065.00,94.97
2064.00,94.97
2063.00,94.98
2062.00,94.98
2061.00,94.97
2060.00,94.94
2059.00,94.90
2058.00,94.86
2057.00,94.84
2056.00,94.81
2055.00,94.80
2054.00,94.79
2053.00,94.78
2052.00,94.74
2051.00,94.67
2050.00,94.60
2049.00,94.54
2048.00,94.52
2047.00,94.53
2046.00,94.56
2045.00,94.59
2044.00,94.63
2043.00,94.64
2042.00,94.63
2041.00,94.60
2040.00,94.56
2039.00,94.50
2038.00,94.45
2037.00,94.39
2036.00,94.36
2035.00,94.36
2034.00,94.40
2033.00,94.45
2032.00,94.49
2031.00,94.50
2030.00,94.49
2029.00,94.44
2028.00,94.36
2027.00,94.27
2026.00,94.20
2025.00,94.21
2024.00,94.29
2023.00,94.42
2022.00,94.53
2021.00,94.55
2020.00,94.50
2019.00,94.42
2018.00,94.38
2017.00,94.41
2016.00,94.49
2015.00,94.55
2014.00,94.60
2013.00,94.62
2012.00,94.64
2011.00,94.65
2010.00,94.66
2009.00,94.68
2008.00,94.70
2007.00,94.70
2006.00,94.69
2005.00,94.70
2004.00,94.73
2003.00,94.77
2002.00,94.78
2001.00,94.75
2000.00,94.69
1999.00,94.64
1998.00,94.63
1997.00,94.65
1996.00,94.70
1995.00,94.73
1994.00,94.74
1993.00,94.75
1992.00,94.75
1991.00,94.74
1990.00,94.71
1989.00,94.71
1988.00,94.73
1987.00,94.76
1986.00,94.78
1985.00,94.77
1984.00,94.74
1983.00,94.68
1982.00,94.59
1981.00,94.48
1980.00,94.39
1979.00,94.38
1978.00,94.43
1977.00,94.52
1976.00,94.58
1975.00,94.63
1974.00,94.67
1973.00,94.74
1972.00,94.80
1971.00,94.84
1970.00,94.84
1969.00,94.82
1968.00,94.79
1967.00,94.76
1966.00,94.75
1965.00,94.81
1964.00,94.91
1963.00,95.02
1962.00,95.08
1961.00,95.08
1960.00,95.06
1959.00,95.04
1958.00,95.01
1957.00,94.99
1956.00,94.99
1955.00,95.01
1954.00,95.04
1953.00,95.11
1952.00,95.18
1951.00,95.23
1950.00,95.24
1949.00,95.24
1948.00,95.24
1947.00,95.25
1946.00,95.26
1945.00,95.26
1944.00,95.24
1943.00,95.23
1942.00,95.23
1941.00,95.25
1940.00,95.29
1939.00,95.36
1938.00,95.40
1937.00,95.42
1936.00,95.41
1935.00,95.42
1934.00,95.45
1933.00,95.48
1932.00,95.49
1931.00,95.49
1930.00,95.50
1929.00,95.52
1928.00,95.54
1927.00,95.58
1926.00,95.62
1925.00,95.63
1924.00,95.61
1923.00,95.56
1922.00,95.51
1921.00,95.49
1920.00,95.49
1919.00,95.52
1918.00,95.56
1917.00,95.58
1916.00,95.60
1915.00,95.63
1914.00,95.67
1913.00,95.71
1912.00,95.74
1911.00,95.73
1910.00,95.71
1909.00,95.70
1908.00,95.70
1907.00,95.71
1906.00,95.73
1905.00,95.73
1904.00,95.74
1903.00,95.75
1902.00,95.78
1901.00,95.82
1900.00,95.83
1899.00,95.83
1898.00,95.81
1897.00,95.80
1896.00,95.80
1895.00,95.81
1894.00,95.82
1893.00,95.82
1892.00,95.83
1891.00,95.86
1890.00,95.87
1889.00,95.88
1888.00,95.87
1887.00,95.85
1886.00,95.84
1885.00,95.83
1884.00,95.84
1883.00,95.86
1882.00,95.88
1881.00,95.89
1880.00,95.90
1879.00,95.91
1878.00,95.93
1877.00,95.95
1876.00,95.97
1875.00,95.98
1874.00,95.98
1873.00,95.97
1872.00,95.96
1871.00,95.94
1870.00,95.95
1869.00,95.97
1868.00,95.99
1867.00,96.01
1866.00,96.00
1865.00,95.99
1864.00,95.98
1863.00,95.98
1862.00,95.98
1861.00,95.98
1860.00,95.98
1859.00,95.98
1858.00,96.00
1857.00,96.01
1856.00,96.03
1855.00,96.05
1854.00,96.06
1853.00,96.05
1852.00,96.04
1851.00,96.04
1850.00,96.05
1849.00,96.08
1848.00,96.09
1847.00,96.10
1846.00,96.09
1845.00,96.08
1844.00,96.09
1843.00,96.11
1842.00,96.13
1841.00,96.13
1840.00,96.12
1839.00,96.10
1838.00,96.08
1837.00,96.07
1836.00,96.07
1835.00,96.09
1834.00,96.11
1833.00,96.13
1832.00,96.15
1831.00,96.16
1830.00,96.18
1829.00,96.19
1828.00,96.19
1827.00,96.19
1826.00,96.18
1825.00,96.18
1824.00,96.18
1823.00,96.17
1822.00,96.17
1821.00,96.18
1820.00,96.20
1819.00,96.21
1818.00,96.23
1817.00,96.25
1816.00,96.26
1815.00,96.26
1814.00,96.26
1813.00,96.26
1812.00,96.27
1811.00,96.28
1810.00,96.30
1809.00,96.31
1808.00,96.30
1807.00,96.28
1806.00,96.26
1805.00,96.25
1804.00,96.23
1803.00,96.23
1802.00,96.23
1801.00,96.26
1800.00,96.28
1799.00,96.31
1798.00,96.32
1797.00,96.33
1796.00,96.33
1795.00,96.32
1794.00,96.31
1793.00,96.29
1792.00,96.28
1791.00,96.29
1790.00,96.32
1789.00,96.34
1788.00,96.35
1787.00,96.36
1786.00,96.34
1785.00,96.33
1784.00,96.32
1783.00,96.32
1782.00,96.33
1781.00,96.34
1780.00,96.35
1779.00,96.36
1778.00,96.36
1777.00,96.37
1776.00,96.38
1775.00,96.39
1774.00,96.40
1773.00,96.39
1772.00,96.38
1771.00,96.36
1770.00,96.34
1769.00,96.32
1768.00,96.32
1767.00,96.33
1766.00,96.35
1765.00,96.37
1764.00,96.38
1763.00,96.39
1762.00,96.39
1761.00,96.38
1760.00,96.36
1759.00,96.34
1758.00,96.33
1757.00,96.34
1756.00,96.35
1755.00,96.36
1754.00,96.36
1753.00,96.36
1752.00,96.35
1751.00,96.34
1750.00,96.32
1749.00,96.32
1748.00,96.32
1747.00,96.32
1746.00,96.31
1745.00,96.30
1744.00,96.30
1743.00,96.30
1742.00,96.31
1741.00,96.32
1740.00,96.32
1739.00,96.31
1738.00,96.30
1737.00,96.28
1736.00,96.26
1735.00,96.26
1734.00,96.28
1733.00,96.29
1732.00,96.29
1731.00,96.28
1730.00,96.28
1729.00,96.28
1728.00,96.30
1727.00,96.31
1726.00,96.32
1725.00,96.32
1724.00,96.32
1723.00,96.32
1722.00,96.31
1721.00,96.30
1720.00,96.27
1719.00,96.24
1718.00,96.24
1717.00,96.25
1716.00,96.27
1715.00,96.28
1714.00,96.28
1713.00,96.28
1712.00,96.26
1711.00,96.25
1710.00,96.25
1709.00,96.24
1708.00,96.23
1707.00,96.22
1706.00,96.23
1705.00,96.23
1704.00,96.22
1703.00,96.21
1702.00,96.21
1701.00,96.22
1700.00,96.21
1699.00,96.19
1698.00,96.15
1697.00,96.12
1696.00,96.10
1695.00,96.09
1694.00,96.08
1693.00,96.06
1692.00,96.04
1691.00,96.01
1690.00,95.99
1689.00,95.98
1688.00,95.96
1687.00,95.95
1686.00,95.94
1685.00,95.94
1684.00,95.92
1683.00,95.90
1682.00,95.86
1681.00,95.82
1680.00,95.78
1679.00,95.74
1678.00,95.71
1677.00,95.69
1676.00,95.67
1675.00,95.66
1674.00,95.65
1673.00,95.62
1672.00,95.59
1671.00,95.57
1670.00,95.56
1669.00,95.53
1668.00,95.50
1667.00,95.46
1666.00,95.42
1665.00,95.38
1664.00,95.34
1663.00,95.30
1662.00,95.27
1661.00,95.25
1660.00,95.23
1659.00,95.20
1658.00,95.18
1657.00,95.16
1656.00,95.14
1655.00,95.12
1654.00,95.09
1653.00,95.05
1652.00,95.03
1651.00,95.01
1650.00,95.00
1649.00,94.96
1648.00,94.93
1647.00,94.90
1646.00,94.89
1645.00,94.90
1644.00,94.90
1643.00,94.90
1642.00,94.90
1641.00,94.89
1640.00,94.88
1639.00,94.87
1638.00,94.87
1637.00,94.87
1636.00,94.89
1635.00,94.92
1634.00,94.96
1633.00,94.98
1632.00,94.98
1631.00,94.97
1630.00,94.97
1629.00,94.97
1628.00,94.98
1627.00,94.98
1626.00,94.99
1625.00,95.01
1624.00,95.04
1623.00,95.09
1622.00,95.13
1621.00,95.17
1620.00,95.20
1619.00,95.21
1618.00,95.23
1617.00,95.26
1616.00,95.29
1615.00,95.33
1614.00,95.35
1613.00,95.38
1612.00,95.40
1611.00,95.43
1610.00,95.47
1609.00,95.49
1608.00,95.52
1607.00,95.54
1606.00,95.56
1605.00,95.58
1604.00,95.60
1603.00,95.62
1602.00,95.63
1601.00,95.64
1600.00,95.65
1599.00,95.68
1598.00,95.71
1597.00,95.74
1596.00,95.77
1595.00,95.79
1594.00,95.80
1593.00,95.81
1592.00,95.82
1591.00,95.83
1590.00,95.85
1589.00,95.88
1588.00,95.91
1587.00,95.93
1586.00,95.96
1585.00,95.97
1584.00,95.98
1583.00,95.99
1582.00,96.00
1581.00,96.02
1580.00,96.03
1579.00,96.03
1578.00,96.03
1577.00,96.02
1576.00,96.04
1575.00,96.07
1574.00,96.11
1573.00,96.14
1572.00,96.16
1571.00,96.18
1570.00,96.18
1569.00,96.19
1568.00,96.20
1567.00,96.21
1566.00,96.21
1565.00,96.22
1564.00,96.22
1563.00,96.22
1562.00,96.22
1561.00,96.23
1560.00,96.23
1559.00,96.19
1558.00,96.16
1557.00,96.17
1556.00,96.19
1555.00,96.22
1554.00,96.25
1553.00,96.28
1552.00,96.29
1551.00,96.30
1550.00,96.31
1549.00,96.32
1548.00,96.33
1547.00,96.32
1546.00,96.31
1545.00,96.29
1544.00,96.28
1543.00,96.28
1542.00,96.30
1541.00,96.33
1540.00,96.35
1539.00,96.38
1538.00,96.40
1537.00,96.41
1536.00,96.41
1535.00,96.40
1534.00,96.39
1533.00,96.38
1532.00,96.39
1531.00,96.39
1530.00,96.40
1529.00,96.41
1528.00,96.42
1527.00,96.43
1526.00,96.43
1525.00,96.42
1524.00,96.39
1523.00,96.35
1522.00,96.33
1521.00,96.34
1520.00,96.36
1519.00,96.38
1518.00,96.39
1517.00,96.40
1516.00,96.40
1515.00,96.41
1514.00,96.40
1513.00,96.40
1512.00,96.40
1511.00,96.40
1510.00,96.41
1509.00,96.41
1508.00,96.40
1507.00,96.40
1506.00,96.40
1505.00,96.40
1504.00,96.38
1503.00,96.37
1502.00,96.37
1501.00,96.37
1500.00,96.38
1499.00,96.37
1498.00,96.34
1497.00,96.30
1496.00,96.26
1495.00,96.23
1494.00,96.22
1493.00,96.19
1492.00,96.15
1491.00,96.09
1490.00,96.03
1489.00,95.95
1488.00,95.88
1487.00,95.82
1486.00,95.75
1485.00,95.67
1484.00,95.59
1483.00,95.51
1482.00,95.44
1481.00,95.39
1480.00,95.34
1479.00,95.30
1478.00,95.23
1477.00,95.16
1476.00,95.09
1475.00,95.02
1474.00,94.95
1473.00,94.87
1472.00,94.80
1471.00,94.75
1470.00,94.70
1469.00,94.66
1468.00,94.61
1467.00,94.56
1466.00,94.51
1465.00,94.47
1464.00,94.46
1463.00,94.44
1462.00,94.41
1461.00,94.37
1460.00,94.31
1459.00,94.25
1458.00,94.17
1457.00,94.10
1456.00,94.06
1455.00,94.05
1454.00,94.03
1453.00,93.99
1452.00,93.95
1451.00,93.91
1450.00,93.88
1449.00,93.85
1448.00,93.81
1447.00,93.78
1446.00,93.74
1445.00,93.71
1444.00,93.67
1443.00,93.64
1442.00,93.61
1441.00,93.57
1440.00,93.54
1439.00,93.49
1438.00,93.43
1437.00,93.37
1436.00,93.29
1435.00,93.22
1434.00,93.14
1433.00,93.08
1432.00,93.02
1431.00,92.98
1430.00,92.94
1429.00,92.91
1428.00,92.87
1427.00,92.85
1426.00,92.84
1425.00,92.83
1424.00,92.84
1423.00,92.85
1422.00,92.86
1421.00,92.86
1420.00,92.88
1419.00,92.94
1418.00,93.02
1417.00,93.10
1416.00,93.18
1415.00,93.25
1414.00,93.32
1413.00,93.40
1412.00,93.47
1411.00,93.54
1410.00,93.61
1409.00,93.66
1408.00,93.70
1407.00,93.73
1406.00,93.76
1405.00,93.77
1404.00,93.77
1403.00,93.77
1402.00,93.76
1401.00,93.75
1400.00,93.74
1399.00,93.73
1398.00,93.73
1397.00,93.73
1396.00,93.73
1395.00,93.72
1394.00,93.71
1393.00,93.70
1392.00,93.68
1391.00,93.66
1390.00,93.62
1389.00,93.55
1388.00,93.47
1387.00,93.39
1386.00,93.29
1385.00,93.17
1384.00,93.02
1383.00,92.83
1382.00,92.61
1381.00,92.38
1380.00,92.14
1379.00,91.92
1378.00,91.71
1377.00,91.52
1376.00,91.34
1375.00,91.18
1374.00,91.04
1373.00,90.92
1372.00,90.82
1371.00,90.72
1370.00,90.65
1369.00,90.59
1368.00,90.56
1367.00,90.54
1366.00,90.51
1365.00,90.47
1364.00,90.44
1363.00,90.44
1362.00,90.50
1361.00,90.60
1360.00,90.71
1359.00,90.83
1358.00,90.94
1357.00,91.05
1356.00,91.15
1355.00,91.26
1354.00,91.38
1353.00,91.50
1352.00,91.62
1351.00,91.72
1350.00,91.80
1349.00,91.83
1348.00,91.83
1347.00,91.81
1346.00,91.77
1345.00,91.71
1344.00,91.64
1343.00,91.56
1342.00,91.45
1341.00,91.33
1340.00,91.21
1339.00,91.10
1338.00,91.01
1337.00,90.96
1336.00,90.93
1335.00,90.94
1334.00,90.98
1333.00,91.05
1332.00,91.12
1331.00,91.19
1330.00,91.26
1329.00,91.33
1328.00,91.38
1327.00,91.42
1326.00,91.42
1325.00,91.39
1324.00,91.32
1323.00,91.21
1322.00,91.06
1321.00,90.88
1320.00,90.67
1319.00,90.45
1318.00,90.24
1317.00,90.07
1316.00,89.95
1315.00,89.88
1314.00,89.87
1313.00,89.89
1312.00,89.95
1311.00,90.04
1310.00,90.18
1309.00,90.36
1308.00,90.57
1307.00,90.79
1306.00,91.00
1305.00,91.20
1304.00,91.38
1303.00,91.56
1302.00,91.74
1301.00,91.91
1300.00,92.06
1299.00,92.20
1298.00,92.33
1297.00,92.44
1296.00,92.53
1295.00,92.59
1294.00,92.64
1293.00,92.69
1292.00,92.75
1291.00,92.83
1290.00,92.92
1289.00,93.02
1288.00,93.10
1287.00,93.14
1286.00,93.14
1285.00,93.12
1284.00,93.07
1283.00,93.00
1282.00,92.91
1281.00,92.80
1280.00,92.71
1279.00,92.65
1278.00,92.62
1277.00,92.65
1276.00,92.70
1275.00,92.79
1274.00,92.88
1273.00,92.97
1272.00,93.05
1271.00,93.11
1270.00,93.16
1269.00,93.19
1268.00,93.22
1267.00,93.23
1266.00,93.23
1265.00,93.23
1264.00,93.22
1263.00,93.23
1262.00,93.24
1261.00,93.27
1260.00,93.31
1259.00,93.36
1258.00,93.43
1257.00,93.52
1256.00,93.61
1255.00,93.71
1254.00,93.80
1253.00,93.87
1252.00,93.92
1251.00,93.95
1250.00,93.97
1249.00,93.99
1248.00,94.02
1247.00,94.05
1246.00,94.09
1245.00,94.12
1244.00,94.14
1243.00,94.15
1242.00,94.15
1241.00,94.14
1240.00,94.14
1239.00,94.14
1238.00,94.11
1237.00,94.07
1236.00,94.03
1235.00,94.01
1234.00,94.01
1233.00,94.04
1232.00,94.06
1231.00,94.08
1230.00,94.09
1229.00,94.09
1228.00,94.09
1227.00,94.12
1226.00,94.17
1225.00,94.25
1224.00,94.35
1223.00,94.47
1222.00,94.59
1221.00,94.72
1220.00,94.85
1219.00,94.98
1218.00,95.10
1217.00,95.20
1216.00,95.28
1215.00,95.34
1214.00,95.37
1213.00,95.37
1212.00,95.34
1211.00,95.28
1210.00,95.19
1209.00,95.08
1208.00,94.94
1207.00,94.78
1206.00,94.62
1205.00,94.48
1204.00,94.37
1203.00,94.28
1202.00,94.22
1201.00,94.18
1200.00,94.18
1199.00,94.20
1198.00,94.25
1197.00,94.30
1196.00,94.37
1195.00,94.46
1194.00,94.59
1193.00,94.76
1192.00,94.94
1191.00,95.12
1190.00,95.25
1189.00,95.36
1188.00,95.45
1187.00,95.53
1186.00,95.59
1185.00,95.61
1184.00,95.60
1183.00,95.56
1182.00,95.48
1181.00,95.40
1180.00,95.31
1179.00,95.22
1178.00,95.11
1177.00,94.98
1176.00,94.82
1175.00,94.62
1174.00,94.37
1173.00,94.08
1172.00,93.76
1171.00,93.41
1170.00,93.03
1169.00,92.60
1168.00,92.13
1167.00,91.63
1166.00,91.10
1165.00,90.58
1164.00,90.06
1163.00,89.59
1162.00,89.17
1161.00,88.82
1160.00,88.56
1159.00,88.38
1158.00,88.28
1157.00,88.25
1156.00,88.29
1155.00,88.38
1154.00,88.50
1153.00,88.65
1152.00,88.81
1151.00,89.00
1150.00,89.21
1149.00,89.43
1148.00,89.66
1147.00,89.90
1146.00,90.13
1145.00,90.36
1144.00,90.59
1143.00,90.82
1142.00,91.03
1141.00,91.19
1140.00,91.27
1139.00,91.25
1138.00,91.17
1137.00,91.06
1136.00,90.94
1135.00,90.79
1134.00,90.60
1133.00,90.38
1132.00,90.16
1131.00,89.94
1130.00,89.72
1129.00,89.46
1128.00,89.16
1127.00,88.85
1126.00,88.55
1125.00,88.23
1124.00,87.89
1123.00,87.56
1122.00,87.22
1121.00,86.87
1120.00,86.52
1119.00,86.17
1118.00,85.84
1117.00,85.51
1116.00,85.16
1115.00,84.79
1114.00,84.39
1113.00,84.00
1112.00,83.66
1111.00,83.42
1110.00,83.29
1109.00,83.22
1108.00,83.16
1107.00,83.11
1106.00,83.07
1105.00,83.04
1104.00,83.01
1103.00,82.96
1102.00,82.89
1101.00,82.78
1100.00,82.64
1099.00,82.51
1098.00,82.42
1097.00,82.36
1096.00,82.33
1095.00,82.32
1094.00,82.34
1093.00,82.34
1092.00,82.31
1091.00,82.22
1090.00,82.11
1089.00,81.97
1088.00,81.84
1087.00,81.72
1086.00,81.60
1085.00,81.44
1084.00,81.24
1083.00,81.01
1082.00,80.78
1081.00,80.57
1080.00,80.36
1079.00,80.17
1078.00,79.99
1077.00,79.83
1076.00,79.69
1075.00,79.57
1074.00,79.46
1073.00,79.34
1072.00,79.20
1071.00,79.03
1070.00,78.80
1069.00,78.49
1068.00,78.08
1067.00,77.60
1066.00,77.08
1065.00,76.51
1064.00,75.90
1063.00,75.28
1062.00,74.67
1061.00,74.08
1060.00,73.52
1059.00,73.05
1058.00,72.69
1057.00,72.41
1056.00,72.20
1055.00,72.04
1054.00,71.93
1053.00,71.85
1052.00,71.82
1051.00,71.84
1050.00,71.91
1049.00,72.03
1048.00,72.16
1047.00,72.31
1046.00,72.44
1045.00,72.56
1044.00,72.65
1043.00,72.74
1042.00,72.82
1041.00,72.86
1040.00,72.81
1039.00,72.66
1038.00,72.41
1037.00,72.08
1036.00,71.69
1035.00,71.30
1034.00,70.94
1033.00,70.61
1032.00,70.32
1031.00,70.07
1030.00,69.90
1029.00,69.77
1028.00,69.68
1027.00,69.62
1026.00,69.58
1025.00,69.58
1024.00,69.60
1023.00,69.64
1022.00,69.71
1021.00,69.78
1020.00,69.84
1019.00,69.89
1018.00,69.93
1017.00,69.95
1016.00,69.96
1015.00,70.01
1014.00,70.09
1013.00,70.20
1012.00,70.31
1011.00,70.44
1010.00,70.58
1009.00,70.72
1008.00,70.84
1007.00,70.98
1006.00,71.11
1005.00,71.23
1004.00,71.30
1003.00,71.31
1002.00,71.25
1001.00,71.11
1000.00,70.91
999.00,70.68
998.00,70.47
997.00,70.30
996.00,70.18
995.00,70.13
994.00,70.14
993.00,70.20
992.00,70.32
991.00,70.46
990.00,70.62
989.00,70.78
988.00,70.95
987.00,71.16
986.00,71.40
985.00,71.66
984.00,71.94
983.00,72.27
982.00,72.66
981.00,73.09
980.00,73.54
979.00,74.02
978.00,74.50
977.00,74.98
976.00,75.44
975.00,75.89
974.00,76.29
973.00,76.65
972.00,76.95
971.00,77.22
970.00,77.46
969.00,77.69
968.00,77.90
967.00,78.11
966.00,78.32
965.00,78.50
964.00,78.67
963.00,78.85
962.00,79.05
961.00,79.26
960.00,79.48
959.00,79.72
958.00,79.96
957.00,80.21
956.00,80.45
955.00,80.71
954.00,80.98
953.00,81.26
952.00,81.53
951.00,81.80
950.00,82.07
949.00,82.31
948.00,82.53
947.00,82.74
946.00,82.97
945.00,83.20
944.00,83.42
943.00,83.60
942.00,83.77
941.00,83.93
940.00,84.09
939.00,84.26
938.00,84.42
937.00,84.57
936.00,84.70
935.00,84.81
934.00,84.91
933.00,85.02
932.00,85.14
931.00,85.27
930.00,85.38
929.00,85.47
928.00,85.58
927.00,85.70
926.00,85.84
925.00,85.98
924.00,86.12
923.00,86.26
922.00,86.39
921.00,86.51
920.00,86.60
919.00,86.68
918.00,86.76
917.00,86.83
916.00,86.90
915.00,86.96
914.00,87.00
913.00,87.01
912.00,87.00
911.00,86.98
910.00,86.96
909.00,86.93
908.00,86.88
907.00,86.83
906.00,86.76
905.00,86.67
904.00,86.56
903.00,86.44
902.00,86.30
901.00,86.13
900.00,85.90
899.00,85.62
898.00,85.31
897.00,85.02
896.00,84.78
895.00,84.61
894.00,84.54
893.00,84.56
892.00,84.67
891.00,84.85
890.00,85.09
889.00,85.36
888.00,85.66
887.00,85.94
886.00,86.19
885.00,86.40
884.00,86.61
883.00,86.85
882.00,87.10
881.00,87.31
880.00,87.49
879.00,87.65
878.00,87.80
877.00,87.94
876.00,88.06
875.00,88.18
874.00,88.31
873.00,88.43
872.00,88.53
871.00,88.64
870.00,88.77
869.00,88.91
868.00,89.02
867.00,89.11
866.00,89.19
865.00,89.26
864.00,89.32
863.00,89.38
862.00,89.45
861.00,89.52
860.00,89.58
859.00,89.63
858.00,89.67
857.00,89.71
856.00,89.74
855.00,89.78
854.00,89.84
853.00,89.91
852.00,89.98
851.00,90.04
850.00,90.08
849.00,90.11
848.00,90.13
847.00,90.16
846.00,90.19
845.00,90.21
844.00,90.21
843.00,90.21
842.00,90.21
841.00,90.23
840.00,90.26
839.00,90.29
838.00,90.30
837.00,90.32
836.00,90.36
835.00,90.41
834.00,90.44
833.00,90.44
832.00,90.42
831.00,90.41
830.00,90.41
829.00,90.43
828.00,90.46
827.00,90.50
826.00,90.54
825.00,90.56
824.00,90.55
823.00,90.52
822.00,90.52
821.00,90.54
820.00,90.59
819.00,90.63
818.00,90.64
817.00,90.63
816.00,90.63
815.00,90.63
814.00,90.66
813.00,90.69
812.00,90.71
811.00,90.74
810.00,90.76
809.00,90.77
808.00,90.77
807.00,90.77
806.00,90.77
805.00,90.78
804.00,90.77
803.00,90.76
802.00,90.74
801.00,90.73
800.00,90.72
799.00,90.71
798.00,90.70
797.00,90.70
796.00,90.70
795.00,90.71
794.00,90.71
793.00,90.71
792.00,90.71
791.00,90.71
790.00,90.72
789.00,90.72
788.00,90.69
787.00,90.65
786.00,90.61
785.00,90.58
784.00,90.56
783.00,90.56
782.00,90.57
781.00,90.59
780.00,90.61
779.00,90.64
778.00,90.66
777.00,90.66
776.00,90.63
775.00,90.62
774.00,90.63
773.00,90.63
772.00,90.62
771.00,90.59
770.00,90.57
769.00,90.56
768.00,90.55
767.00,90.52
766.00,90.47
765.00,90.42
764.00,90.39
763.00,90.38
762.00,90.37
761.00,90.34
760.00,90.28
759.00,90.21
758.00,90.14
757.00,90.11
756.00,90.08
755.00,90.06
754.00,90.02
753.00,89.98
752.00,89.93
751.00,89.89
750.00,89.87
749.00,89.86
748.00,89.83
747.00,89.79
746.00,89.75
745.00,89.71
744.00,89.67
743.00,89.65
742.00,89.64
741.00,89.62
740.00,89.58
739.00,89.52
738.00,89.45
737.00,89.38
736.00,89.29
735.00,89.16
734.00,89.01
733.00,88.91
732.00,88.87
731.00,88.87
730.00,88.86
729.00,88.79
728.00,88.69
727.00,88.59
726.00,88.49
725.00,88.37
724.00,88.24
723.00,88.11
722.00,87.98
721.00,87.83
720.00,87.63
719.00,87.43
718.00,87.27
717.00,87.14
716.00,87.02
715.00,86.92
714.00,86.83
713.00,86.74
712.00,86.65
711.00,86.58
710.00,86.54
709.00,86.52
708.00,86.50
707.00,86.47
706.00,86.44
705.00,86.39
704.00,86.32
703.00,86.23
702.00,86.18
701.00,86.17
700.00,86.20
699.00,86.24
698.00,86.26
697.00,86.24
696.00,86.21
695.00,86.21
694.00,86.26
693.00,86.33
692.00,86.38
691.00,86.40
690.00,86.40
689.00,86.38
688.00,86.36
687.00,86.34
686.00,86.33
685.00,86.31
684.00,86.27
683.00,86.20
682.00,86.08
681.00,85.86
680.00,85.54
679.00,85.17
678.00,84.74
677.00,84.23
676.00,83.67
675.00,83.13
674.00,82.62
673.00,82.13
672.00,81.66
671.00,81.23
670.00,80.89
669.00,80.65
668.00,80.51
667.00,80.51
666.00,80.62
665.00,80.74
664.00,80.82
663.00,80.86
662.00,80.90
661.00,80.94
660.00,80.95
659.00,80.96
658.00,80.99
657.00,81.05
656.00,81.15
655.00,81.31
654.00,81.49
653.00,81.67
652.00,81.79
651.00,81.87
650.00,81.90
649.00,81.90
648.00,81.87
647.00,81.85
646.00,81.84
645.00,81.86
644.00,81.90
643.00,81.93
642.00,81.94
641.00,81.88
640.00,81.79
639.00,81.71
638.00,81.68
637.00,81.70
636.00,81.76
635.00,81.85
634.00,81.93
633.00,81.93
632.00,81.85
631.00,81.74
630.00,81.61
629.00,81.44
628.00,81.26
627.00,81.11
626.00,81.03
625.00,80.93
624.00,80.72
623.00,80.44
622.00,80.16
621.00,79.91
620.00,79.65
619.00,79.44
618.00,79.32
617.00,79.25
616.00,79.16
615.00,78.93
614.00,78.54
613.00,77.99
612.00,77.40
611.00,76.97
610.00,76.81
609.00,76.92
608.00,77.24
607.00,77.67
606.00,77.96
605.00,77.93
604.00,77.67
603.00,77.35
602.00,77.10
601.00,76.93
600.00,76.92
599.00,77.18
598.00,77.59
597.00,77.94
596.00,78.17
595.00,78.41
594.00,78.63
593.00,78.68
592.00,78.59
591.00,78.55
590.00,78.62
589.00,78.57
588.00,78.31
587.00,78.02
586.00,77.82
585.00,77.62
584.00,77.32
583.00,77.12
582.00,77.21
581.00,77.46
580.00,77.61
579.00,77.64
578.00,77.60
577.00,77.49
576.00,77.44
575.00,77.71
574.00,78.23
573.00,78.57
572.00,78.47
571.00,78.12
570.00,77.81
569.00,77.58
568.00,77.45
567.00,77.48
566.00,77.47
565.00,77.07
564.00,76.38
563.00,76.03
562.00,76.25
561.00,76.50
560.00,76.23
559.00,75.61
558.00,75.14
557.00,75.02
556.00,75.12
555.00,75.31
554.00,75.39
553.00,75.11
552.00,74.46
551.00,73.92
550.00,73.76
