Created as New Dataset,Mercerised Cotton 5/2 (Light Green)
cm-1,%T
4000.00,99.06
3999.00,99.04
3998.00,99.02
3997.00,99.00
3996.00,99.00
3995.00,99.00
3994.00,99.01
3993.00,99.01
3992.00,99.01
3991.00,99.01
3990.00,99.01
3989.00,99.02
3988.00,99.03
3987.00,99.04
3986.00,99.05
3985.00,99.05
3984.00,99.05
3983.00,99.04
3982.00,99.03
3981.00,99.02
3980.00,99.03
3979.00,99.04
3978.00,99.05
3977.00,99.05
3976.00,99.05
3975.00,99.04
3974.00,99.04
3973.00,99.05
3972.00,99.06
3971.00,99.06
3970.00,99.06
3969.00,99.05
3968.00,99.04
3967.00,99.04
3966.00,99.06
3965.00,99.08
3964.00,99.10
3963.00,99.11
3962.00,99.12
3961.00,99.11
3960.00,99.10
3959.00,99.09
3958.00,99.08
3957.00,99.08
3956.00,99.09
3955.00,99.09
3954.00,99.10
3953.00,99.09
3952.00,99.08
3951.00,99.07
3950.00,99.07
3949.00,99.08
3948.00,99.10
3947.00,99.10
3946.00,99.09
3945.00,99.07
3944.00,99.06
3943.00,99.06
3942.00,99.08
3941.00,99.09
3940.00,99.11
3939.00,99.11
3938.00,99.11
3937.00,99.11
3936.00,99.12
3935.00,99.11
3934.00,99.10
3933.00,99.08
3932.00,99.06
3931.00,99.06
3930.00,99.07
3929.00,99.09
3928.00,99.10
3927.00,99.10
3926.00,99.10
3925.00,99.10
3924.00,99.10
3923.00,99.11
3922.00,99.11
3921.00,99.12
3920.00,99.13
3919.00,99.14
3918.00,99.14
3917.00,99.13
3916.00,99.12
3915.00,99.11
3914.00,99.11
3913.00,99.11
3912.00,99.11
3911.00,99.11
3910.00,99.10
3909.00,99.10
3908.00,99.10
3907.00,99.09
3906.00,99.08
3905.00,99.07
3904.00,99.08
3903.00,99.11
3902.00,99.14
3901.00,99.16
3900.00,99.16
3899.00,99.16
3898.00,99.17
3897.00,99.17
3896.00,99.18
3895.00,99.18
3894.00,99.17
3893.00,99.16
3892.00,99.15
3891.00,99.15
3890.00,99.17
3889.00,99.19
3888.00,99.20
3887.00,99.18
3886.00,99.16
3885.00,99.16
3884.00,99.16
3883.00,99.16
3882.00,99.14
3881.00,99.12
3880.00,99.12
3879.00,99.13
3878.00,99.16
3877.00,99.19
3876.00,99.20
3875.00,99.21
3874.00,99.21
3873.00,99.20
3872.00,99.19
3871.00,99.18
3870.00,99.17
3869.00,99.16
3868.00,99.17
3867.00,99.16
3866.00,99.14
3865.00,99.12
3864.00,99.12
3863.00,99.14
3862.00,99.15
3861.00,99.16
3860.00,99.17
3859.00,99.18
3858.00,99.21
3857.00,99.24
3856.00,99.27
3855.00,99.27
3854.00,99.23
3853.00,99.18
3852.00,99.17
3851.00,99.18
3850.00,99.17
3849.00,99.17
3848.00,99.17
3847.00,99.18
3846.00,99.17
3845.00,99.15
3844.00,99.13
3843.00,99.13
3842.00,99.16
3841.00,99.19
3840.00,99.21
3839.00,99.21
3838.00,99.19
3837.00,99.17
3836.00,99.16
3835.00,99.16
3834.00,99.15
3833.00,99.14
3832.00,99.13
3831.00,99.13
3830.00,99.14
3829.00,99.15
3828.00,99.16
3827.00,99.17
3826.00,99.17
3825.00,99.18
3824.00,99.18
3823.00,99.17
3822.00,99.16
3821.00,99.15
3820.00,99.17
3819.00,99.19
3818.00,99.21
3817.00,99.21
3816.00,99.20
3815.00,99.18
3814.00,99.15
3813.00,99.13
3812.00,99.11
3811.00,99.09
3810.00,99.10
3809.00,99.11
3808.00,99.14
3807.00,99.16
3806.00,99.18
3805.00,99.19
3804.00,99.18
3803.00,99.15
3802.00,99.11
3801.00,99.08
3800.00,99.08
3799.00,99.09
3798.00,99.11
3797.00,99.13
3796.00,99.15
3795.00,99.16
3794.00,99.16
3793.00,99.15
3792.00,99.14
3791.00,99.12
3790.00,99.11
3789.00,99.09
3788.00,99.07
3787.00,99.06
3786.00,99.06
3785.00,99.07
3784.00,99.08
3783.00,99.09
3782.00,99.10
3781.00,99.11
3780.00,99.11
3779.00,99.11
3778.00,99.09
3777.00,99.07
3776.00,99.06
3775.00,99.05
3774.00,99.05
3773.00,99.06
3772.00,99.06
3771.00,99.05
3770.00,99.04
3769.00,99.03
3768.00,99.03
3767.00,99.01
3766.00,98.99
3765.00,98.97
3764.00,98.97
3763.00,98.99
3762.00,99.01
3761.00,99.05
3760.00,99.08
3759.00,99.09
3758.00,99.09
3757.00,99.07
3756.00,99.06
3755.00,99.04
3754.00,99.04
3753.00,99.03
3752.00,99.03
3751.00,99.04
3750.00,99.05
3749.00,99.06
3748.00,99.08
3747.00,99.08
3746.00,99.08
3745.00,99.06
3744.00,99.05
3743.00,99.07
3742.00,99.08
3741.00,99.07
3740.00,99.06
3739.00,99.06
3738.00,99.07
3737.00,99.07
3736.00,99.07
3735.00,99.06
3734.00,99.06
3733.00,99.05
3732.00,99.03
3731.00,99.01
3730.00,99.00
3729.00,98.99
3728.00,98.98
3727.00,98.97
3726.00,98.97
3725.00,98.97
3724.00,98.98
3723.00,98.98
3722.00,98.97
3721.00,98.96
3720.00,98.93
3719.00,98.92
3718.00,98.92
3717.00,98.93
3716.00,98.94
3715.00,98.93
3714.00,98.92
3713.00,98.90
3712.00,98.90
3711.00,98.92
3710.00,98.94
3709.00,98.95
3708.00,98.95
3707.00,98.94
3706.00,98.92
3705.00,98.92
3704.00,98.92
3703.00,98.92
3702.00,98.91
3701.00,98.90
3700.00,98.89
3699.00,98.90
3698.00,98.90
3697.00,98.91
3696.00,98.91
3695.00,98.91
3694.00,98.91
3693.00,98.91
3692.00,98.91
3691.00,98.92
3690.00,98.91
3689.00,98.90
3688.00,98.89
3687.00,98.88
3686.00,98.87
3685.00,98.87
3684.00,98.86
3683.00,98.86
3682.00,98.85
3681.00,98.85
3680.00,98.86
3679.00,98.87
3678.00,98.87
3677.00,98.84
3676.00,98.80
3675.00,98.80
3674.00,98.83
3673.00,98.85
3672.00,98.84
3671.00,98.80
3670.00,98.75
3669.00,98.71
3668.00,98.71
3667.00,98.70
3666.00,98.69
3665.00,98.68
3664.00,98.69
3663.00,98.69
3662.00,98.70
3661.00,98.70
3660.00,98.68
3659.00,98.66
3658.00,98.63
3657.00,98.60
3656.00,98.58
3655.00,98.58
3654.00,98.59
3653.00,98.59
3652.00,98.57
3651.00,98.52
3650.00,98.47
3649.00,98.43
3648.00,98.40
3647.00,98.38
3646.00,98.36
3645.00,98.34
3644.00,98.32
3643.00,98.29
3642.00,98.27
3641.00,98.26
3640.00,98.24
3639.00,98.23
3638.00,98.22
3637.00,98.21
3636.00,98.20
3635.00,98.18
3634.00,98.17
3633.00,98.15
3632.00,98.14
3631.00,98.12
3630.00,98.09
3629.00,98.04
3628.00,98.01
3627.00,97.98
3626.00,97.95
3625.00,97.92
3624.00,97.90
3623.00,97.88
3622.00,97.88
3621.00,97.88
3620.00,97.88
3619.00,97.87
3618.00,97.86
3617.00,97.84
3616.00,97.79
3615.00,97.73
3614.00,97.66
3613.00,97.60
3612.00,97.57
3611.00,97.57
3610.00,97.57
3609.00,97.54
3608.00,97.48
3607.00,97.40
3606.00,97.33
3605.00,97.29
3604.00,97.28
3603.00,97.29
3602.00,97.29
3601.00,97.26
3600.00,97.20
3599.00,97.13
3598.00,97.09
3597.00,97.06
3596.00,97.06
3595.00,97.05
3594.00,97.03
3593.00,96.98
3592.00,96.91
3591.00,96.85
3590.00,96.81
3589.00,96.80
3588.00,96.80
3587.00,96.77
3586.00,96.73
3585.00,96.69
3584.00,96.64
3583.00,96.59
3582.00,96.54
3581.00,96.49
3580.00,96.42
3579.00,96.36
3578.00,96.30
3577.00,96.25
3576.00,96.22
3575.00,96.20
3574.00,96.18
3573.00,96.14
3572.00,96.09
3571.00,96.05
3570.00,96.02
3569.00,96.00
3568.00,95.97
3567.00,95.92
3566.00,95.85
3565.00,95.76
3564.00,95.69
3563.00,95.63
3562.00,95.58
3561.00,95.54
3560.00,95.51
3559.00,95.48
3558.00,95.46
3557.00,95.43
3556.00,95.41
3555.00,95.37
3554.00,95.32
3553.00,95.27
3552.00,95.21
3551.00,95.15
3550.00,95.10
3549.00,95.05
3548.00,94.98
3547.00,94.92
3546.00,94.87
3545.00,94.82
3544.00,94.77
3543.00,94.72
3542.00,94.68
3541.00,94.65
3540.00,94.62
3539.00,94.59
3538.00,94.53
3537.00,94.45
3536.00,94.37
3535.00,94.30
3534.00,94.25
3533.00,94.20
3532.00,94.16
3531.00,94.13
3530.00,94.09
3529.00,94.04
3528.00,93.95
3527.00,93.85
3526.00,93.76
3525.00,93.70
3524.00,93.65
3523.00,93.61
3522.00,93.56
3521.00,93.50
3520.00,93.46
3519.00,93.41
3518.00,93.34
3517.00,93.26
3516.00,93.16
3515.00,93.06
3514.00,92.96
3513.00,92.87
3512.00,92.77
3511.00,92.67
3510.00,92.57
3509.00,92.47
3508.00,92.39
3507.00,92.31
3506.00,92.24
3505.00,92.16
3504.00,92.05
3503.00,91.91
3502.00,91.77
3501.00,91.64
3500.00,91.53
3499.00,91.42
3498.00,91.31
3497.00,91.19
3496.00,91.07
3495.00,90.94
3494.00,90.81
3493.00,90.67
3492.00,90.54
3491.00,90.41
3490.00,90.31
3489.00,90.23
3488.00,90.17
3487.00,90.13
3486.00,90.10
3485.00,90.07
3484.00,90.04
3483.00,90.01
3482.00,89.99
3481.00,89.97
3480.00,89.96
3479.00,89.95
3478.00,89.94
3477.00,89.91
3476.00,89.87
3475.00,89.82
3474.00,89.76
3473.00,89.70
3472.00,89.64
3471.00,89.56
3470.00,89.49
3469.00,89.45
3468.00,89.41
3467.00,89.37
3466.00,89.31
3465.00,89.21
3464.00,89.12
3463.00,89.03
3462.00,88.96
3461.00,88.90
3460.00,88.81
3459.00,88.71
3458.00,88.60
3457.00,88.48
3456.00,88.35
3455.00,88.22
3454.00,88.07
3453.00,87.91
3452.00,87.75
3451.00,87.59
3450.00,87.46
3449.00,87.35
3448.00,87.24
3447.00,87.13
3446.00,87.01
3445.00,86.90
3444.00,86.81
3443.00,86.73
3442.00,86.68
3441.00,86.64
3440.00,86.61
3439.00,86.59
3438.00,86.57
3437.00,86.56
3436.00,86.56
3435.00,86.57
3434.00,86.59
3433.00,86.61
3432.00,86.63
3431.00,86.64
3430.00,86.64
3429.00,86.63
3428.00,86.61
3427.00,86.60
3426.00,86.57
3425.00,86.54
3424.00,86.49
3423.00,86.44
3422.00,86.41
3421.00,86.38
3420.00,86.34
3419.00,86.29
3418.00,86.22
3417.00,86.16
3416.00,86.09
3415.00,86.03
3414.00,85.97
3413.00,85.90
3412.00,85.83
3411.00,85.77
3410.00,85.72
3409.00,85.67
3408.00,85.61
3407.00,85.57
3406.00,85.53
3405.00,85.50
3404.00,85.49
3403.00,85.46
3402.00,85.43
3401.00,85.38
3400.00,85.34
3399.00,85.30
3398.00,85.27
3397.00,85.24
3396.00,85.20
3395.00,85.17
3394.00,85.13
3393.00,85.10
3392.00,85.07
3391.00,85.03
3390.00,85.00
3389.00,84.96
3388.00,84.93
3387.00,84.90
3386.00,84.86
3385.00,84.82
3384.00,84.78
3383.00,84.72
3382.00,84.65
3381.00,84.58
3380.00,84.51
3379.00,84.45
3378.00,84.41
3377.00,84.38
3376.00,84.34
3375.00,84.29
3374.00,84.22
3373.00,84.15
3372.00,84.09
3371.00,84.05
3370.00,84.01
3369.00,83.97
3368.00,83.92
3367.00,83.86
3366.00,83.81
3365.00,83.75
3364.00,83.70
3363.00,83.65
3362.00,83.59
3361.00,83.53
3360.00,83.46
3359.00,83.39
3358.00,83.32
3357.00,83.24
3356.00,83.15
3355.00,83.06
3354.00,82.97
3353.00,82.89
3352.00,82.82
3351.00,82.77
3350.00,82.71
3349.00,82.64
3348.00,82.57
3347.00,82.49
3346.00,82.42
3345.00,82.36
3344.00,82.30
3343.00,82.26
3342.00,82.22
3341.00,82.19
3340.00,82.16
3339.00,82.13
3338.00,82.10
3337.00,82.08
3336.00,82.08
3335.00,82.09
3334.00,82.11
3333.00,82.13
3332.00,82.15
3331.00,82.16
3330.00,82.18
3329.00,82.20
3328.00,82.23
3327.00,82.27
3326.00,82.32
3325.00,82.37
3324.00,82.42
3323.00,82.48
3322.00,82.53
3321.00,82.56
3320.00,82.58
3319.00,82.60
3318.00,82.61
3317.00,82.62
3316.00,82.64
3315.00,82.66
3314.00,82.68
3313.00,82.71
3312.00,82.73
3311.00,82.73
3310.00,82.73
3309.00,82.71
3308.00,82.70
3307.00,82.69
3306.00,82.69
3305.00,82.69
3304.00,82.69
3303.00,82.69
3302.00,82.69
3301.00,82.68
3300.00,82.68
3299.00,82.68
3298.00,82.70
3297.00,82.73
3296.00,82.77
3295.00,82.80
3294.00,82.82
3293.00,82.82
3292.00,82.81
3291.00,82.81
3290.00,82.82
3289.00,82.84
3288.00,82.85
3287.00,82.86
3286.00,82.85
3285.00,82.84
3284.00,82.85
3283.00,82.89
3282.00,82.93
3281.00,82.98
3280.00,83.01
3279.00,83.03
3278.00,83.04
3277.00,83.05
3276.00,83.07
3275.00,83.08
3274.00,83.09
3273.00,83.10
3272.00,83.13
3271.00,83.17
3270.00,83.22
3269.00,83.28
3268.00,83.33
3267.00,83.38
3266.00,83.43
3265.00,83.47
3264.00,83.50
3263.00,83.55
3262.00,83.62
3261.00,83.69
3260.00,83.78
3259.00,83.85
3258.00,83.92
3257.00,83.99
3256.00,84.05
3255.00,84.10
3254.00,84.16
3253.00,84.23
3252.00,84.32
3251.00,84.42
3250.00,84.50
3249.00,84.57
3248.00,84.62
3247.00,84.66
3246.00,84.70
3245.00,84.75
3244.00,84.80
3243.00,84.86
3242.00,84.93
3241.00,84.99
3240.00,85.06
3239.00,85.12
3238.00,85.17
3237.00,85.23
3236.00,85.28
3235.00,85.33
3234.00,85.38
3233.00,85.44
3232.00,85.50
3231.00,85.56
3230.00,85.62
3229.00,85.67
3228.00,85.72
3227.00,85.75
3226.00,85.80
3225.00,85.85
3224.00,85.91
3223.00,85.97
3222.00,86.02
3221.00,86.06
3220.00,86.10
3219.00,86.14
3218.00,86.19
3217.00,86.25
3216.00,86.31
3215.00,86.37
3214.00,86.43
3213.00,86.48
3212.00,86.52
3211.00,86.56
3210.00,86.60
3209.00,86.64
3208.00,86.69
3207.00,86.73
3206.00,86.78
3205.00,86.81
3204.00,86.85
3203.00,86.87
3202.00,86.90
3201.00,86.93
3200.00,86.98
3199.00,87.04
3198.00,87.10
3197.00,87.14
3196.00,87.16
3195.00,87.18
3194.00,87.20
3193.00,87.22
3192.00,87.24
3191.00,87.28
3190.00,87.32
3189.00,87.37
3188.00,87.42
3187.00,87.47
3186.00,87.51
3185.00,87.54
3184.00,87.58
3183.00,87.61
3182.00,87.64
3181.00,87.68
3180.00,87.71
3179.00,87.74
3178.00,87.77
3177.00,87.79
3176.00,87.82
3175.00,87.86
3174.00,87.90
3173.00,87.95
3172.00,88.00
3171.00,88.04
3170.00,88.07
3169.00,88.10
3168.00,88.11
3167.00,88.14
3166.00,88.18
3165.00,88.23
3164.00,88.28
3163.00,88.32
3162.00,88.36
3161.00,88.39
3160.00,88.43
3159.00,88.46
3158.00,88.50
3157.00,88.54
3156.00,88.58
3155.00,88.61
3154.00,88.65
3153.00,88.68
3152.00,88.73
3151.00,88.78
3150.00,88.84
3149.00,88.89
3148.00,88.93
3147.00,88.98
3146.00,89.01
3145.00,89.05
3144.00,89.09
3143.00,89.12
3142.00,89.17
3141.00,89.21
3140.00,89.27
3139.00,89.32
3138.00,89.38
3137.00,89.42
3136.00,89.47
3135.00,89.51
3134.00,89.56
3133.00,89.62
3132.00,89.69
3131.00,89.75
3130.00,89.82
3129.00,89.88
3128.00,89.94
3127.00,90.00
3126.00,90.05
3125.00,90.10
3124.00,90.16
3123.00,90.23
3122.00,90.30
3121.00,90.37
3120.00,90.42
3119.00,90.47
3118.00,90.52
3117.00,90.56
3116.00,90.61
3115.00,90.67
3114.00,90.73
3113.00,90.79
3112.00,90.86
3111.00,90.91
3110.00,90.95
3109.00,91.00
3108.00,91.05
3107.00,91.12
3106.00,91.19
3105.00,91.27
3104.00,91.33
3103.00,91.38
3102.00,91.41
3101.00,91.45
3100.00,91.50
3099.00,91.57
3098.00,91.65
3097.00,91.73
3096.00,91.80
3095.00,91.86
3094.00,91.90
3093.00,91.93
3092.00,91.96
3091.00,92.00
3090.00,92.05
3089.00,92.10
3088.00,92.15
3087.00,92.22
3086.00,92.28
3085.00,92.34
3084.00,92.39
3083.00,92.43
3082.00,92.46
3081.00,92.50
3080.00,92.54
3079.00,92.59
3078.00,92.65
3077.00,92.71
3076.00,92.77
3075.00,92.82
3074.00,92.87
3073.00,92.92
3072.00,92.96
3071.00,93.00
3070.00,93.05
3069.00,93.10
3068.00,93.15
3067.00,93.20
3066.00,93.24
3065.00,93.28
3064.00,93.31
3063.00,93.35
3062.00,93.39
3061.00,93.44
3060.00,93.48
3059.00,93.52
3058.00,93.54
3057.00,93.57
3056.00,93.59
3055.00,93.62
3054.00,93.67
3053.00,93.74
3052.00,93.80
3051.00,93.86
3050.00,93.90
3049.00,93.92
3048.00,93.95
3047.00,93.97
3046.00,93.99
3045.00,94.02
3044.00,94.07
3043.00,94.13
3042.00,94.19
3041.00,94.24
3040.00,94.27
3039.00,94.29
3038.00,94.31
3037.00,94.33
3036.00,94.35
3035.00,94.38
3034.00,94.41
3033.00,94.45
3032.00,94.50
3031.00,94.55
3030.00,94.57
3029.00,94.58
3028.00,94.58
3027.00,94.60
3026.00,94.62
3025.00,94.66
3024.00,94.69
3023.00,94.71
3022.00,94.74
3021.00,94.76
3020.00,94.79
3019.00,94.82
3018.00,94.85
3017.00,94.88
3016.00,94.90
3015.00,94.92
3014.00,94.93
3013.00,94.95
3012.00,94.97
3011.00,95.00
3010.00,95.02
3009.00,95.04
3008.00,95.05
3007.00,95.08
3006.00,95.12
3005.00,95.16
3004.00,95.19
3003.00,95.21
3002.00,95.22
3001.00,95.24
3000.00,95.24
2999.00,95.24
2998.00,95.23
2997.00,95.23
2996.00,95.23
2995.00,95.24
2994.00,95.26
2993.00,95.27
2992.00,95.28
2991.00,95.28
2990.00,95.27
2989.00,95.24
2988.00,95.20
2987.00,95.15
2986.00,95.11
2985.00,95.08
2984.00,95.04
2983.00,95.01
2982.00,94.98
2981.00,94.97
2980.00,94.98
2979.00,94.99
2978.00,94.98
2977.00,94.97
2976.00,94.94
2975.00,94.90
2974.00,94.85
2973.00,94.78
2972.00,94.72
2971.00,94.66
2970.00,94.62
2969.00,94.58
2968.00,94.56
2967.00,94.54
2966.00,94.52
2965.00,94.51
2964.00,94.49
2963.00,94.46
2962.00,94.42
2961.00,94.38
2960.00,94.34
2959.00,94.30
2958.00,94.24
2957.00,94.17
2956.00,94.10
2955.00,94.04
2954.00,93.99
2953.00,93.94
2952.00,93.88
2951.00,93.81
2950.00,93.75
2949.00,93.68
2948.00,93.62
2947.00,93.55
2946.00,93.48
2945.00,93.42
2944.00,93.36
2943.00,93.29
2942.00,93.21
2941.00,93.11
2940.00,93.00
2939.00,92.89
2938.00,92.78
2937.00,92.69
2936.00,92.61
2935.00,92.54
2934.00,92.46
2933.00,92.39
2932.00,92.31
2931.00,92.25
2930.00,92.19
2929.00,92.13
2928.00,92.05
2927.00,91.97
2926.00,91.87
2925.00,91.76
2924.00,91.64
2923.00,91.52
2922.00,91.39
2921.00,91.26
2920.00,91.12
2919.00,91.00
2918.00,90.91
2917.00,90.86
2916.00,90.83
2915.00,90.80
2914.00,90.77
2913.00,90.73
2912.00,90.68
2911.00,90.61
2910.00,90.52
2909.00,90.41
2908.00,90.30
2907.00,90.21
2906.00,90.14
2905.00,90.10
2904.00,90.09
2903.00,90.08
2902.00,90.08
2901.00,90.07
2900.00,90.05
2899.00,90.02
2898.00,90.00
2897.00,89.98
2896.00,89.98
2895.00,89.97
2894.00,89.97
2893.00,89.96
2892.00,89.96
2891.00,89.99
2890.00,90.04
2889.00,90.12
2888.00,90.21
2887.00,90.30
2886.00,90.40
2885.00,90.48
2884.00,90.57
2883.00,90.64
2882.00,90.70
2881.00,90.75
2880.00,90.78
2879.00,90.80
2878.00,90.82
2877.00,90.83
2876.00,90.85
2875.00,90.87
2874.00,90.92
2873.00,90.99
2872.00,91.08
2871.00,91.17
2870.00,91.26
2869.00,91.34
2868.00,91.42
2867.00,91.49
2866.00,91.57
2865.00,91.65
2864.00,91.74
2863.00,91.81
2862.00,91.88
2861.00,91.95
2860.00,92.00
2859.00,92.05
2858.00,92.10
2857.00,92.15
2856.00,92.19
2855.00,92.22
2854.00,92.23
2853.00,92.24
2852.00,92.26
2851.00,92.32
2850.00,92.41
2849.00,92.54
2848.00,92.68
2847.00,92.82
2846.00,92.95
2845.00,93.07
2844.00,93.19
2843.00,93.31
2842.00,93.41
2841.00,93.51
2840.00,93.60
2839.00,93.67
2838.00,93.73
2837.00,93.79
2836.00,93.85
2835.00,93.91
2834.00,93.96
2833.00,94.01
2832.00,94.05
2831.00,94.09
2830.00,94.12
2829.00,94.15
2828.00,94.18
2827.00,94.22
2826.00,94.26
2825.00,94.31
2824.00,94.36
2823.00,94.40
2822.00,94.43
2821.00,94.45
2820.00,94.46
2819.00,94.49
2818.00,94.52
2817.00,94.55
2816.00,94.58
2815.00,94.62
2814.00,94.66
2813.00,94.69
2812.00,94.73
2811.00,94.75
2810.00,94.76
2809.00,94.77
2808.00,94.79
2807.00,94.83
2806.00,94.87
2805.00,94.90
2804.00,94.92
2803.00,94.94
2802.00,94.96
2801.00,94.97
2800.00,94.99
2799.00,95.02
2798.00,95.04
2797.00,95.06
2796.00,95.07
2795.00,95.08
2794.00,95.09
2793.00,95.11
2792.00,95.14
2791.00,95.17
2790.00,95.20
2789.00,95.22
2788.00,95.24
2787.00,95.26
2786.00,95.28
2785.00,95.30
2784.00,95.32
2783.00,95.33
2782.00,95.35
2781.00,95.37
2780.00,95.39
2779.00,95.42
2778.00,95.45
2777.00,95.47
2776.00,95.48
2775.00,95.49
2774.00,95.49
2773.00,95.50
2772.00,95.52
2771.00,95.53
2770.00,95.54
2769.00,95.56
2768.00,95.58
2767.00,95.60
2766.00,95.62
2765.00,95.64
2764.00,95.66
2763.00,95.68
2762.00,95.69
2761.00,95.70
2760.00,95.70
2759.00,95.71
2758.00,95.71
2757.00,95.71
2756.00,95.71
2755.00,95.72
2754.00,95.72
2753.00,95.73
2752.00,95.72
2751.00,95.71
2750.00,95.70
2749.00,95.69
2748.00,95.68
2747.00,95.69
2746.00,95.71
2745.00,95.72
2744.00,95.73
2743.00,95.73
2742.00,95.73
2741.00,95.73
2740.00,95.73
2739.00,95.74
2738.00,95.73
2737.00,95.72
2736.00,95.71
2735.00,95.70
2734.00,95.70
2733.00,95.70
2732.00,95.70
2731.00,95.71
2730.00,95.72
2729.00,95.74
2728.00,95.77
2727.00,95.79
2726.00,95.81
2725.00,95.82
2724.00,95.83
2723.00,95.84
2722.00,95.85
2721.00,95.86
2720.00,95.85
2719.00,95.85
2718.00,95.85
2717.00,95.87
2716.00,95.89
2715.00,95.91
2714.00,95.93
2713.00,95.95
2712.00,95.96
2711.00,95.98
2710.00,96.01
2709.00,96.02
2708.00,96.04
2707.00,96.05
2706.00,96.05
2705.00,96.04
2704.00,96.03
2703.00,96.04
2702.00,96.04
2701.00,96.05
2700.00,96.05
2699.00,96.06
2698.00,96.06
2697.00,96.07
2696.00,96.08
2695.00,96.10
2694.00,96.12
2693.00,96.14
2692.00,96.15
2691.00,96.16
2690.00,96.17
2689.00,96.17
2688.00,96.17
2687.00,96.18
2686.00,96.18
2685.00,96.19
2684.00,96.20
2683.00,96.21
2682.00,96.23
2681.00,96.25
2680.00,96.27
2679.00,96.28
2678.00,96.30
2677.00,96.30
2676.00,96.31
2675.00,96.30
2674.00,96.30
2673.00,96.31
2672.00,96.33
2671.00,96.35
2670.00,96.35
2669.00,96.36
2668.00,96.37
2667.00,96.38
2666.00,96.41
2665.00,96.42
2664.00,96.42
2663.00,96.40
2662.00,96.38
2661.00,96.37
2660.00,96.36
2659.00,96.37
2658.00,96.38
2657.00,96.39
2656.00,96.40
2655.00,96.41
2654.00,96.41
2653.00,96.40
2652.00,96.40
2651.00,96.40
2650.00,96.40
2649.00,96.40
2648.00,96.41
2647.00,96.41
2646.00,96.41
2645.00,96.40
2644.00,96.38
2643.00,96.37
2642.00,96.36
2641.00,96.35
2640.00,96.33
2639.00,96.33
2638.00,96.32
2637.00,96.32
2636.00,96.32
2635.00,96.32
2634.00,96.33
2633.00,96.33
2632.00,96.33
2631.00,96.32
2630.00,96.32
2629.00,96.32
2628.00,96.33
2627.00,96.36
2626.00,96.39
2625.00,96.40
2624.00,96.41
2623.00,96.40
2622.00,96.38
2621.00,96.35
2620.00,96.34
2619.00,96.33
2618.00,96.33
2617.00,96.34
2616.00,96.34
2615.00,96.35
2614.00,96.36
2613.00,96.37
2612.00,96.36
2611.00,96.35
2610.00,96.34
2609.00,96.33
2608.00,96.33
2607.00,96.34
2606.00,96.35
2605.00,96.37
2604.00,96.37
2603.00,96.37
2602.00,96.36
2601.00,96.35
2600.00,96.33
2599.00,96.32
2598.00,96.32
2597.00,96.33
2596.00,96.35
2595.00,96.37
2594.00,96.38
2593.00,96.38
2592.00,96.37
2591.00,96.35
2590.00,96.35
2589.00,96.35
2588.00,96.37
2587.00,96.38
2586.00,96.39
2585.00,96.40
2584.00,96.39
2583.00,96.38
2582.00,96.37
2581.00,96.36
2580.00,96.34
2579.00,96.33
2578.00,96.32
2577.00,96.32
2576.00,96.31
2575.00,96.32
2574.00,96.32
2573.00,96.32
2572.00,96.33
2571.00,96.35
2570.00,96.36
2569.00,96.37
2568.00,96.36
2567.00,96.34
2566.00,96.33
2565.00,96.32
2564.00,96.33
2563.00,96.34
2562.00,96.35
2561.00,96.35
2560.00,96.34
2559.00,96.34
2558.00,96.35
2557.00,96.37
2556.00,96.38
2555.00,96.39
2554.00,96.40
2553.00,96.40
2552.00,96.41
2551.00,96.43
2550.00,96.44
2549.00,96.44
2548.00,96.43
2547.00,96.41
2546.00,96.40
2545.00,96.40
2544.00,96.38
2543.00,96.37
2542.00,96.35
2541.00,96.34
2540.00,96.33
2539.00,96.32
2538.00,96.32
2537.00,96.32
2536.00,96.33
2535.00,96.33
2534.00,96.33
2533.00,96.33
2532.00,96.33
2531.00,96.34
2530.00,96.34
2529.00,96.34
2528.00,96.32
2527.00,96.31
2526.00,96.30
2525.00,96.30
2524.00,96.33
2523.00,96.36
2522.00,96.38
2521.00,96.39
2520.00,96.39
2519.00,96.38
2518.00,96.37
2517.00,96.37
2516.00,96.38
2515.00,96.39
2514.00,96.41
2513.00,96.44
2512.00,96.47
2511.00,96.48
2510.00,96.48
2509.00,96.47
2508.00,96.47
2507.00,96.47
2506.00,96.46
2505.00,96.44
2504.00,96.43
2503.00,96.43
2502.00,96.44
2501.00,96.46
2500.00,96.48
2499.00,96.49
2498.00,96.50
2497.00,96.51
2496.00,96.53
2495.00,96.56
2494.00,96.58
2493.00,96.59
2492.00,96.58
2491.00,96.55
2490.00,96.54
2489.00,96.54
2488.00,96.55
2487.00,96.56
2486.00,96.55
2485.00,96.53
2484.00,96.51
2483.00,96.50
2482.00,96.51
2481.00,96.54
2480.00,96.59
2479.00,96.63
2478.00,96.64
2477.00,96.61
2476.00,96.58
2475.00,96.56
2474.00,96.55
2473.00,96.55
2472.00,96.56
2471.00,96.56
2470.00,96.57
2469.00,96.58
2468.00,96.59
2467.00,96.59
2466.00,96.59
2465.00,96.59
2464.00,96.60
2463.00,96.61
2462.00,96.61
2461.00,96.61
2460.00,96.61
2459.00,96.60
2458.00,96.61
2457.00,96.62
2456.00,96.63
2455.00,96.63
2454.00,96.62
2453.00,96.63
2452.00,96.65
2451.00,96.67
2450.00,96.69
2449.00,96.70
2448.00,96.70
2447.00,96.70
2446.00,96.71
2445.00,96.72
2444.00,96.74
2443.00,96.77
2442.00,96.78
2441.00,96.77
2440.00,96.75
2439.00,96.74
2438.00,96.74
2437.00,96.74
2436.00,96.76
2435.00,96.79
2434.00,96.80
2433.00,96.81
2432.00,96.80
2431.00,96.78
2430.00,96.77
2429.00,96.77
2428.00,96.78
2427.00,96.79
2426.00,96.79
2425.00,96.79
2424.00,96.79
2423.00,96.79
2422.00,96.81
2421.00,96.82
2420.00,96.83
2419.00,96.84
2418.00,96.85
2417.00,96.86
2416.00,96.86
2415.00,96.85
2414.00,96.83
2413.00,96.82
2412.00,96.83
2411.00,96.85
2410.00,96.89
2409.00,96.92
2408.00,96.94
2407.00,96.95
2406.00,96.95
2405.00,96.94
2404.00,96.95
2403.00,96.97
2402.00,96.99
2401.00,97.01
2400.00,97.04
2399.00,97.06
2398.00,97.08
2397.00,97.09
2396.00,97.08
2395.00,97.06
2394.00,97.05
2393.00,97.05
2392.00,97.07
2391.00,97.08
2390.00,97.08
2389.00,97.07
2388.00,97.06
2387.00,97.08
2386.00,97.11
2385.00,97.16
2384.00,97.20
2383.00,97.23
2382.00,97.25
2381.00,97.27
2380.00,97.29
2379.00,97.30
2378.00,97.31
2377.00,97.32
2376.00,97.33
2375.00,97.36
2374.00,97.37
2373.00,97.38
2372.00,97.38
2371.00,97.38
2370.00,97.41
2369.00,97.45
2368.00,97.51
2367.00,97.56
2366.00,97.55
2365.00,97.48
2364.00,97.41
2363.00,97.41
2362.00,97.46
2361.00,97.49
2360.00,97.46
2359.00,97.43
2358.00,97.44
2357.00,97.48
2356.00,97.52
2355.00,97.53
2354.00,97.51
2353.00,97.50
2352.00,97.51
2351.00,97.52
2350.00,97.53
2349.00,97.53
2348.00,97.52
2347.00,97.51
2346.00,97.51
2345.00,97.53
2344.00,97.56
2343.00,97.58
2342.00,97.57
2341.00,97.52
2340.00,97.45
2339.00,97.41
2338.00,97.42
2337.00,97.45
2336.00,97.49
2335.00,97.51
2334.00,97.51
2333.00,97.50
2332.00,97.49
2331.00,97.49
2330.00,97.48
2329.00,97.45
2328.00,97.40
2327.00,97.33
2326.00,97.26
2325.00,97.20
2324.00,97.14
2323.00,97.11
2322.00,97.11
2321.00,97.14
2320.00,97.17
2319.00,97.21
2318.00,97.24
2317.00,97.23
2316.00,97.19
2315.00,97.15
2314.00,97.11
2313.00,97.09
2312.00,97.10
2311.00,97.12
2310.00,97.14
2309.00,97.14
2308.00,97.14
2307.00,97.15
2306.00,97.15
2305.00,97.15
2304.00,97.12
2303.00,97.08
2302.00,97.04
2301.00,97.01
2300.00,96.98
2299.00,96.95
2298.00,96.93
2297.00,96.91
2296.00,96.90
2295.00,96.89
2294.00,96.87
2293.00,96.84
2292.00,96.82
2291.00,96.79
2290.00,96.76
2289.00,96.71
2288.00,96.65
2287.00,96.59
2286.00,96.55
2285.00,96.52
2284.00,96.51
2283.00,96.51
2282.00,96.52
2281.00,96.52
2280.00,96.52
2279.00,96.52
2278.00,96.52
2277.00,96.51
2276.00,96.49
2275.00,96.46
2274.00,96.43
2273.00,96.42
2272.00,96.40
2271.00,96.38
2270.00,96.35
2269.00,96.34
2268.00,96.36
2267.00,96.40
2266.00,96.41
2265.00,96.40
2264.00,96.38
2263.00,96.36
2262.00,96.35
2261.00,96.32
2260.00,96.28
2259.00,96.22
2258.00,96.18
2257.00,96.16
2256.00,96.19
2255.00,96.25
2254.00,96.28
2253.00,96.26
2252.00,96.20
2251.00,96.12
2250.00,96.07
2249.00,96.04
2248.00,96.02
2247.00,96.00
2246.00,95.97
2245.00,95.94
2244.00,95.92
2243.00,95.92
2242.00,95.94
2241.00,95.95
2240.00,95.96
2239.00,95.96
2238.00,95.95
2237.00,95.94
2236.00,95.92
2235.00,95.91
2234.00,95.89
2233.00,95.88
2232.00,95.87
2231.00,95.87
2230.00,95.86
2229.00,95.86
2228.00,95.83
2227.00,95.80
2226.00,95.77
2225.00,95.75
2224.00,95.76
2223.00,95.80
2222.00,95.84
2221.00,95.85
2220.00,95.82
2219.00,95.73
2218.00,95.64
2217.00,95.57
2216.00,95.56
2215.00,95.60
2214.00,95.65
2213.00,95.67
2212.00,95.68
2211.00,95.68
2210.00,95.67
2209.00,95.67
2208.00,95.66
2207.00,95.67
2206.00,95.67
2205.00,95.66
2204.00,95.64
2203.00,95.63
2202.00,95.61
2201.00,95.57
2200.00,95.49
2199.00,95.41
2198.00,95.35
2197.00,95.34
2196.00,95.35
2195.00,95.37
2194.00,95.38
2193.00,95.39
2192.00,95.39
2191.00,95.38
2190.00,95.35
2189.00,95.31
2188.00,95.28
2187.00,95.26
2186.00,95.24
2185.00,95.23
2184.00,95.21
2183.00,95.19
2182.00,95.18
2181.00,95.20
2180.00,95.23
2179.00,95.23
2178.00,95.20
2177.00,95.15
2176.00,95.11
2175.00,95.10
2174.00,95.10
2173.00,95.07
2172.00,95.01
2171.00,94.96
2170.00,94.94
2169.00,94.93
2168.00,94.90
2167.00,94.84
2166.00,94.77
2165.00,94.72
2164.00,94.69
2163.00,94.67
2162.00,94.68
2161.00,94.70
2160.00,94.76
2159.00,94.85
2158.00,94.96
2157.00,95.06
2156.00,95.13
2155.00,95.17
2154.00,95.19
2153.00,95.25
2152.00,95.33
2151.00,95.43
2150.00,95.49
2149.00,95.49
2148.00,95.47
2147.00,95.45
2146.00,95.48
2145.00,95.54
2144.00,95.62
2143.00,95.69
2142.00,95.75
2141.00,95.78
2140.00,95.81
2139.00,95.83
2138.00,95.85
2137.00,95.89
2136.00,95.93
2135.00,95.99
2134.00,96.04
2133.00,96.07
2132.00,96.07
2131.00,96.08
2130.00,96.12
2129.00,96.18
2128.00,96.23
2127.00,96.25
2126.00,96.24
2125.00,96.21
2124.00,96.17
2123.00,96.16
2122.00,96.17
2121.00,96.18
2120.00,96.17
2119.00,96.13
2118.00,96.09
2117.00,96.07
2116.00,96.08
2115.00,96.12
2114.00,96.15
2113.00,96.16
2112.00,96.15
2111.00,96.14
2110.00,96.14
2109.00,96.14
2108.00,96.13
2107.00,96.13
2106.00,96.14
2105.00,96.14
2104.00,96.14
2103.00,96.14
2102.00,96.15
2101.00,96.17
2100.00,96.19
2099.00,96.19
2098.00,96.17
2097.00,96.16
2096.00,96.19
2095.00,96.23
2094.00,96.27
2093.00,96.27
2092.00,96.23
2091.00,96.17
2090.00,96.11
2089.00,96.07
2088.00,96.05
2087.00,96.05
2086.00,96.06
2085.00,96.08
2084.00,96.09
2083.00,96.07
2082.00,96.05
2081.00,96.04
2080.00,96.02
2079.00,96.00
2078.00,95.98
2077.00,95.97
2076.00,95.98
2075.00,96.01
2074.00,96.04
2073.00,96.06
2072.00,96.05
2071.00,96.02
2070.00,95.98
2069.00,95.93
2068.00,95.91
2067.00,95.92
2066.00,95.95
2065.00,95.97
2064.00,95.97
2063.00,95.95
2062.00,95.94
2061.00,95.95
2060.00,95.95
2059.00,95.94
2058.00,95.93
2057.00,95.92
2056.00,95.91
2055.00,95.90
2054.00,95.88
2053.00,95.85
2052.00,95.80
2051.00,95.74
2050.00,95.68
2049.00,95.60
2048.00,95.52
2047.00,95.45
2046.00,95.41
2045.00,95.40
2044.00,95.39
2043.00,95.39
2042.00,95.41
2041.00,95.41
2040.00,95.38
2039.00,95.30
2038.00,95.22
2037.00,95.20
2036.00,95.24
2035.00,95.29
2034.00,95.31
2033.00,95.30
2032.00,95.29
2031.00,95.30
2030.00,95.31
2029.00,95.29
2028.00,95.24
2027.00,95.18
2026.00,95.15
2025.00,95.15
2024.00,95.16
2023.00,95.16
2022.00,95.16
2021.00,95.20
2020.00,95.28
2019.00,95.41
2018.00,95.51
2017.00,95.54
2016.00,95.48
2015.00,95.40
2014.00,95.36
2013.00,95.39
2012.00,95.43
2011.00,95.45
2010.00,95.43
2009.00,95.42
2008.00,95.46
2007.00,95.54
2006.00,95.60
2005.00,95.62
2004.00,95.63
2003.00,95.67
2002.00,95.74
2001.00,95.81
2000.00,95.84
1999.00,95.83
1998.00,95.81
1997.00,95.81
1996.00,95.83
1995.00,95.84
1994.00,95.82
1993.00,95.78
1992.00,95.74
1991.00,95.73
1990.00,95.74
1989.00,95.75
1988.00,95.73
1987.00,95.70
1986.00,95.66
1985.00,95.64
1984.00,95.63
1983.00,95.60
1982.00,95.55
1981.00,95.48
1980.00,95.44
1979.00,95.43
1978.00,95.46
1977.00,95.50
1976.00,95.52
1975.00,95.54
1974.00,95.59
1973.00,95.65
1972.00,95.72
1971.00,95.77
1970.00,95.78
1969.00,95.78
1968.00,95.80
1967.00,95.82
1966.00,95.85
1965.00,95.86
1964.00,95.86
1963.00,95.87
1962.00,95.90
1961.00,95.94
1960.00,95.99
1959.00,96.05
1958.00,96.12
1957.00,96.18
1956.00,96.20
1955.00,96.19
1954.00,96.17
1953.00,96.18
1952.00,96.21
1951.00,96.25
1950.00,96.30
1949.00,96.34
1948.00,96.38
1947.00,96.41
1946.00,96.44
1945.00,96.44
1944.00,96.44
1943.00,96.46
1942.00,96.51
1941.00,96.55
1940.00,96.59
1939.00,96.60
1938.00,96.59
1937.00,96.59
1936.00,96.61
1935.00,96.64
1934.00,96.68
1933.00,96.68
1932.00,96.67
1931.00,96.65
1930.00,96.67
1929.00,96.71
1928.00,96.75
1927.00,96.79
1926.00,96.82
1925.00,96.82
1924.00,96.81
1923.00,96.79
1922.00,96.77
1921.00,96.77
1920.00,96.77
1919.00,96.78
1918.00,96.79
1917.00,96.80
1916.00,96.81
1915.00,96.83
1914.00,96.85
1913.00,96.86
1912.00,96.86
1911.00,96.86
1910.00,96.87
1909.00,96.88
1908.00,96.91
1907.00,96.94
1906.00,96.97
1905.00,96.99
1904.00,97.00
1903.00,97.01
1902.00,97.02
1901.00,97.02
1900.00,97.02
1899.00,97.02
1898.00,97.01
1897.00,97.00
1896.00,97.00
1895.00,97.02
1894.00,97.06
1893.00,97.09
1892.00,97.10
1891.00,97.09
1890.00,97.08
1889.00,97.09
1888.00,97.11
1887.00,97.14
1886.00,97.16
1885.00,97.17
1884.00,97.17
1883.00,97.16
1882.00,97.15
1881.00,97.15
1880.00,97.16
1879.00,97.16
1878.00,97.15
1877.00,97.13
1876.00,97.13
1875.00,97.14
1874.00,97.17
1873.00,97.19
1872.00,97.18
1871.00,97.16
1870.00,97.14
1869.00,97.15
1868.00,97.17
1867.00,97.18
1866.00,97.17
1865.00,97.15
1864.00,97.13
1863.00,97.13
1862.00,97.14
1861.00,97.16
1860.00,97.18
1859.00,97.21
1858.00,97.25
1857.00,97.28
1856.00,97.29
1855.00,97.29
1854.00,97.28
1853.00,97.27
1852.00,97.27
1851.00,97.27
1850.00,97.28
1849.00,97.29
1848.00,97.30
1847.00,97.31
1846.00,97.32
1845.00,97.35
1844.00,97.39
1843.00,97.41
1842.00,97.41
1841.00,97.38
1840.00,97.36
1839.00,97.35
1838.00,97.35
1837.00,97.34
1836.00,97.34
1835.00,97.35
1834.00,97.35
1833.00,97.34
1832.00,97.31
1831.00,97.29
1830.00,97.29
1829.00,97.32
1828.00,97.37
1827.00,97.39
1826.00,97.40
1825.00,97.39
1824.00,97.38
1823.00,97.38
1822.00,97.39
1821.00,97.40
1820.00,97.41
1819.00,97.43
1818.00,97.45
1817.00,97.44
1816.00,97.42
1815.00,97.39
1814.00,97.38
1813.00,97.38
1812.00,97.38
1811.00,97.39
1810.00,97.40
1809.00,97.42
1808.00,97.44
1807.00,97.45
1806.00,97.45
1805.00,97.44
1804.00,97.42
1803.00,97.41
1802.00,97.41
1801.00,97.41
1800.00,97.41
1799.00,97.42
1798.00,97.43
1797.00,97.45
1796.00,97.47
1795.00,97.47
1794.00,97.47
1793.00,97.45
1792.00,97.43
1791.00,97.42
1790.00,97.43
1789.00,97.44
1788.00,97.45
1787.00,97.45
1786.00,97.46
1785.00,97.46
1784.00,97.46
1783.00,97.45
1782.00,97.43
1781.00,97.41
1780.00,97.40
1779.00,97.39
1778.00,97.40
1777.00,97.42
1776.00,97.45
1775.00,97.46
1774.00,97.46
1773.00,97.45
1772.00,97.43
1771.00,97.43
1770.00,97.43
1769.00,97.43
1768.00,97.42
1767.00,97.42
1766.00,97.43
1765.00,97.43
1764.00,97.43
1763.00,97.42
1762.00,97.42
1761.00,97.42
1760.00,97.40
1759.00,97.37
1758.00,97.35
1757.00,97.34
1756.00,97.34
1755.00,97.34
1754.00,97.33
1753.00,97.30
1752.00,97.26
1751.00,97.23
1750.00,97.20
1749.00,97.19
1748.00,97.18
1747.00,97.17
1746.00,97.16
1745.00,97.16
1744.00,97.15
1743.00,97.15
1742.00,97.14
1741.00,97.12
1740.00,97.12
1739.00,97.12
1738.00,97.14
1737.00,97.15
1736.00,97.14
1735.00,97.11
1734.00,97.09
1733.00,97.08
1732.00,97.07
1731.00,97.07
1730.00,97.08
1729.00,97.09
1728.00,97.11
1727.00,97.12
1726.00,97.12
1725.00,97.10
1724.00,97.08
1723.00,97.07
1722.00,97.06
1721.00,97.05
1720.00,97.03
1719.00,96.99
1718.00,96.95
1717.00,96.94
1716.00,96.94
1715.00,96.95
1714.00,96.95
1713.00,96.95
1712.00,96.94
1711.00,96.93
1710.00,96.92
1709.00,96.91
1708.00,96.88
1707.00,96.84
1706.00,96.81
1705.00,96.78
1704.00,96.77
1703.00,96.76
1702.00,96.73
1701.00,96.67
1700.00,96.63
1699.00,96.63
1698.00,96.64
1697.00,96.63
1696.00,96.59
1695.00,96.56
1694.00,96.54
1693.00,96.51
1692.00,96.47
1691.00,96.44
1690.00,96.40
1689.00,96.37
1688.00,96.34
1687.00,96.32
1686.00,96.29
1685.00,96.24
1684.00,96.17
1683.00,96.10
1682.00,96.05
1681.00,96.00
1680.00,95.94
1679.00,95.88
1678.00,95.83
1677.00,95.78
1676.00,95.73
1675.00,95.69
1674.00,95.67
1673.00,95.64
1672.00,95.58
1671.00,95.50
1670.00,95.41
1669.00,95.33
1668.00,95.29
1667.00,95.26
1666.00,95.24
1665.00,95.19
1664.00,95.12
1663.00,95.05
1662.00,94.99
1661.00,94.95
1660.00,94.92
1659.00,94.88
1658.00,94.84
1657.00,94.80
1656.00,94.76
1655.00,94.70
1654.00,94.61
1653.00,94.52
1652.00,94.49
1651.00,94.49
1650.00,94.48
1649.00,94.46
1648.00,94.42
1647.00,94.39
1646.00,94.37
1645.00,94.37
1644.00,94.37
1643.00,94.37
1642.00,94.37
1641.00,94.36
1640.00,94.34
1639.00,94.34
1638.00,94.33
1637.00,94.33
1636.00,94.34
1635.00,94.36
1634.00,94.42
1633.00,94.46
1632.00,94.50
1631.00,94.52
1630.00,94.55
1629.00,94.57
1628.00,94.60
1627.00,94.62
1626.00,94.66
1625.00,94.69
1624.00,94.74
1623.00,94.80
1622.00,94.86
1621.00,94.92
1620.00,94.96
1619.00,95.00
1618.00,95.04
1617.00,95.08
1616.00,95.13
1615.00,95.18
1614.00,95.22
1613.00,95.25
1612.00,95.28
1611.00,95.32
1610.00,95.35
1609.00,95.39
1608.00,95.43
1607.00,95.47
1606.00,95.53
1605.00,95.57
1604.00,95.61
1603.00,95.65
1602.00,95.68
1601.00,95.71
1600.00,95.74
1599.00,95.78
1598.00,95.82
1597.00,95.87
1596.00,95.91
1595.00,95.93
1594.00,95.95
1593.00,95.97
1592.00,95.99
1591.00,96.02
1590.00,96.07
1589.00,96.11
1588.00,96.15
1587.00,96.19
1586.00,96.21
1585.00,96.24
1584.00,96.25
1583.00,96.26
1582.00,96.28
1581.00,96.30
1580.00,96.34
1579.00,96.36
1578.00,96.38
1577.00,96.40
1576.00,96.41
1575.00,96.44
1574.00,96.46
1573.00,96.47
1572.00,96.47
1571.00,96.48
1570.00,96.49
1569.00,96.51
1568.00,96.52
1567.00,96.53
1566.00,96.54
1565.00,96.54
1564.00,96.55
1563.00,96.54
1562.00,96.54
1561.00,96.54
1560.00,96.55
1559.00,96.55
1558.00,96.55
1557.00,96.54
1556.00,96.53
1555.00,96.53
1554.00,96.54
1553.00,96.56
1552.00,96.57
1551.00,96.58
1550.00,96.58
1549.00,96.58
1548.00,96.58
1547.00,96.58
1546.00,96.58
1545.00,96.57
1544.00,96.57
1543.00,96.57
1542.00,96.59
1541.00,96.61
1540.00,96.61
1539.00,96.61
1538.00,96.60
1537.00,96.61
1536.00,96.60
1535.00,96.60
1534.00,96.58
1533.00,96.58
1532.00,96.60
1531.00,96.62
1530.00,96.65
1529.00,96.66
1528.00,96.67
1527.00,96.67
1526.00,96.67
1525.00,96.66
1524.00,96.65
1523.00,96.63
1522.00,96.61
1521.00,96.60
1520.00,96.60
1519.00,96.59
1518.00,96.59
1517.00,96.58
1516.00,96.58
1515.00,96.58
1514.00,96.59
1513.00,96.59
1512.00,96.59
1511.00,96.59
1510.00,96.59
1509.00,96.58
1508.00,96.54
1507.00,96.48
1506.00,96.43
1505.00,96.40
1504.00,96.37
1503.00,96.35
1502.00,96.32
1501.00,96.29
1500.00,96.25
1499.00,96.21
1498.00,96.17
1497.00,96.12
1496.00,96.06
1495.00,96.01
1494.00,95.96
1493.00,95.89
1492.00,95.81
1491.00,95.72
1490.00,95.62
1489.00,95.52
1488.00,95.40
1487.00,95.28
1486.00,95.14
1485.00,94.99
1484.00,94.84
1483.00,94.69
1482.00,94.55
1481.00,94.43
1480.00,94.33
1479.00,94.25
1478.00,94.17
1477.00,94.08
1476.00,93.97
1475.00,93.86
1474.00,93.73
1473.00,93.59
1472.00,93.45
1471.00,93.36
1470.00,93.29
1469.00,93.22
1468.00,93.16
1467.00,93.09
1466.00,93.02
1465.00,92.93
1464.00,92.84
1463.00,92.76
1462.00,92.70
1461.00,92.64
1460.00,92.59
1459.00,92.52
1458.00,92.41
1457.00,92.30
1456.00,92.22
1455.00,92.18
1454.00,92.14
1453.00,92.09
1452.00,92.04
1451.00,91.98
1450.00,91.91
1449.00,91.84
1448.00,91.76
1447.00,91.69
1446.00,91.64
1445.00,91.60
1444.00,91.55
1443.00,91.51
1442.00,91.47
1441.00,91.41
1440.00,91.36
1439.00,91.32
1438.00,91.26
1437.00,91.17
1436.00,91.06
1435.00,90.97
1434.00,90.89
1433.00,90.81
1432.00,90.73
1431.00,90.65
1430.00,90.58
1429.00,90.53
1428.00,90.50
1427.00,90.50
1426.00,90.51
1425.00,90.54
1424.00,90.58
1423.00,90.62
1422.00,90.67
1421.00,90.73
1420.00,90.80
1419.00,90.89
1418.00,90.99
1417.00,91.07
1416.00,91.14
1415.00,91.23
1414.00,91.31
1413.00,91.39
1412.00,91.46
1411.00,91.53
1410.00,91.59
1409.00,91.63
1408.00,91.67
1407.00,91.69
1406.00,91.72
1405.00,91.73
1404.00,91.73
1403.00,91.73
1402.00,91.71
1401.00,91.69
1400.00,91.67
1399.00,91.64
1398.00,91.63
1397.00,91.61
1396.00,91.60
1395.00,91.58
1394.00,91.55
1393.00,91.51
1392.00,91.47
1391.00,91.42
1390.00,91.35
1389.00,91.27
1388.00,91.16
1387.00,91.03
1386.00,90.86
1385.00,90.66
1384.00,90.41
1383.00,90.12
1382.00,89.79
1381.00,89.44
1380.00,89.09
1379.00,88.75
1378.00,88.46
1377.00,88.21
1376.00,88.00
1375.00,87.80
1374.00,87.61
1373.00,87.44
1372.00,87.30
1371.00,87.19
1370.00,87.11
1369.00,87.03
1368.00,86.98
1367.00,86.95
1366.00,86.94
1365.00,86.95
1364.00,86.97
1363.00,87.02
1362.00,87.10
1361.00,87.22
1360.00,87.37
1359.00,87.52
1358.00,87.68
1357.00,87.84
1356.00,88.00
1355.00,88.17
1354.00,88.34
1353.00,88.50
1352.00,88.63
1351.00,88.73
1350.00,88.80
1349.00,88.80
1348.00,88.76
1347.00,88.67
1346.00,88.55
1345.00,88.42
1344.00,88.26
1343.00,88.10
1342.00,87.93
1341.00,87.75
1340.00,87.56
1339.00,87.38
1338.00,87.24
1337.00,87.13
1336.00,87.07
1335.00,87.06
1334.00,87.11
1333.00,87.20
1332.00,87.33
1331.00,87.46
1330.00,87.57
1329.00,87.65
1328.00,87.71
1327.00,87.73
1326.00,87.72
1325.00,87.66
1324.00,87.54
1323.00,87.36
1322.00,87.11
1321.00,86.80
1320.00,86.42
1319.00,86.01
1318.00,85.63
1317.00,85.33
1316.00,85.14
1315.00,85.08
1314.00,85.11
1313.00,85.21
1312.00,85.36
1311.00,85.56
1310.00,85.84
1309.00,86.18
1308.00,86.55
1307.00,86.94
1306.00,87.31
1305.00,87.66
1304.00,87.98
1303.00,88.29
1302.00,88.57
1301.00,88.83
1300.00,89.06
1299.00,89.26
1298.00,89.45
1297.00,89.61
1296.00,89.74
1295.00,89.84
1294.00,89.92
1293.00,90.00
1292.00,90.11
1291.00,90.24
1290.00,90.37
1289.00,90.49
1288.00,90.59
1287.00,90.65
1286.00,90.67
1285.00,90.66
1284.00,90.60
1283.00,90.49
1282.00,90.36
1281.00,90.22
1280.00,90.10
1279.00,90.02
1278.00,89.99
1277.00,90.00
1276.00,90.05
1275.00,90.13
1274.00,90.23
1273.00,90.31
1272.00,90.38
1271.00,90.43
1270.00,90.45
1269.00,90.45
1268.00,90.45
1267.00,90.43
1266.00,90.42
1265.00,90.41
1264.00,90.41
1263.00,90.42
1262.00,90.45
1261.00,90.49
1260.00,90.56
1259.00,90.64
1258.00,90.75
1257.00,90.86
1256.00,90.99
1255.00,91.11
1254.00,91.22
1253.00,91.30
1252.00,91.36
1251.00,91.41
1250.00,91.44
1249.00,91.46
1248.00,91.48
1247.00,91.52
1246.00,91.56
1245.00,91.60
1244.00,91.63
1243.00,91.64
1242.00,91.62
1241.00,91.58
1240.00,91.53
1239.00,91.48
1238.00,91.43
1237.00,91.38
1236.00,91.34
1235.00,91.33
1234.00,91.34
1233.00,91.38
1232.00,91.42
1231.00,91.46
1230.00,91.47
1229.00,91.46
1228.00,91.44
1227.00,91.44
1226.00,91.50
1225.00,91.63
1224.00,91.81
1223.00,92.04
1222.00,92.26
1221.00,92.46
1220.00,92.64
1219.00,92.80
1218.00,92.96
1217.00,93.09
1216.00,93.18
1215.00,93.23
1214.00,93.24
1213.00,93.19
1212.00,93.10
1211.00,92.96
1210.00,92.76
1209.00,92.53
1208.00,92.28
1207.00,92.03
1206.00,91.79
1205.00,91.58
1204.00,91.39
1203.00,91.22
1202.00,91.09
1201.00,91.02
1200.00,91.00
1199.00,91.04
1198.00,91.13
1197.00,91.26
1196.00,91.44
1195.00,91.65
1194.00,91.89
1193.00,92.14
1192.00,92.40
1191.00,92.65
1190.00,92.86
1189.00,93.04
1188.00,93.18
1187.00,93.26
1186.00,93.31
1185.00,93.31
1184.00,93.28
1183.00,93.21
1182.00,93.10
1181.00,92.94
1180.00,92.73
1179.00,92.49
1178.00,92.23
1177.00,91.94
1176.00,91.64
1175.00,91.31
1174.00,90.93
1173.00,90.48
1172.00,89.96
1171.00,89.36
1170.00,88.70
1169.00,87.98
1168.00,87.22
1167.00,86.43
1166.00,85.64
1165.00,84.87
1164.00,84.17
1163.00,83.56
1162.00,83.07
1161.00,82.72
1160.00,82.49
1159.00,82.38
1158.00,82.37
1157.00,82.47
1156.00,82.64
1155.00,82.87
1154.00,83.14
1153.00,83.43
1152.00,83.72
1151.00,84.01
1150.00,84.30
1149.00,84.58
1148.00,84.85
1147.00,85.13
1146.00,85.42
1145.00,85.70
1144.00,85.97
1143.00,86.20
1142.00,86.38
1141.00,86.50
1140.00,86.54
1139.00,86.48
1138.00,86.31
1137.00,86.05
1136.00,85.72
1135.00,85.38
1134.00,85.03
1133.00,84.68
1132.00,84.32
1131.00,83.92
1130.00,83.50
1129.00,83.05
1128.00,82.57
1127.00,82.06
1126.00,81.52
1125.00,80.98
1124.00,80.45
1123.00,79.97
1122.00,79.50
1121.00,79.04
1120.00,78.56
1119.00,78.08
1118.00,77.58
1117.00,77.05
1116.00,76.48
1115.00,75.90
1114.00,75.34
1113.00,74.83
1112.00,74.42
1111.00,74.14
1110.00,73.98
1109.00,73.92
1108.00,73.90
1107.00,73.91
1106.00,73.90
1105.00,73.84
1104.00,73.71
1103.00,73.53
1102.00,73.31
1101.00,73.05
1100.00,72.77
1099.00,72.51
1098.00,72.29
1097.00,72.11
1096.00,71.97
1095.00,71.87
1094.00,71.78
1093.00,71.66
1092.00,71.48
1091.00,71.28
1090.00,71.07
1089.00,70.87
1088.00,70.67
1087.00,70.45
1086.00,70.20
1085.00,69.93
1084.00,69.65
1083.00,69.39
1082.00,69.15
1081.00,68.91
1080.00,68.66
1079.00,68.42
1078.00,68.19
1077.00,67.97
1076.00,67.77
1075.00,67.59
1074.00,67.42
1073.00,67.23
1072.00,67.02
1071.00,66.78
1070.00,66.48
1069.00,66.08
1068.00,65.59
1067.00,65.01
1066.00,64.33
1065.00,63.54
1064.00,62.67
1063.00,61.77
1062.00,60.89
1061.00,60.08
1060.00,59.36
1059.00,58.77
1058.00,58.30
1057.00,57.92
1056.00,57.61
1055.00,57.39
1054.00,57.28
1053.00,57.24
1052.00,57.26
1051.00,57.36
1050.00,57.51
1049.00,57.67
1048.00,57.80
1047.00,57.91
1046.00,58.00
1045.00,58.07
1044.00,58.13
1043.00,58.17
1042.00,58.17
1041.00,58.08
1040.00,57.89
1039.00,57.59
1038.00,57.17
1037.00,56.65
1036.00,56.05
1035.00,55.45
1034.00,54.91
1033.00,54.43
1032.00,54.04
1031.00,53.74
1030.00,53.52
1029.00,53.34
1028.00,53.20
1027.00,53.11
1026.00,53.08
1025.00,53.09
1024.00,53.13
1023.00,53.22
1022.00,53.33
1021.00,53.48
1020.00,53.63
1019.00,53.79
1018.00,53.96
1017.00,54.13
1016.00,54.32
1015.00,54.57
1014.00,54.87
1013.00,55.20
1012.00,55.51
1011.00,55.79
1010.00,56.03
1009.00,56.21
1008.00,56.35
1007.00,56.47
1006.00,56.56
1005.00,56.62
1004.00,56.64
1003.00,56.61
1002.00,56.54
1001.00,56.42
1000.00,56.27
999.00,56.15
998.00,56.10
997.00,56.14
996.00,56.28
995.00,56.54
994.00,56.88
993.00,57.28
992.00,57.71
991.00,58.16
990.00,58.64
989.00,59.10
988.00,59.54
987.00,59.97
986.00,60.42
985.00,60.92
984.00,61.50
983.00,62.20
982.00,63.01
981.00,63.91
980.00,64.84
979.00,65.76
978.00,66.64
977.00,67.48
976.00,68.26
975.00,68.99
974.00,69.65
973.00,70.25
972.00,70.77
971.00,71.24
970.00,71.66
969.00,72.05
968.00,72.44
967.00,72.81
966.00,73.17
965.00,73.51
964.00,73.84
963.00,74.16
962.00,74.49
961.00,74.84
960.00,75.23
959.00,75.66
958.00,76.12
957.00,76.57
956.00,77.00
955.00,77.44
954.00,77.88
953.00,78.32
952.00,78.73
951.00,79.12
950.00,79.48
949.00,79.81
948.00,80.13
947.00,80.43
946.00,80.70
945.00,80.95
944.00,81.20
943.00,81.44
942.00,81.67
941.00,81.89
940.00,82.07
939.00,82.24
938.00,82.40
937.00,82.56
936.00,82.71
935.00,82.86
934.00,82.98
933.00,83.08
932.00,83.19
931.00,83.31
930.00,83.43
929.00,83.56
928.00,83.69
927.00,83.83
926.00,83.96
925.00,84.10
924.00,84.24
923.00,84.39
922.00,84.53
921.00,84.64
920.00,84.73
919.00,84.78
918.00,84.81
917.00,84.81
916.00,84.79
915.00,84.77
914.00,84.72
913.00,84.65
912.00,84.54
911.00,84.41
910.00,84.26
909.00,84.08
908.00,83.88
907.00,83.66
906.00,83.44
905.00,83.19
904.00,82.92
903.00,82.63
902.00,82.32
901.00,81.98
900.00,81.60
899.00,81.20
898.00,80.81
897.00,80.46
896.00,80.20
895.00,80.07
894.00,80.07
893.00,80.19
892.00,80.42
891.00,80.74
890.00,81.14
889.00,81.60
888.00,82.08
887.00,82.58
886.00,83.06
885.00,83.50
884.00,83.90
883.00,84.28
882.00,84.61
881.00,84.89
880.00,85.15
879.00,85.41
878.00,85.67
877.00,85.90
876.00,86.09
875.00,86.25
874.00,86.40
873.00,86.53
872.00,86.65
871.00,86.74
870.00,86.83
869.00,86.92
868.00,87.01
867.00,87.11
866.00,87.21
865.00,87.28
864.00,87.35
863.00,87.41
862.00,87.46
861.00,87.50
860.00,87.53
859.00,87.55
858.00,87.58
857.00,87.61
856.00,87.64
855.00,87.67
854.00,87.71
853.00,87.74
852.00,87.78
851.00,87.82
850.00,87.84
849.00,87.85
848.00,87.84
847.00,87.82
846.00,87.79
845.00,87.76
844.00,87.74
843.00,87.73
842.00,87.74
841.00,87.74
840.00,87.74
839.00,87.75
838.00,87.76
837.00,87.76
836.00,87.71
835.00,87.65
834.00,87.62
833.00,87.62
832.00,87.65
831.00,87.66
830.00,87.64
829.00,87.58
828.00,87.52
827.00,87.51
826.00,87.53
825.00,87.55
824.00,87.56
823.00,87.55
822.00,87.53
821.00,87.50
820.00,87.44
819.00,87.38
818.00,87.32
817.00,87.27
816.00,87.24
815.00,87.21
814.00,87.18
813.00,87.16
812.00,87.14
811.00,87.13
810.00,87.12
809.00,87.11
808.00,87.09
807.00,87.08
806.00,87.06
805.00,87.04
804.00,87.03
803.00,87.03
802.00,87.01
801.00,86.96
800.00,86.90
799.00,86.83
798.00,86.76
797.00,86.69
796.00,86.66
795.00,86.66
794.00,86.68
793.00,86.67
792.00,86.61
791.00,86.53
790.00,86.46
789.00,86.41
788.00,86.37
787.00,86.34
786.00,86.29
785.00,86.24
784.00,86.18
783.00,86.14
782.00,86.10
781.00,86.04
780.00,85.98
779.00,85.93
778.00,85.89
777.00,85.84
776.00,85.76
775.00,85.68
774.00,85.61
773.00,85.54
772.00,85.46
771.00,85.40
770.00,85.36
769.00,85.32
768.00,85.27
767.00,85.20
766.00,85.13
765.00,85.08
764.00,85.03
763.00,84.98
762.00,84.92
761.00,84.86
760.00,84.79
759.00,84.74
758.00,84.69
757.00,84.62
756.00,84.50
755.00,84.37
754.00,84.25
753.00,84.16
752.00,84.10
751.00,84.05
750.00,84.00
749.00,83.91
748.00,83.79
747.00,83.64
746.00,83.49
745.00,83.36
744.00,83.27
743.00,83.22
742.00,83.16
741.00,83.08
740.00,82.97
739.00,82.86
738.00,82.79
737.00,82.72
736.00,82.63
735.00,82.48
734.00,82.29
733.00,82.08
732.00,81.89
731.00,81.73
730.00,81.58
729.00,81.44
728.00,81.27
727.00,81.09
726.00,80.89
725.00,80.67
724.00,80.43
723.00,80.18
722.00,79.94
721.00,79.71
720.00,79.48
719.00,79.27
718.00,79.08
717.00,78.90
716.00,78.70
715.00,78.51
714.00,78.33
713.00,78.17
712.00,78.02
711.00,77.89
710.00,77.78
709.00,77.69
708.00,77.62
707.00,77.55
706.00,77.47
705.00,77.40
704.00,77.33
703.00,77.29
702.00,77.28
701.00,77.28
700.00,77.27
699.00,77.26
698.00,77.26
697.00,77.26
696.00,77.26
695.00,77.29
694.00,77.33
693.00,77.36
692.00,77.35
691.00,77.34
690.00,77.34
689.00,77.31
688.00,77.25
687.00,77.17
686.00,77.07
685.00,76.94
684.00,76.77
683.00,76.57
682.00,76.33
681.00,75.98
680.00,75.50
679.00,74.88
678.00,74.15
677.00,73.32
676.00,72.40
675.00,71.44
674.00,70.48
673.00,69.58
672.00,68.84
671.00,68.32
670.00,67.92
669.00,67.47
668.00,66.96
667.00,66.65
666.00,66.67
665.00,66.83
664.00,66.98
663.00,67.07
662.00,67.12
661.00,67.17
660.00,67.28
659.00,67.48
658.00,67.72
657.00,67.98
656.00,68.22
655.00,68.46
654.00,68.71
653.00,68.95
652.00,69.17
651.00,69.35
650.00,69.49
649.00,69.55
648.00,69.53
647.00,69.46
646.00,69.34
645.00,69.17
644.00,68.96
643.00,68.80
642.00,68.72
641.00,68.70
640.00,68.69
639.00,68.66
638.00,68.62
637.00,68.55
636.00,68.43
635.00,68.27
634.00,68.13
633.00,68.06
632.00,68.05
631.00,68.07
630.00,68.09
629.00,68.07
628.00,68.01
627.00,67.88
626.00,67.64
625.00,67.26
624.00,66.83
623.00,66.49
622.00,66.31
621.00,66.21
620.00,66.09
619.00,65.91
618.00,65.71
617.00,65.50
616.00,65.29
615.00,65.11
614.00,64.89
613.00,64.49
612.00,63.87
611.00,63.17
610.00,62.60
609.00,62.30
608.00,62.27
607.00,62.41
606.00,62.55
605.00,62.64
604.00,62.76
603.00,63.00
602.00,63.30
601.00,63.47
600.00,63.46
599.00,63.36
598.00,63.30
597.00,63.32
596.00,63.38
595.00,63.48
594.00,63.56
593.00,63.57
592.00,63.49
591.00,63.35
590.00,63.15
589.00,62.88
588.00,62.60
587.00,62.46
586.00,62.46
585.00,62.49
584.00,62.53
583.00,62.68
582.00,62.94
581.00,63.19
580.00,63.43
579.00,63.67
578.00,63.81
577.00,63.65
576.00,63.19
575.00,62.66
574.00,62.19
573.00,61.77
572.00,61.49
571.00,61.50
570.00,61.75
569.00,61.99
568.00,62.19
567.00,62.45
566.00,62.61
565.00,62.43
564.00,61.86
563.00,61.12
562.00,60.31
561.00,59.43
560.00,58.64
559.00,58.24
558.00,58.28
557.00,58.49
556.00,58.73
555.00,59.09
554.00,59.58
553.00,60.04
552.00,60.49
551.00,61.05
550.00,61.58
