Created as New Dataset,Natural Brown Fiber
cm-1,%T
4000.00,99.10
3999.00,99.11
3998.00,99.12
3997.00,99.11
3996.00,99.10
3995.00,99.09
3994.00,99.06
3993.00,99.04
3992.00,99.03
3991.00,99.03
3990.00,99.04
3989.00,99.05
3988.00,99.05
3987.00,99.04
3986.00,99.02
3985.00,99.01
3984.00,99.02
3983.00,99.04
3982.00,99.06
3981.00,99.07
3980.00,99.06
3979.00,99.05
3978.00,99.05
3977.00,99.04
3976.00,99.04
3975.00,99.04
3974.00,99.04
3973.00,99.04
3972.00,99.05
3971.00,99.06
3970.00,99.06
3969.00,99.06
3968.00,99.05
3967.00,99.04
3966.00,99.04
3965.00,99.04
3964.00,99.04
3963.00,99.04
3962.00,99.04
3961.00,99.05
3960.00,99.06
3959.00,99.08
3958.00,99.09
3957.00,99.09
3956.00,99.09
3955.00,99.10
3954.00,99.12
3953.00,99.13
3952.00,99.15
3951.00,99.15
3950.00,99.15
3949.00,99.13
3948.00,99.11
3947.00,99.08
3946.00,99.05
3945.00,99.04
3944.00,99.05
3943.00,99.06
3942.00,99.07
3941.00,99.07
3940.00,99.06
3939.00,99.06
3938.00,99.07
3937.00,99.09
3936.00,99.10
3935.00,99.10
3934.00,99.10
3933.00,99.09
3932.00,99.07
3931.00,99.04
3930.00,99.02
3929.00,99.02
3928.00,99.02
3927.00,99.04
3926.00,99.07
3925.00,99.08
3924.00,99.07
3923.00,99.06
3922.00,99.04
3921.00,99.03
3920.00,99.02
3919.00,99.03
3918.00,99.05
3917.00,99.07
3916.00,99.08
3915.00,99.07
3914.00,99.05
3913.00,99.04
3912.00,99.03
3911.00,99.04
3910.00,99.06
3909.00,99.08
3908.00,99.09
3907.00,99.10
3906.00,99.10
3905.00,99.08
3904.00,99.06
3903.00,99.03
3902.00,99.00
3901.00,99.00
3900.00,99.02
3899.00,99.05
3898.00,99.07
3897.00,99.07
3896.00,99.06
3895.00,99.04
3894.00,99.02
3893.00,99.00
3892.00,98.98
3891.00,98.98
3890.00,98.98
3889.00,99.00
3888.00,99.04
3887.00,99.08
3886.00,99.09
3885.00,99.05
3884.00,98.99
3883.00,98.95
3882.00,98.97
3881.00,99.03
3880.00,99.08
3879.00,99.08
3878.00,99.06
3877.00,99.03
3876.00,99.01
3875.00,99.03
3874.00,99.03
3873.00,99.02
3872.00,99.01
3871.00,99.01
3870.00,99.02
3869.00,99.02
3868.00,99.00
3867.00,98.99
3866.00,98.99
3865.00,99.00
3864.00,99.01
3863.00,99.02
3862.00,99.04
3861.00,99.06
3860.00,99.07
3859.00,99.08
3858.00,99.07
3857.00,99.05
3856.00,99.03
3855.00,99.04
3854.00,99.07
3853.00,99.08
3852.00,99.07
3851.00,99.06
3850.00,99.05
3849.00,99.04
3848.00,99.04
3847.00,99.03
3846.00,99.02
3845.00,99.03
3844.00,99.05
3843.00,99.07
3842.00,99.08
3841.00,99.08
3840.00,99.07
3839.00,99.04
3838.00,99.00
3837.00,98.96
3836.00,98.94
3835.00,98.93
3834.00,98.95
3833.00,98.97
3832.00,98.99
3831.00,98.99
3830.00,98.98
3829.00,98.98
3828.00,99.00
3827.00,99.01
3826.00,99.02
3825.00,99.00
3824.00,98.98
3823.00,98.98
3822.00,99.00
3821.00,99.00
3820.00,98.98
3819.00,98.96
3818.00,98.95
3817.00,98.97
3816.00,98.98
3815.00,98.96
3814.00,98.95
3813.00,98.95
3812.00,98.96
3811.00,98.97
3810.00,98.97
3809.00,98.97
3808.00,98.99
3807.00,99.00
3806.00,98.99
3805.00,98.97
3804.00,98.96
3803.00,98.98
3802.00,99.01
3801.00,99.02
3800.00,98.99
3799.00,98.95
3798.00,98.93
3797.00,98.94
3796.00,98.96
3795.00,98.98
3794.00,99.00
3793.00,99.02
3792.00,99.04
3791.00,99.05
3790.00,99.05
3789.00,99.03
3788.00,99.01
3787.00,98.99
3786.00,99.00
3785.00,99.01
3784.00,99.02
3783.00,99.00
3782.00,98.98
3781.00,98.97
3780.00,98.97
3779.00,98.98
3778.00,98.99
3777.00,98.99
3776.00,98.99
3775.00,98.99
3774.00,98.97
3773.00,98.95
3772.00,98.93
3771.00,98.92
3770.00,98.91
3769.00,98.89
3768.00,98.87
3767.00,98.89
3766.00,98.91
3765.00,98.93
3764.00,98.92
3763.00,98.89
3762.00,98.87
3761.00,98.86
3760.00,98.86
3759.00,98.86
3758.00,98.86
3757.00,98.88
3756.00,98.90
3755.00,98.92
3754.00,98.96
3753.00,99.00
3752.00,99.01
3751.00,98.99
3750.00,98.94
3749.00,98.90
3748.00,98.86
3747.00,98.82
3746.00,98.81
3745.00,98.83
3744.00,98.83
3743.00,98.83
3742.00,98.83
3741.00,98.85
3740.00,98.87
3739.00,98.87
3738.00,98.86
3737.00,98.84
3736.00,98.82
3735.00,98.80
3734.00,98.78
3733.00,98.79
3732.00,98.81
3731.00,98.83
3730.00,98.83
3729.00,98.82
3728.00,98.82
3727.00,98.83
3726.00,98.85
3725.00,98.86
3724.00,98.87
3723.00,98.86
3722.00,98.84
3721.00,98.82
3720.00,98.80
3719.00,98.79
3718.00,98.79
3717.00,98.78
3716.00,98.78
3715.00,98.78
3714.00,98.78
3713.00,98.80
3712.00,98.80
3711.00,98.79
3710.00,98.77
3709.00,98.77
3708.00,98.77
3707.00,98.78
3706.00,98.77
3705.00,98.75
3704.00,98.73
3703.00,98.73
3702.00,98.73
3701.00,98.74
3700.00,98.74
3699.00,98.74
3698.00,98.76
3697.00,98.79
3696.00,98.81
3695.00,98.83
3694.00,98.84
3693.00,98.84
3692.00,98.82
3691.00,98.80
3690.00,98.80
3689.00,98.80
3688.00,98.79
3687.00,98.76
3686.00,98.72
3685.00,98.70
3684.00,98.70
3683.00,98.70
3682.00,98.71
3681.00,98.72
3680.00,98.72
3679.00,98.71
3678.00,98.69
3677.00,98.70
3676.00,98.70
3675.00,98.66
3674.00,98.60
3673.00,98.56
3672.00,98.55
3671.00,98.59
3670.00,98.63
3669.00,98.63
3668.00,98.61
3667.00,98.59
3666.00,98.58
3665.00,98.57
3664.00,98.56
3663.00,98.57
3662.00,98.57
3661.00,98.58
3660.00,98.57
3659.00,98.55
3658.00,98.53
3657.00,98.52
3656.00,98.51
3655.00,98.47
3654.00,98.42
3653.00,98.38
3652.00,98.36
3651.00,98.35
3650.00,98.34
3649.00,98.31
3648.00,98.27
3647.00,98.23
3646.00,98.19
3645.00,98.17
3644.00,98.16
3643.00,98.18
3642.00,98.20
3641.00,98.22
3640.00,98.22
3639.00,98.22
3638.00,98.20
3637.00,98.18
3636.00,98.17
3635.00,98.15
3634.00,98.12
3633.00,98.08
3632.00,98.03
3631.00,97.98
3630.00,97.94
3629.00,97.89
3628.00,97.84
3627.00,97.83
3626.00,97.84
3625.00,97.86
3624.00,97.86
3623.00,97.84
3622.00,97.80
3621.00,97.77
3620.00,97.74
3619.00,97.71
3618.00,97.67
3617.00,97.63
3616.00,97.60
3615.00,97.58
3614.00,97.57
3613.00,97.56
3612.00,97.53
3611.00,97.49
3610.00,97.45
3609.00,97.42
3608.00,97.38
3607.00,97.36
3606.00,97.34
3605.00,97.33
3604.00,97.32
3603.00,97.30
3602.00,97.29
3601.00,97.28
3600.00,97.27
3599.00,97.27
3598.00,97.26
3597.00,97.23
3596.00,97.19
3595.00,97.16
3594.00,97.14
3593.00,97.13
3592.00,97.11
3591.00,97.08
3590.00,97.05
3589.00,97.01
3588.00,96.96
3587.00,96.90
3586.00,96.84
3585.00,96.80
3584.00,96.79
3583.00,96.78
3582.00,96.77
3581.00,96.74
3580.00,96.70
3579.00,96.67
3578.00,96.63
3577.00,96.60
3576.00,96.57
3575.00,96.54
3574.00,96.51
3573.00,96.48
3572.00,96.44
3571.00,96.39
3570.00,96.34
3569.00,96.29
3568.00,96.24
3567.00,96.20
3566.00,96.16
3565.00,96.12
3564.00,96.09
3563.00,96.07
3562.00,96.06
3561.00,96.05
3560.00,96.04
3559.00,96.03
3558.00,96.00
3557.00,95.96
3556.00,95.93
3555.00,95.89
3554.00,95.86
3553.00,95.83
3552.00,95.79
3551.00,95.75
3550.00,95.72
3549.00,95.69
3548.00,95.66
3547.00,95.62
3546.00,95.57
3545.00,95.51
3544.00,95.46
3543.00,95.42
3542.00,95.38
3541.00,95.35
3540.00,95.31
3539.00,95.28
3538.00,95.26
3537.00,95.24
3536.00,95.20
3535.00,95.14
3534.00,95.08
3533.00,95.03
3532.00,94.99
3531.00,94.97
3530.00,94.94
3529.00,94.91
3528.00,94.87
3527.00,94.83
3526.00,94.80
3525.00,94.76
3524.00,94.72
3523.00,94.68
3522.00,94.65
3521.00,94.62
3520.00,94.59
3519.00,94.54
3518.00,94.48
3517.00,94.40
3516.00,94.35
3515.00,94.30
3514.00,94.27
3513.00,94.24
3512.00,94.21
3511.00,94.19
3510.00,94.18
3509.00,94.16
3508.00,94.13
3507.00,94.09
3506.00,94.03
3505.00,93.96
3504.00,93.88
3503.00,93.81
3502.00,93.74
3501.00,93.69
3500.00,93.66
3499.00,93.64
3498.00,93.62
3497.00,93.58
3496.00,93.54
3495.00,93.49
3494.00,93.47
3493.00,93.45
3492.00,93.44
3491.00,93.41
3490.00,93.35
3489.00,93.28
3488.00,93.20
3487.00,93.13
3486.00,93.07
3485.00,93.01
3484.00,92.96
3483.00,92.91
3482.00,92.87
3481.00,92.81
3480.00,92.74
3479.00,92.67
3478.00,92.60
3477.00,92.54
3476.00,92.49
3475.00,92.45
3474.00,92.42
3473.00,92.38
3472.00,92.33
3471.00,92.27
3470.00,92.21
3469.00,92.16
3468.00,92.11
3467.00,92.07
3466.00,92.01
3465.00,91.95
3464.00,91.88
3463.00,91.81
3462.00,91.76
3461.00,91.71
3460.00,91.65
3459.00,91.58
3458.00,91.51
3457.00,91.44
3456.00,91.38
3455.00,91.33
3454.00,91.28
3453.00,91.23
3452.00,91.16
3451.00,91.09
3450.00,91.01
3449.00,90.93
3448.00,90.86
3447.00,90.79
3446.00,90.74
3445.00,90.70
3444.00,90.66
3443.00,90.62
3442.00,90.58
3441.00,90.53
3440.00,90.48
3439.00,90.42
3438.00,90.36
3437.00,90.29
3436.00,90.23
3435.00,90.16
3434.00,90.10
3433.00,90.03
3432.00,89.96
3431.00,89.90
3430.00,89.83
3429.00,89.76
3428.00,89.69
3427.00,89.62
3426.00,89.57
3425.00,89.53
3424.00,89.47
3423.00,89.39
3422.00,89.30
3421.00,89.21
3420.00,89.12
3419.00,89.05
3418.00,88.97
3417.00,88.91
3416.00,88.84
3415.00,88.78
3414.00,88.72
3413.00,88.66
3412.00,88.60
3411.00,88.53
3410.00,88.46
3409.00,88.38
3408.00,88.28
3407.00,88.19
3406.00,88.10
3405.00,88.03
3404.00,87.99
3403.00,87.96
3402.00,87.93
3401.00,87.91
3400.00,87.88
3399.00,87.84
3398.00,87.80
3397.00,87.75
3396.00,87.70
3395.00,87.64
3394.00,87.59
3393.00,87.54
3392.00,87.50
3391.00,87.45
3390.00,87.40
3389.00,87.34
3388.00,87.28
3387.00,87.24
3386.00,87.19
3385.00,87.15
3384.00,87.10
3383.00,87.03
3382.00,86.96
3381.00,86.90
3380.00,86.85
3379.00,86.79
3378.00,86.72
3377.00,86.65
3376.00,86.60
3375.00,86.56
3374.00,86.52
3373.00,86.46
3372.00,86.39
3371.00,86.32
3370.00,86.26
3369.00,86.21
3368.00,86.15
3367.00,86.07
3366.00,85.99
3365.00,85.90
3364.00,85.82
3363.00,85.74
3362.00,85.66
3361.00,85.58
3360.00,85.49
3359.00,85.40
3358.00,85.33
3357.00,85.25
3356.00,85.16
3355.00,85.07
3354.00,84.97
3353.00,84.88
3352.00,84.82
3351.00,84.76
3350.00,84.70
3349.00,84.62
3348.00,84.52
3347.00,84.41
3346.00,84.33
3345.00,84.25
3344.00,84.19
3343.00,84.12
3342.00,84.06
3341.00,84.02
3340.00,83.99
3339.00,83.96
3338.00,83.92
3337.00,83.88
3336.00,83.83
3335.00,83.81
3334.00,83.81
3333.00,83.81
3332.00,83.81
3331.00,83.83
3330.00,83.84
3329.00,83.87
3328.00,83.90
3327.00,83.93
3326.00,83.97
3325.00,84.01
3324.00,84.04
3323.00,84.09
3322.00,84.15
3321.00,84.20
3320.00,84.24
3319.00,84.27
3318.00,84.30
3317.00,84.34
3316.00,84.38
3315.00,84.42
3314.00,84.43
3313.00,84.42
3312.00,84.42
3311.00,84.41
3310.00,84.40
3309.00,84.39
3308.00,84.40
3307.00,84.40
3306.00,84.40
3305.00,84.39
3304.00,84.36
3303.00,84.33
3302.00,84.31
3301.00,84.30
3300.00,84.30
3299.00,84.30
3298.00,84.31
3297.00,84.30
3296.00,84.30
3295.00,84.28
3294.00,84.26
3293.00,84.25
3292.00,84.25
3291.00,84.27
3290.00,84.30
3289.00,84.32
3288.00,84.34
3287.00,84.36
3286.00,84.38
3285.00,84.39
3284.00,84.40
3283.00,84.42
3282.00,84.44
3281.00,84.46
3280.00,84.47
3279.00,84.46
3278.00,84.45
3277.00,84.45
3276.00,84.47
3275.00,84.50
3274.00,84.53
3273.00,84.58
3272.00,84.63
3271.00,84.68
3270.00,84.73
3269.00,84.77
3268.00,84.80
3267.00,84.84
3266.00,84.88
3265.00,84.94
3264.00,85.01
3263.00,85.08
3262.00,85.16
3261.00,85.24
3260.00,85.32
3259.00,85.41
3258.00,85.49
3257.00,85.56
3256.00,85.62
3255.00,85.68
3254.00,85.73
3253.00,85.80
3252.00,85.87
3251.00,85.95
3250.00,86.03
3249.00,86.13
3248.00,86.23
3247.00,86.32
3246.00,86.40
3245.00,86.46
3244.00,86.51
3243.00,86.56
3242.00,86.61
3241.00,86.66
3240.00,86.71
3239.00,86.77
3238.00,86.83
3237.00,86.88
3236.00,86.94
3235.00,87.00
3234.00,87.07
3233.00,87.13
3232.00,87.19
3231.00,87.25
3230.00,87.31
3229.00,87.38
3228.00,87.44
3227.00,87.50
3226.00,87.55
3225.00,87.58
3224.00,87.62
3223.00,87.67
3222.00,87.74
3221.00,87.83
3220.00,87.94
3219.00,88.04
3218.00,88.13
3217.00,88.20
3216.00,88.24
3215.00,88.27
3214.00,88.30
3213.00,88.34
3212.00,88.39
3211.00,88.45
3210.00,88.52
3209.00,88.59
3208.00,88.64
3207.00,88.68
3206.00,88.71
3205.00,88.73
3204.00,88.77
3203.00,88.81
3202.00,88.87
3201.00,88.93
3200.00,89.00
3199.00,89.06
3198.00,89.12
3197.00,89.18
3196.00,89.23
3195.00,89.28
3194.00,89.33
3193.00,89.38
3192.00,89.43
3191.00,89.47
3190.00,89.52
3189.00,89.58
3188.00,89.64
3187.00,89.70
3186.00,89.76
3185.00,89.81
3184.00,89.87
3183.00,89.91
3182.00,89.94
3181.00,89.97
3180.00,90.00
3179.00,90.04
3178.00,90.10
3177.00,90.17
3176.00,90.23
3175.00,90.28
3174.00,90.32
3173.00,90.36
3172.00,90.39
3171.00,90.42
3170.00,90.46
3169.00,90.50
3168.00,90.57
3167.00,90.63
3166.00,90.68
3165.00,90.70
3164.00,90.72
3163.00,90.75
3162.00,90.79
3161.00,90.84
3160.00,90.89
3159.00,90.95
3158.00,91.00
3157.00,91.05
3156.00,91.08
3155.00,91.11
3154.00,91.14
3153.00,91.17
3152.00,91.20
3151.00,91.24
3150.00,91.29
3149.00,91.34
3148.00,91.40
3147.00,91.45
3146.00,91.49
3145.00,91.52
3144.00,91.56
3143.00,91.61
3142.00,91.66
3141.00,91.70
3140.00,91.71
3139.00,91.72
3138.00,91.74
3137.00,91.79
3136.00,91.84
3135.00,91.88
3134.00,91.91
3133.00,91.93
3132.00,91.96
3131.00,91.99
3130.00,92.02
3129.00,92.06
3128.00,92.10
3127.00,92.14
3126.00,92.18
3125.00,92.22
3124.00,92.26
3123.00,92.28
3122.00,92.30
3121.00,92.32
3120.00,92.36
3119.00,92.40
3118.00,92.45
3117.00,92.48
3116.00,92.50
3115.00,92.51
3114.00,92.54
3113.00,92.57
3112.00,92.60
3111.00,92.64
3110.00,92.67
3109.00,92.70
3108.00,92.72
3107.00,92.75
3106.00,92.77
3105.00,92.80
3104.00,92.84
3103.00,92.90
3102.00,92.95
3101.00,93.00
3100.00,93.02
3099.00,93.05
3098.00,93.07
3097.00,93.09
3096.00,93.11
3095.00,93.13
3094.00,93.15
3093.00,93.19
3092.00,93.23
3091.00,93.27
3090.00,93.30
3089.00,93.33
3088.00,93.35
3087.00,93.38
3086.00,93.41
3085.00,93.44
3084.00,93.46
3083.00,93.48
3082.00,93.51
3081.00,93.55
3080.00,93.58
3079.00,93.61
3078.00,93.63
3077.00,93.64
3076.00,93.64
3075.00,93.66
3074.00,93.69
3073.00,93.73
3072.00,93.75
3071.00,93.77
3070.00,93.77
3069.00,93.79
3068.00,93.81
3067.00,93.84
3066.00,93.86
3065.00,93.88
3064.00,93.91
3063.00,93.93
3062.00,93.96
3061.00,93.99
3060.00,94.02
3059.00,94.04
3058.00,94.07
3057.00,94.09
3056.00,94.12
3055.00,94.15
3054.00,94.18
3053.00,94.21
3052.00,94.22
3051.00,94.23
3050.00,94.25
3049.00,94.26
3048.00,94.28
3047.00,94.30
3046.00,94.34
3045.00,94.38
3044.00,94.41
3043.00,94.44
3042.00,94.46
3041.00,94.48
3040.00,94.50
3039.00,94.52
3038.00,94.54
3037.00,94.55
3036.00,94.56
3035.00,94.56
3034.00,94.58
3033.00,94.60
3032.00,94.63
3031.00,94.65
3030.00,94.68
3029.00,94.70
3028.00,94.72
3027.00,94.74
3026.00,94.76
3025.00,94.77
3024.00,94.78
3023.00,94.79
3022.00,94.80
3021.00,94.83
3020.00,94.86
3019.00,94.88
3018.00,94.90
3017.00,94.92
3016.00,94.94
3015.00,94.96
3014.00,94.98
3013.00,94.99
3012.00,95.00
3011.00,95.01
3010.00,95.02
3009.00,95.03
3008.00,95.05
3007.00,95.06
3006.00,95.07
3005.00,95.07
3004.00,95.08
3003.00,95.09
3002.00,95.11
3001.00,95.13
3000.00,95.13
2999.00,95.13
2998.00,95.13
2997.00,95.14
2996.00,95.15
2995.00,95.16
2994.00,95.16
2993.00,95.16
2992.00,95.16
2991.00,95.17
2990.00,95.18
2989.00,95.18
2988.00,95.18
2987.00,95.17
2986.00,95.15
2985.00,95.12
2984.00,95.10
2983.00,95.09
2982.00,95.09
2981.00,95.09
2980.00,95.09
2979.00,95.07
2978.00,95.03
2977.00,94.99
2976.00,94.95
2975.00,94.90
2974.00,94.85
2973.00,94.80
2972.00,94.75
2971.00,94.70
2970.00,94.66
2969.00,94.63
2968.00,94.59
2967.00,94.56
2966.00,94.54
2965.00,94.54
2964.00,94.53
2963.00,94.52
2962.00,94.50
2961.00,94.47
2960.00,94.43
2959.00,94.40
2958.00,94.36
2957.00,94.32
2956.00,94.28
2955.00,94.24
2954.00,94.21
2953.00,94.17
2952.00,94.13
2951.00,94.07
2950.00,94.02
2949.00,93.96
2948.00,93.90
2947.00,93.85
2946.00,93.81
2945.00,93.77
2944.00,93.74
2943.00,93.71
2942.00,93.68
2941.00,93.65
2940.00,93.62
2939.00,93.59
2938.00,93.57
2937.00,93.54
2936.00,93.49
2935.00,93.45
2934.00,93.40
2933.00,93.35
2932.00,93.29
2931.00,93.22
2930.00,93.14
2929.00,93.05
2928.00,92.97
2927.00,92.89
2926.00,92.80
2925.00,92.71
2924.00,92.60
2923.00,92.47
2922.00,92.34
2921.00,92.19
2920.00,92.04
2919.00,91.90
2918.00,91.79
2917.00,91.73
2916.00,91.72
2915.00,91.73
2914.00,91.76
2913.00,91.79
2912.00,91.83
2911.00,91.86
2910.00,91.89
2909.00,91.90
2908.00,91.88
2907.00,91.85
2906.00,91.81
2905.00,91.77
2904.00,91.73
2903.00,91.69
2902.00,91.66
2901.00,91.66
2900.00,91.67
2899.00,91.70
2898.00,91.74
2897.00,91.77
2896.00,91.80
2895.00,91.82
2894.00,91.83
2893.00,91.85
2892.00,91.88
2891.00,91.91
2890.00,91.97
2889.00,92.03
2888.00,92.08
2887.00,92.12
2886.00,92.16
2885.00,92.20
2884.00,92.24
2883.00,92.29
2882.00,92.34
2881.00,92.39
2880.00,92.42
2879.00,92.45
2878.00,92.47
2877.00,92.50
2876.00,92.52
2875.00,92.53
2874.00,92.53
2873.00,92.54
2872.00,92.56
2871.00,92.59
2870.00,92.62
2869.00,92.65
2868.00,92.67
2867.00,92.69
2866.00,92.72
2865.00,92.75
2864.00,92.79
2863.00,92.81
2862.00,92.82
2861.00,92.83
2860.00,92.84
2859.00,92.84
2858.00,92.85
2857.00,92.85
2856.00,92.84
2855.00,92.82
2854.00,92.77
2853.00,92.71
2852.00,92.65
2851.00,92.61
2850.00,92.62
2849.00,92.70
2848.00,92.84
2847.00,93.01
2846.00,93.19
2845.00,93.35
2844.00,93.50
2843.00,93.63
2842.00,93.73
2841.00,93.81
2840.00,93.89
2839.00,93.95
2838.00,94.01
2837.00,94.07
2836.00,94.13
2835.00,94.19
2834.00,94.24
2833.00,94.28
2832.00,94.31
2831.00,94.34
2830.00,94.37
2829.00,94.40
2828.00,94.42
2827.00,94.46
2826.00,94.49
2825.00,94.53
2824.00,94.56
2823.00,94.59
2822.00,94.62
2821.00,94.65
2820.00,94.68
2819.00,94.70
2818.00,94.72
2817.00,94.74
2816.00,94.77
2815.00,94.81
2814.00,94.84
2813.00,94.86
2812.00,94.88
2811.00,94.91
2810.00,94.94
2809.00,94.96
2808.00,94.98
2807.00,94.98
2806.00,94.97
2805.00,94.98
2804.00,94.99
2803.00,95.02
2802.00,95.04
2801.00,95.07
2800.00,95.09
2799.00,95.10
2798.00,95.12
2797.00,95.14
2796.00,95.17
2795.00,95.19
2794.00,95.20
2793.00,95.20
2792.00,95.21
2791.00,95.22
2790.00,95.24
2789.00,95.26
2788.00,95.27
2787.00,95.27
2786.00,95.28
2785.00,95.28
2784.00,95.29
2783.00,95.30
2782.00,95.31
2781.00,95.32
2780.00,95.32
2779.00,95.34
2778.00,95.36
2777.00,95.38
2776.00,95.40
2775.00,95.40
2774.00,95.40
2773.00,95.40
2772.00,95.40
2771.00,95.41
2770.00,95.42
2769.00,95.42
2768.00,95.43
2767.00,95.43
2766.00,95.45
2765.00,95.47
2764.00,95.49
2763.00,95.50
2762.00,95.51
2761.00,95.51
2760.00,95.51
2759.00,95.51
2758.00,95.52
2757.00,95.53
2756.00,95.53
2755.00,95.52
2754.00,95.51
2753.00,95.51
2752.00,95.51
2751.00,95.51
2750.00,95.53
2749.00,95.54
2748.00,95.54
2747.00,95.53
2746.00,95.52
2745.00,95.52
2744.00,95.52
2743.00,95.53
2742.00,95.53
2741.00,95.54
2740.00,95.54
2739.00,95.55
2738.00,95.55
2737.00,95.55
2736.00,95.55
2735.00,95.55
2734.00,95.55
2733.00,95.55
2732.00,95.55
2731.00,95.56
2730.00,95.58
2729.00,95.59
2728.00,95.60
2727.00,95.61
2726.00,95.62
2725.00,95.62
2724.00,95.62
2723.00,95.61
2722.00,95.61
2721.00,95.61
2720.00,95.62
2719.00,95.63
2718.00,95.64
2717.00,95.65
2716.00,95.66
2715.00,95.68
2714.00,95.70
2713.00,95.71
2712.00,95.71
2711.00,95.71
2710.00,95.69
2709.00,95.69
2708.00,95.69
2707.00,95.71
2706.00,95.74
2705.00,95.76
2704.00,95.77
2703.00,95.77
2702.00,95.77
2701.00,95.78
2700.00,95.79
2699.00,95.80
2698.00,95.81
2697.00,95.81
2696.00,95.81
2695.00,95.82
2694.00,95.83
2693.00,95.84
2692.00,95.84
2691.00,95.84
2690.00,95.83
2689.00,95.83
2688.00,95.83
2687.00,95.84
2686.00,95.85
2685.00,95.86
2684.00,95.87
2683.00,95.88
2682.00,95.89
2681.00,95.91
2680.00,95.92
2679.00,95.94
2678.00,95.94
2677.00,95.95
2676.00,95.96
2675.00,95.96
2674.00,95.97
2673.00,95.97
2672.00,95.96
2671.00,95.96
2670.00,95.96
2669.00,95.97
2668.00,95.98
2667.00,96.00
2666.00,96.01
2665.00,96.01
2664.00,96.01
2663.00,96.00
2662.00,96.00
2661.00,96.01
2660.00,96.00
2659.00,96.00
2658.00,95.98
2657.00,95.96
2656.00,95.95
2655.00,95.94
2654.00,95.94
2653.00,95.96
2652.00,95.97
2651.00,95.98
2650.00,95.98
2649.00,95.97
2648.00,95.97
2647.00,95.96
2646.00,95.96
2645.00,95.95
2644.00,95.93
2643.00,95.91
2642.00,95.89
2641.00,95.87
2640.00,95.87
2639.00,95.88
2638.00,95.89
2637.00,95.89
2636.00,95.87
2635.00,95.85
2634.00,95.84
2633.00,95.83
2632.00,95.83
2631.00,95.82
2630.00,95.81
2629.00,95.80
2628.00,95.80
2627.00,95.81
2626.00,95.84
2625.00,95.85
2624.00,95.86
2623.00,95.86
2622.00,95.85
2621.00,95.83
2620.00,95.81
2619.00,95.79
2618.00,95.79
2617.00,95.79
2616.00,95.79
2615.00,95.80
2614.00,95.81
2613.00,95.83
2612.00,95.85
2611.00,95.85
2610.00,95.83
2609.00,95.80
2608.00,95.77
2607.00,95.78
2606.00,95.81
2605.00,95.83
2604.00,95.84
2603.00,95.83
2602.00,95.81
2601.00,95.80
2600.00,95.79
2599.00,95.78
2598.00,95.78
2597.00,95.78
2596.00,95.77
2595.00,95.75
2594.00,95.73
2593.00,95.72
2592.00,95.72
2591.00,95.73
2590.00,95.76
2589.00,95.78
2588.00,95.80
2587.00,95.79
2586.00,95.77
2585.00,95.74
2584.00,95.72
2583.00,95.72
2582.00,95.73
2581.00,95.74
2580.00,95.74
2579.00,95.74
2578.00,95.73
2577.00,95.72
2576.00,95.71
2575.00,95.71
2574.00,95.72
2573.00,95.72
2572.00,95.71
2571.00,95.70
2570.00,95.69
2569.00,95.69
2568.00,95.70
2567.00,95.71
2566.00,95.71
2565.00,95.71
2564.00,95.71
2563.00,95.72
2562.00,95.74
2561.00,95.76
2560.00,95.78
2559.00,95.78
2558.00,95.77
2557.00,95.76
2556.00,95.76
2555.00,95.76
2554.00,95.75
2553.00,95.74
2552.00,95.72
2551.00,95.70
2550.00,95.70
2549.00,95.72
2548.00,95.74
2547.00,95.77
2546.00,95.78
2545.00,95.76
2544.00,95.74
2543.00,95.74
2542.00,95.75
2541.00,95.75
2540.00,95.74
2539.00,95.73
2538.00,95.72
2537.00,95.73
2536.00,95.74
2535.00,95.76
2534.00,95.77
2533.00,95.78
2532.00,95.78
2531.00,95.77
2530.00,95.75
2529.00,95.73
2528.00,95.71
2527.00,95.69
2526.00,95.68
2525.00,95.69
2524.00,95.71
2523.00,95.72
2522.00,95.73
2521.00,95.72
2520.00,95.71
2519.00,95.71
2518.00,95.71
2517.00,95.72
2516.00,95.73
2515.00,95.73
2514.00,95.74
2513.00,95.75
2512.00,95.76
2511.00,95.77
2510.00,95.76
2509.00,95.76
2508.00,95.76
2507.00,95.76
2506.00,95.77
2505.00,95.78
2504.00,95.79
2503.00,95.82
2502.00,95.85
2501.00,95.87
2500.00,95.88
2499.00,95.87
2498.00,95.84
2497.00,95.83
2496.00,95.83
2495.00,95.85
2494.00,95.87
2493.00,95.88
2492.00,95.89
2491.00,95.91
2490.00,95.91
2489.00,95.91
2488.00,95.89
2487.00,95.89
2486.00,95.90
2485.00,95.91
2484.00,95.91
2483.00,95.91
2482.00,95.92
2481.00,95.94
2480.00,95.95
2479.00,95.95
2478.00,95.93
2477.00,95.90
2476.00,95.88
2475.00,95.88
2474.00,95.90
2473.00,95.92
2472.00,95.95
2471.00,95.96
2470.00,95.98
2469.00,96.00
2468.00,96.01
2467.00,96.01
2466.00,96.01
2465.00,96.01
2464.00,96.01
2463.00,96.01
2462.00,96.00
2461.00,95.99
2460.00,95.98
2459.00,95.99
2458.00,96.01
2457.00,96.03
2456.00,96.04
2455.00,96.04
2454.00,96.04
2453.00,96.04
2452.00,96.03
2451.00,96.01
2450.00,96.00
2449.00,95.99
2448.00,96.00
2447.00,96.02
2446.00,96.05
2445.00,96.08
2444.00,96.09
2443.00,96.09
2442.00,96.09
2441.00,96.08
2440.00,96.08
2439.00,96.07
2438.00,96.06
2437.00,96.06
2436.00,96.08
2435.00,96.09
2434.00,96.10
2433.00,96.11
2432.00,96.12
2431.00,96.14
2430.00,96.16
2429.00,96.16
2428.00,96.14
2427.00,96.12
2426.00,96.12
2425.00,96.12
2424.00,96.14
2423.00,96.15
2422.00,96.16
2421.00,96.18
2420.00,96.19
2419.00,96.21
2418.00,96.22
2417.00,96.22
2416.00,96.20
2415.00,96.18
2414.00,96.17
2413.00,96.17
2412.00,96.17
2411.00,96.17
2410.00,96.18
2409.00,96.20
2408.00,96.23
2407.00,96.27
2406.00,96.30
2405.00,96.32
2404.00,96.33
2403.00,96.32
2402.00,96.31
2401.00,96.31
2400.00,96.32
2399.00,96.33
2398.00,96.34
2397.00,96.35
2396.00,96.36
2395.00,96.37
2394.00,96.39
2393.00,96.39
2392.00,96.40
2391.00,96.42
2390.00,96.43
2389.00,96.45
2388.00,96.45
2387.00,96.44
2386.00,96.44
2385.00,96.44
2384.00,96.47
2383.00,96.50
2382.00,96.54
2381.00,96.56
2380.00,96.56
2379.00,96.57
2378.00,96.59
2377.00,96.61
2376.00,96.61
2375.00,96.60
2374.00,96.58
2373.00,96.56
2372.00,96.57
2371.00,96.60
2370.00,96.63
2369.00,96.66
2368.00,96.67
2367.00,96.67
2366.00,96.66
2365.00,96.64
2364.00,96.61
2363.00,96.58
2362.00,96.57
2361.00,96.61
2360.00,96.67
2359.00,96.74
2358.00,96.77
2357.00,96.76
2356.00,96.74
2355.00,96.73
2354.00,96.72
2353.00,96.69
2352.00,96.63
2351.00,96.56
2350.00,96.56
2349.00,96.64
2348.00,96.78
2347.00,96.89
2346.00,96.92
2345.00,96.87
2344.00,96.80
2343.00,96.73
2342.00,96.67
2341.00,96.63
2340.00,96.62
2339.00,96.64
2338.00,96.67
2337.00,96.68
2336.00,96.68
2335.00,96.66
2334.00,96.65
2333.00,96.65
2332.00,96.65
2331.00,96.66
2330.00,96.65
2329.00,96.64
2328.00,96.60
2327.00,96.56
2326.00,96.51
2325.00,96.48
2324.00,96.45
2323.00,96.45
2322.00,96.46
2321.00,96.47
2320.00,96.46
2319.00,96.44
2318.00,96.40
2317.00,96.36
2316.00,96.36
2315.00,96.38
2314.00,96.41
2313.00,96.42
2312.00,96.41
2311.00,96.38
2310.00,96.34
2309.00,96.32
2308.00,96.30
2307.00,96.28
2306.00,96.26
2305.00,96.25
2304.00,96.24
2303.00,96.22
2302.00,96.21
2301.00,96.20
2300.00,96.18
2299.00,96.18
2298.00,96.20
2297.00,96.22
2296.00,96.23
2295.00,96.22
2294.00,96.19
2293.00,96.14
2292.00,96.09
2291.00,96.04
2290.00,96.00
2289.00,95.96
2288.00,95.93
2287.00,95.93
2286.00,95.92
2285.00,95.91
2284.00,95.90
2283.00,95.89
2282.00,95.89
2281.00,95.89
2280.00,95.87
2279.00,95.84
2278.00,95.81
2277.00,95.79
2276.00,95.78
2275.00,95.77
2274.00,95.74
2273.00,95.69
2272.00,95.65
2271.00,95.62
2270.00,95.61
2269.00,95.61
2268.00,95.60
2267.00,95.60
2266.00,95.59
2265.00,95.58
2264.00,95.55
2263.00,95.52
2262.00,95.47
2261.00,95.43
2260.00,95.41
2259.00,95.40
2258.00,95.42
2257.00,95.43
2256.00,95.44
2255.00,95.44
2254.00,95.44
2253.00,95.45
2252.00,95.47
2251.00,95.49
2250.00,95.48
2249.00,95.44
2248.00,95.37
2247.00,95.33
2246.00,95.31
2245.00,95.30
2244.00,95.30
2243.00,95.31
2242.00,95.32
2241.00,95.32
2240.00,95.31
2239.00,95.27
2238.00,95.23
2237.00,95.21
2236.00,95.20
2235.00,95.19
2234.00,95.19
2233.00,95.18
2232.00,95.16
2231.00,95.12
2230.00,95.09
2229.00,95.05
2228.00,95.03
2227.00,95.04
2226.00,95.05
2225.00,95.05
2224.00,95.03
2223.00,94.98
2222.00,94.94
2221.00,94.92
2220.00,94.92
2219.00,94.92
2218.00,94.92
2217.00,94.92
2216.00,94.93
2215.00,94.92
2214.00,94.93
2213.00,94.94
2212.00,94.95
2211.00,94.95
2210.00,94.93
2209.00,94.89
2208.00,94.83
2207.00,94.75
2206.00,94.69
2205.00,94.67
2204.00,94.70
2203.00,94.73
2202.00,94.73
2201.00,94.70
2200.00,94.66
2199.00,94.64
2198.00,94.65
2197.00,94.66
2196.00,94.63
2195.00,94.59
2194.00,94.55
2193.00,94.51
2192.00,94.50
2191.00,94.51
2190.00,94.54
2189.00,94.58
2188.00,94.58
2187.00,94.54
2186.00,94.45
2185.00,94.34
2184.00,94.27
2183.00,94.24
2182.00,94.28
2181.00,94.33
2180.00,94.37
2179.00,94.39
2178.00,94.39
2177.00,94.38
2176.00,94.35
2175.00,94.34
2174.00,94.33
2173.00,94.32
2172.00,94.28
2171.00,94.22
2170.00,94.15
2169.00,94.10
2168.00,94.03
2167.00,93.96
2166.00,93.90
2165.00,93.85
2164.00,93.80
2163.00,93.72
2162.00,93.64
2161.00,93.61
2160.00,93.68
2159.00,93.82
2158.00,93.99
2157.00,94.11
2156.00,94.21
2155.00,94.32
2154.00,94.43
2153.00,94.50
2152.00,94.50
2151.00,94.44
2150.00,94.38
2149.00,94.37
2148.00,94.44
2147.00,94.55
2146.00,94.65
2145.00,94.71
2144.00,94.74
2143.00,94.75
2142.00,94.76
2141.00,94.78
2140.00,94.81
2139.00,94.86
2138.00,94.93
2137.00,95.01
2136.00,95.11
2135.00,95.20
2134.00,95.27
2133.00,95.30
2132.00,95.31
2131.00,95.32
2130.00,95.35
2129.00,95.40
2128.00,95.44
2127.00,95.46
2126.00,95.49
2125.00,95.52
2124.00,95.55
2123.00,95.57
2122.00,95.58
2121.00,95.56
2120.00,95.55
2119.00,95.55
2118.00,95.55
2117.00,95.53
2116.00,95.51
2115.00,95.49
2114.00,95.48
2113.00,95.47
2112.00,95.45
2111.00,95.44
2110.00,95.43
2109.00,95.42
2108.00,95.42
2107.00,95.41
2106.00,95.40
2105.00,95.39
2104.00,95.38
2103.00,95.38
2102.00,95.39
2101.00,95.42
2100.00,95.44
2099.00,95.44
2098.00,95.42
2097.00,95.41
2096.00,95.41
2095.00,95.42
2094.00,95.43
2093.00,95.44
2092.00,95.46
2091.00,95.48
2090.00,95.48
2089.00,95.45
2088.00,95.41
2087.00,95.39
2086.00,95.40
2085.00,95.43
2084.00,95.44
2083.00,95.42
2082.00,95.39
2081.00,95.37
2080.00,95.37
2079.00,95.38
2078.00,95.40
2077.00,95.41
2076.00,95.41
2075.00,95.39
2074.00,95.37
2073.00,95.36
2072.00,95.35
2071.00,95.36
2070.00,95.36
2069.00,95.36
2068.00,95.34
2067.00,95.32
2066.00,95.30
2065.00,95.28
2064.00,95.27
2063.00,95.24
2062.00,95.21
2061.00,95.17
2060.00,95.15
2059.00,95.14
2058.00,95.15
2057.00,95.16
2056.00,95.17
2055.00,95.17
2054.00,95.15
2053.00,95.09
2052.00,94.98
2051.00,94.85
2050.00,94.74
2049.00,94.66
2048.00,94.62
2047.00,94.58
2046.00,94.55
2045.00,94.52
2044.00,94.49
2043.00,94.47
2042.00,94.45
2041.00,94.42
2040.00,94.38
2039.00,94.31
2038.00,94.25
2037.00,94.20
2036.00,94.16
2035.00,94.14
2034.00,94.15
2033.00,94.19
2032.00,94.21
2031.00,94.22
2030.00,94.23
2029.00,94.28
2028.00,94.35
2027.00,94.40
2026.00,94.41
2025.00,94.41
2024.00,94.44
2023.00,94.48
2022.00,94.50
2021.00,94.49
2020.00,94.48
2019.00,94.48
2018.00,94.47
2017.00,94.46
2016.00,94.45
2015.00,94.42
2014.00,94.39
2013.00,94.37
2012.00,94.37
2011.00,94.41
2010.00,94.49
2009.00,94.58
2008.00,94.65
2007.00,94.71
2006.00,94.74
2005.00,94.77
2004.00,94.81
2003.00,94.85
2002.00,94.89
2001.00,94.90
2000.00,94.89
1999.00,94.87
1998.00,94.87
1997.00,94.88
1996.00,94.89
1995.00,94.89
1994.00,94.88
1993.00,94.89
1992.00,94.93
1991.00,94.99
1990.00,95.01
1989.00,94.98
1988.00,94.92
1987.00,94.86
1986.00,94.80
1985.00,94.74
1984.00,94.70
1983.00,94.69
1982.00,94.67
1981.00,94.61
1980.00,94.52
1979.00,94.46
1978.00,94.47
1977.00,94.55
1976.00,94.63
1975.00,94.69
1974.00,94.73
1973.00,94.74
1972.00,94.74
1971.00,94.76
1970.00,94.79
1969.00,94.83
1968.00,94.85
1967.00,94.86
1966.00,94.90
1965.00,94.97
1964.00,95.05
1963.00,95.10
1962.00,95.12
1961.00,95.10
1960.00,95.05
1959.00,95.03
1958.00,95.06
1957.00,95.12
1956.00,95.19
1955.00,95.27
1954.00,95.33
1953.00,95.38
1952.00,95.42
1951.00,95.47
1950.00,95.51
1949.00,95.56
1948.00,95.58
1947.00,95.59
1946.00,95.59
1945.00,95.60
1944.00,95.63
1943.00,95.69
1942.00,95.77
1941.00,95.84
1940.00,95.87
1939.00,95.87
1938.00,95.85
1937.00,95.84
1936.00,95.85
1935.00,95.88
1934.00,95.90
1933.00,95.90
1932.00,95.88
1931.00,95.86
1930.00,95.85
1929.00,95.86
1928.00,95.89
1927.00,95.94
1926.00,96.02
1925.00,96.08
1924.00,96.12
1923.00,96.11
1922.00,96.09
1921.00,96.06
1920.00,96.04
1919.00,96.05
1918.00,96.08
1917.00,96.14
1916.00,96.20
1915.00,96.23
1914.00,96.23
1913.00,96.19
1912.00,96.16
1911.00,96.16
1910.00,96.18
1909.00,96.21
1908.00,96.23
1907.00,96.25
1906.00,96.26
1905.00,96.28
1904.00,96.29
1903.00,96.30
1902.00,96.32
1901.00,96.35
1900.00,96.36
1899.00,96.36
1898.00,96.34
1897.00,96.34
1896.00,96.35
1895.00,96.38
1894.00,96.39
1893.00,96.38
1892.00,96.38
1891.00,96.40
1890.00,96.44
1889.00,96.48
1888.00,96.51
1887.00,96.52
1886.00,96.51
1885.00,96.50
1884.00,96.47
1883.00,96.45
1882.00,96.43
1881.00,96.43
1880.00,96.45
1879.00,96.49
1878.00,96.53
1877.00,96.55
1876.00,96.55
1875.00,96.54
1874.00,96.54
1873.00,96.53
1872.00,96.52
1871.00,96.51
1870.00,96.52
1869.00,96.54
1868.00,96.57
1867.00,96.58
1866.00,96.57
1865.00,96.56
1864.00,96.56
1863.00,96.58
1862.00,96.60
1861.00,96.61
1860.00,96.61
1859.00,96.61
1858.00,96.62
1857.00,96.63
1856.00,96.63
1855.00,96.63
1854.00,96.65
1853.00,96.69
1852.00,96.72
1851.00,96.74
1850.00,96.75
1849.00,96.75
1848.00,96.75
1847.00,96.74
1846.00,96.72
1845.00,96.72
1844.00,96.74
1843.00,96.76
1842.00,96.77
1841.00,96.78
1840.00,96.79
1839.00,96.81
1838.00,96.82
1837.00,96.81
1836.00,96.80
1835.00,96.79
1834.00,96.79
1833.00,96.80
1832.00,96.80
1831.00,96.80
1830.00,96.80
1829.00,96.80
1828.00,96.80
1827.00,96.80
1826.00,96.81
1825.00,96.82
1824.00,96.83
1823.00,96.84
1822.00,96.85
1821.00,96.85
1820.00,96.85
1819.00,96.84
1818.00,96.85
1817.00,96.87
1816.00,96.89
1815.00,96.90
1814.00,96.89
1813.00,96.89
1812.00,96.88
1811.00,96.88
1810.00,96.89
1809.00,96.89
1808.00,96.89
1807.00,96.90
1806.00,96.91
1805.00,96.92
1804.00,96.91
1803.00,96.90
1802.00,96.90
1801.00,96.91
1800.00,96.92
1799.00,96.92
1798.00,96.91
1797.00,96.91
1796.00,96.91
1795.00,96.91
1794.00,96.91
1793.00,96.90
1792.00,96.89
1791.00,96.90
1790.00,96.91
1789.00,96.93
1788.00,96.93
1787.00,96.91
1786.00,96.89
1785.00,96.87
1784.00,96.87
1783.00,96.86
1782.00,96.84
1781.00,96.83
1780.00,96.82
1779.00,96.82
1778.00,96.82
1777.00,96.83
1776.00,96.84
1775.00,96.84
1774.00,96.84
1773.00,96.81
1772.00,96.77
1771.00,96.73
1770.00,96.72
1769.00,96.71
1768.00,96.70
1767.00,96.70
1766.00,96.70
1765.00,96.69
1764.00,96.67
1763.00,96.64
1762.00,96.62
1761.00,96.61
1760.00,96.60
1759.00,96.58
1758.00,96.56
1757.00,96.54
1756.00,96.53
1755.00,96.51
1754.00,96.48
1753.00,96.45
1752.00,96.42
1751.00,96.40
1750.00,96.39
1749.00,96.37
1748.00,96.33
1747.00,96.29
1746.00,96.25
1745.00,96.20
1744.00,96.17
1743.00,96.16
1742.00,96.16
1741.00,96.15
1740.00,96.11
1739.00,96.06
1738.00,96.03
1737.00,95.98
1736.00,95.92
1735.00,95.88
1734.00,95.86
1733.00,95.87
1732.00,95.87
1731.00,95.86
1730.00,95.85
1729.00,95.83
1728.00,95.82
1727.00,95.81
1726.00,95.82
1725.00,95.82
1724.00,95.81
1723.00,95.81
1722.00,95.80
1721.00,95.80
1720.00,95.79
1719.00,95.78
1718.00,95.77
1717.00,95.75
1716.00,95.71
1715.00,95.68
1714.00,95.67
1713.00,95.66
1712.00,95.66
1711.00,95.65
1710.00,95.64
1709.00,95.65
1708.00,95.65
1707.00,95.65
1706.00,95.65
1705.00,95.65
1704.00,95.65
1703.00,95.64
1702.00,95.63
1701.00,95.63
1700.00,95.63
1699.00,95.62
1698.00,95.60
1697.00,95.56
1696.00,95.50
1695.00,95.46
1694.00,95.42
1693.00,95.39
1692.00,95.37
1691.00,95.35
1690.00,95.33
1689.00,95.32
1688.00,95.29
1687.00,95.26
1686.00,95.22
1685.00,95.16
1684.00,95.08
1683.00,95.01
1682.00,94.96
1681.00,94.93
1680.00,94.89
1679.00,94.85
1678.00,94.81
1677.00,94.75
1676.00,94.69
1675.00,94.64
1674.00,94.60
1673.00,94.56
1672.00,94.51
1671.00,94.46
1670.00,94.38
1669.00,94.30
1668.00,94.23
1667.00,94.19
1666.00,94.15
1665.00,94.10
1664.00,94.02
1663.00,93.93
1662.00,93.85
1661.00,93.79
1660.00,93.74
1659.00,93.69
1658.00,93.65
1657.00,93.62
1656.00,93.58
1655.00,93.53
1654.00,93.44
1653.00,93.33
1652.00,93.27
1651.00,93.26
1650.00,93.25
1649.00,93.23
1648.00,93.18
1647.00,93.09
1646.00,93.00
1645.00,92.94
1644.00,92.90
1643.00,92.87
1642.00,92.85
1641.00,92.81
1640.00,92.78
1639.00,92.75
1638.00,92.72
1637.00,92.67
1636.00,92.58
1635.00,92.50
1634.00,92.45
1633.00,92.43
1632.00,92.41
1631.00,92.39
1630.00,92.37
1629.00,92.35
1628.00,92.33
1627.00,92.31
1626.00,92.31
1625.00,92.30
1624.00,92.29
1623.00,92.27
1622.00,92.25
1621.00,92.25
1620.00,92.24
1619.00,92.24
1618.00,92.25
1617.00,92.26
1616.00,92.25
1615.00,92.23
1614.00,92.22
1613.00,92.22
1612.00,92.23
1611.00,92.26
1610.00,92.29
1609.00,92.32
1608.00,92.35
1607.00,92.39
1606.00,92.44
1605.00,92.48
1604.00,92.52
1603.00,92.56
1602.00,92.60
1601.00,92.64
1600.00,92.67
1599.00,92.72
1598.00,92.78
1597.00,92.84
1596.00,92.91
1595.00,92.98
1594.00,93.05
1593.00,93.12
1592.00,93.18
1591.00,93.24
1590.00,93.29
1589.00,93.34
1588.00,93.41
1587.00,93.48
1586.00,93.54
1585.00,93.60
1584.00,93.64
1583.00,93.68
1582.00,93.74
1581.00,93.80
1580.00,93.87
1579.00,93.93
1578.00,93.98
1577.00,94.02
1576.00,94.06
1575.00,94.10
1574.00,94.16
1573.00,94.21
1572.00,94.25
1571.00,94.30
1570.00,94.35
1569.00,94.41
1568.00,94.47
1567.00,94.53
1566.00,94.58
1565.00,94.63
1564.00,94.66
1563.00,94.69
1562.00,94.71
1561.00,94.75
1560.00,94.81
1559.00,94.85
1558.00,94.85
1557.00,94.84
1556.00,94.83
1555.00,94.83
1554.00,94.84
1553.00,94.85
1552.00,94.86
1551.00,94.86
1550.00,94.89
1549.00,94.93
1548.00,94.96
1547.00,94.98
1546.00,94.99
1545.00,94.99
1544.00,94.99
1543.00,94.97
1542.00,94.98
1541.00,95.01
1540.00,95.05
1539.00,95.08
1538.00,95.10
1537.00,95.11
1536.00,95.10
1535.00,95.10
1534.00,95.12
1533.00,95.15
1532.00,95.19
1531.00,95.22
1530.00,95.25
1529.00,95.26
1528.00,95.28
1527.00,95.30
1526.00,95.34
1525.00,95.37
1524.00,95.39
1523.00,95.37
1522.00,95.35
1521.00,95.34
1520.00,95.35
1519.00,95.38
1518.00,95.40
1517.00,95.40
1516.00,95.39
1515.00,95.40
1514.00,95.41
1513.00,95.43
1512.00,95.45
1511.00,95.48
1510.00,95.51
1509.00,95.53
1508.00,95.56
1507.00,95.56
1506.00,95.55
1505.00,95.55
1504.00,95.56
1503.00,95.56
1502.00,95.57
1501.00,95.56
1500.00,95.55
1499.00,95.55
1498.00,95.56
1497.00,95.56
1496.00,95.56
1495.00,95.55
1494.00,95.53
1493.00,95.49
1492.00,95.43
1491.00,95.37
1490.00,95.30
1489.00,95.24
1488.00,95.17
1487.00,95.09
1486.00,95.02
1485.00,94.93
1484.00,94.84
1483.00,94.74
1482.00,94.65
1481.00,94.57
1480.00,94.51
1479.00,94.46
1478.00,94.40
1477.00,94.35
1476.00,94.27
1475.00,94.19
1474.00,94.10
1473.00,93.99
1472.00,93.87
1471.00,93.79
1470.00,93.72
1469.00,93.64
1468.00,93.54
1467.00,93.43
1466.00,93.30
1465.00,93.15
1464.00,93.01
1463.00,92.89
1462.00,92.81
1461.00,92.73
1460.00,92.64
1459.00,92.52
1458.00,92.36
1457.00,92.17
1456.00,92.03
1455.00,91.96
1454.00,91.90
1453.00,91.86
1452.00,91.81
1451.00,91.76
1450.00,91.71
1449.00,91.66
1448.00,91.63
1447.00,91.62
1446.00,91.62
1445.00,91.59
1444.00,91.56
1443.00,91.52
1442.00,91.48
1441.00,91.43
1440.00,91.37
1439.00,91.29
1438.00,91.16
1437.00,90.99
1436.00,90.82
1435.00,90.69
1434.00,90.57
1433.00,90.44
1432.00,90.30
1431.00,90.17
1430.00,90.06
1429.00,89.99
1428.00,89.95
1427.00,89.95
1426.00,89.97
1425.00,90.01
1424.00,90.07
1423.00,90.16
1422.00,90.26
1421.00,90.36
1420.00,90.50
1419.00,90.68
1418.00,90.86
1417.00,91.00
1416.00,91.13
1415.00,91.24
1414.00,91.34
1413.00,91.42
1412.00,91.50
1411.00,91.57
1410.00,91.64
1409.00,91.69
1408.00,91.73
1407.00,91.76
1406.00,91.78
1405.00,91.82
1404.00,91.86
1403.00,91.91
1402.00,91.93
1401.00,91.94
1400.00,91.96
1399.00,91.98
1398.00,92.01
1397.00,92.04
1396.00,92.06
1395.00,92.07
1394.00,92.08
1393.00,92.09
1392.00,92.09
1391.00,92.07
1390.00,92.03
1389.00,91.95
1388.00,91.86
1387.00,91.76
1386.00,91.65
1385.00,91.53
1384.00,91.40
1383.00,91.24
1382.00,91.06
1381.00,90.87
1380.00,90.67
1379.00,90.46
1378.00,90.25
1377.00,90.04
1376.00,89.82
1375.00,89.58
1374.00,89.34
1373.00,89.12
1372.00,88.96
1371.00,88.86
1370.00,88.81
1369.00,88.79
1368.00,88.80
1367.00,88.82
1366.00,88.83
1365.00,88.83
1364.00,88.81
1363.00,88.78
1362.00,88.76
1361.00,88.76
1360.00,88.80
1359.00,88.86
1358.00,88.91
1357.00,88.97
1356.00,89.02
1355.00,89.09
1354.00,89.16
1353.00,89.25
1352.00,89.34
1351.00,89.42
1350.00,89.49
1349.00,89.52
1348.00,89.49
1347.00,89.41
1346.00,89.29
1345.00,89.13
1344.00,88.96
1343.00,88.79
1342.00,88.61
1341.00,88.42
1340.00,88.23
1339.00,88.06
1338.00,87.91
1337.00,87.80
1336.00,87.73
1335.00,87.70
1334.00,87.73
1333.00,87.80
1332.00,87.90
1331.00,88.03
1330.00,88.14
1329.00,88.23
1328.00,88.27
1327.00,88.26
1326.00,88.20
1325.00,88.10
1324.00,87.97
1323.00,87.80
1322.00,87.60
1321.00,87.37
1320.00,87.12
1319.00,86.86
1318.00,86.64
1317.00,86.47
1316.00,86.36
1315.00,86.32
1314.00,86.37
1313.00,86.47
1312.00,86.64
1311.00,86.85
1310.00,87.09
1309.00,87.35
1308.00,87.62
1307.00,87.90
1306.00,88.19
1305.00,88.48
1304.00,88.75
1303.00,89.03
1302.00,89.28
1301.00,89.51
1300.00,89.70
1299.00,89.86
1298.00,90.00
1297.00,90.12
1296.00,90.22
1295.00,90.29
1294.00,90.33
1293.00,90.36
1292.00,90.38
1291.00,90.42
1290.00,90.45
1289.00,90.48
1288.00,90.48
1287.00,90.47
1286.00,90.42
1285.00,90.34
1284.00,90.24
1283.00,90.15
1282.00,90.08
1281.00,90.04
1280.00,90.04
1279.00,90.07
1278.00,90.12
1277.00,90.17
1276.00,90.23
1275.00,90.29
1274.00,90.37
1273.00,90.46
1272.00,90.54
1271.00,90.62
1270.00,90.69
1269.00,90.76
1268.00,90.82
1267.00,90.86
1266.00,90.90
1265.00,90.94
1264.00,90.98
1263.00,91.02
1262.00,91.05
1261.00,91.09
1260.00,91.12
1259.00,91.17
1258.00,91.22
1257.00,91.26
1256.00,91.29
1255.00,91.29
1254.00,91.27
1253.00,91.24
1252.00,91.19
1251.00,91.15
1250.00,91.13
1249.00,91.12
1248.00,91.13
1247.00,91.15
1246.00,91.19
1245.00,91.25
1244.00,91.30
1243.00,91.36
1242.00,91.40
1241.00,91.42
1240.00,91.43
1239.00,91.44
1238.00,91.44
1237.00,91.44
1236.00,91.44
1235.00,91.46
1234.00,91.50
1233.00,91.57
1232.00,91.66
1231.00,91.78
1230.00,91.90
1229.00,92.02
1228.00,92.15
1227.00,92.29
1226.00,92.42
1225.00,92.55
1224.00,92.66
1223.00,92.77
1222.00,92.88
1221.00,92.97
1220.00,93.06
1219.00,93.12
1218.00,93.17
1217.00,93.20
1216.00,93.21
1215.00,93.20
1214.00,93.15
1213.00,93.06
1212.00,92.93
1211.00,92.75
1210.00,92.53
1209.00,92.27
1208.00,92.02
1207.00,91.82
1206.00,91.68
1205.00,91.61
1204.00,91.58
1203.00,91.60
1202.00,91.64
1201.00,91.70
1200.00,91.78
1199.00,91.89
1198.00,92.01
1197.00,92.14
1196.00,92.29
1195.00,92.44
1194.00,92.61
1193.00,92.76
1192.00,92.90
1191.00,93.02
1190.00,93.12
1189.00,93.20
1188.00,93.25
1187.00,93.27
1186.00,93.26
1185.00,93.21
1184.00,93.13
1183.00,93.03
1182.00,92.91
1181.00,92.79
1180.00,92.67
1179.00,92.53
1178.00,92.34
1177.00,92.10
1176.00,91.82
1175.00,91.49
1174.00,91.12
1173.00,90.68
1172.00,90.18
1171.00,89.62
1170.00,89.01
1169.00,88.37
1168.00,87.70
1167.00,87.02
1166.00,86.36
1165.00,85.75
1164.00,85.23
1163.00,84.81
1162.00,84.53
1161.00,84.36
1160.00,84.28
1159.00,84.28
1158.00,84.34
1157.00,84.45
1156.00,84.59
1155.00,84.77
1154.00,84.97
1153.00,85.17
1152.00,85.35
1151.00,85.54
1150.00,85.73
1149.00,85.91
1148.00,86.10
1147.00,86.32
1146.00,86.55
1145.00,86.80
1144.00,87.06
1143.00,87.31
1142.00,87.56
1141.00,87.78
1140.00,87.95
1139.00,88.05
1138.00,88.07
1137.00,88.02
1136.00,87.89
1135.00,87.72
1134.00,87.51
1133.00,87.29
1132.00,87.05
1131.00,86.79
1130.00,86.47
1129.00,86.09
1128.00,85.65
1127.00,85.19
1126.00,84.72
1125.00,84.27
1124.00,83.85
1123.00,83.46
1122.00,83.08
1121.00,82.67
1120.00,82.22
1119.00,81.72
1118.00,81.16
1117.00,80.53
1116.00,79.82
1115.00,79.09
1114.00,78.38
1113.00,77.74
1112.00,77.21
1111.00,76.81
1110.00,76.53
1109.00,76.35
1108.00,76.23
1107.00,76.17
1106.00,76.13
1105.00,76.10
1104.00,76.10
1103.00,76.19
1102.00,76.36
1101.00,76.56
1100.00,76.78
1099.00,77.02
1098.00,77.30
1097.00,77.59
1096.00,77.90
1095.00,78.20
1094.00,78.49
1093.00,78.75
1092.00,78.97
1091.00,79.15
1090.00,79.29
1089.00,79.40
1088.00,79.48
1087.00,79.54
1086.00,79.60
1085.00,79.62
1084.00,79.62
1083.00,79.58
1082.00,79.48
1081.00,79.28
1080.00,78.98
1079.00,78.63
1078.00,78.27
1077.00,77.93
1076.00,77.60
1075.00,77.31
1074.00,77.01
1073.00,76.69
1072.00,76.34
1071.00,75.95
1070.00,75.50
1069.00,74.96
1068.00,74.33
1067.00,73.62
1066.00,72.86
1065.00,72.03
1064.00,71.12
1063.00,70.18
1062.00,69.24
1061.00,68.35
1060.00,67.55
1059.00,66.90
1058.00,66.41
1057.00,66.03
1056.00,65.74
1055.00,65.53
1054.00,65.42
1053.00,65.37
1052.00,65.39
1051.00,65.50
1050.00,65.70
1049.00,65.99
1048.00,66.33
1047.00,66.71
1046.00,67.10
1045.00,67.43
1044.00,67.66
1043.00,67.80
1042.00,67.83
1041.00,67.73
1040.00,67.49
1039.00,67.14
1038.00,66.70
1037.00,66.19
1036.00,65.66
1035.00,65.16
1034.00,64.72
1033.00,64.36
1032.00,64.10
1031.00,63.95
1030.00,63.92
1029.00,63.95
1028.00,64.03
1027.00,64.15
1026.00,64.32
1025.00,64.50
1024.00,64.69
1023.00,64.90
1022.00,65.12
1021.00,65.31
1020.00,65.47
1019.00,65.63
1018.00,65.79
1017.00,65.94
1016.00,66.08
1015.00,66.20
1014.00,66.31
1013.00,66.39
1012.00,66.47
1011.00,66.55
1010.00,66.64
1009.00,66.72
1008.00,66.76
1007.00,66.77
1006.00,66.78
1005.00,66.76
1004.00,66.73
1003.00,66.72
1002.00,66.74
1001.00,66.78
1000.00,66.85
999.00,66.95
998.00,67.08
997.00,67.24
996.00,67.41
995.00,67.61
994.00,67.83
993.00,68.01
992.00,68.15
991.00,68.25
990.00,68.33
989.00,68.37
988.00,68.36
987.00,68.33
986.00,68.32
985.00,68.38
984.00,68.54
983.00,68.85
982.00,69.28
981.00,69.80
980.00,70.38
979.00,71.00
978.00,71.65
977.00,72.30
976.00,72.93
975.00,73.55
974.00,74.12
973.00,74.63
972.00,75.08
971.00,75.51
970.00,75.92
969.00,76.31
968.00,76.66
967.00,76.98
966.00,77.28
965.00,77.58
964.00,77.88
963.00,78.17
962.00,78.45
961.00,78.72
960.00,78.99
959.00,79.25
958.00,79.52
957.00,79.78
956.00,80.03
955.00,80.29
954.00,80.57
953.00,80.85
952.00,81.13
951.00,81.40
950.00,81.64
949.00,81.86
948.00,82.08
947.00,82.31
946.00,82.54
945.00,82.76
944.00,82.97
943.00,83.17
942.00,83.35
941.00,83.51
940.00,83.63
939.00,83.75
938.00,83.87
937.00,84.01
936.00,84.15
935.00,84.29
934.00,84.41
933.00,84.51
932.00,84.59
931.00,84.67
930.00,84.76
929.00,84.87
928.00,84.98
927.00,85.07
926.00,85.16
925.00,85.23
924.00,85.30
923.00,85.39
922.00,85.50
921.00,85.62
920.00,85.73
919.00,85.82
918.00,85.88
917.00,85.92
916.00,85.94
915.00,85.96
914.00,85.96
913.00,85.94
912.00,85.88
911.00,85.83
910.00,85.80
909.00,85.77
908.00,85.73
907.00,85.66
906.00,85.57
905.00,85.48
904.00,85.40
903.00,85.32
902.00,85.25
901.00,85.19
900.00,85.14
899.00,85.11
898.00,85.11
897.00,85.12
896.00,85.13
895.00,85.16
894.00,85.22
893.00,85.30
892.00,85.39
891.00,85.48
890.00,85.59
889.00,85.71
888.00,85.83
887.00,85.97
886.00,86.14
885.00,86.31
884.00,86.48
883.00,86.63
882.00,86.76
881.00,86.88
880.00,87.00
879.00,87.12
878.00,87.25
877.00,87.36
876.00,87.45
875.00,87.53
874.00,87.61
873.00,87.71
872.00,87.81
871.00,87.91
870.00,88.01
869.00,88.10
868.00,88.16
867.00,88.22
866.00,88.29
865.00,88.36
864.00,88.41
863.00,88.45
862.00,88.48
861.00,88.52
860.00,88.55
859.00,88.57
858.00,88.59
857.00,88.61
856.00,88.64
855.00,88.67
854.00,88.69
853.00,88.69
852.00,88.70
851.00,88.71
850.00,88.72
849.00,88.73
848.00,88.73
847.00,88.74
846.00,88.76
845.00,88.79
844.00,88.79
843.00,88.77
842.00,88.73
841.00,88.68
840.00,88.64
839.00,88.63
838.00,88.64
837.00,88.68
836.00,88.72
835.00,88.76
834.00,88.78
833.00,88.77
832.00,88.74
831.00,88.70
830.00,88.69
829.00,88.68
828.00,88.67
827.00,88.64
826.00,88.61
825.00,88.59
824.00,88.58
823.00,88.58
822.00,88.58
821.00,88.59
820.00,88.62
819.00,88.66
818.00,88.70
817.00,88.71
816.00,88.68
815.00,88.64
814.00,88.61
813.00,88.60
812.00,88.59
811.00,88.57
810.00,88.55
809.00,88.54
808.00,88.53
807.00,88.54
806.00,88.55
805.00,88.56
804.00,88.55
803.00,88.53
802.00,88.51
801.00,88.47
800.00,88.45
799.00,88.42
798.00,88.41
797.00,88.41
796.00,88.43
795.00,88.47
794.00,88.51
793.00,88.52
792.00,88.48
791.00,88.43
790.00,88.39
789.00,88.36
788.00,88.31
787.00,88.25
786.00,88.20
785.00,88.16
784.00,88.13
783.00,88.10
782.00,88.06
781.00,88.02
780.00,87.99
779.00,87.97
778.00,87.96
777.00,87.96
776.00,87.95
775.00,87.93
774.00,87.89
773.00,87.83
772.00,87.76
771.00,87.71
770.00,87.67
769.00,87.65
768.00,87.63
767.00,87.61
766.00,87.58
765.00,87.55
764.00,87.51
763.00,87.45
762.00,87.37
761.00,87.27
760.00,87.19
759.00,87.12
758.00,87.09
757.00,87.06
756.00,87.02
755.00,86.95
754.00,86.88
753.00,86.81
752.00,86.74
751.00,86.68
750.00,86.63
749.00,86.59
748.00,86.57
747.00,86.54
746.00,86.49
745.00,86.42
744.00,86.34
743.00,86.27
742.00,86.21
741.00,86.15
740.00,86.08
739.00,86.01
738.00,85.93
737.00,85.84
736.00,85.72
735.00,85.58
734.00,85.43
733.00,85.30
732.00,85.18
731.00,85.09
730.00,84.99
729.00,84.85
728.00,84.65
727.00,84.41
726.00,84.18
725.00,83.96
724.00,83.76
723.00,83.56
722.00,83.37
721.00,83.15
720.00,82.90
719.00,82.64
718.00,82.40
717.00,82.18
716.00,82.01
715.00,81.87
714.00,81.73
713.00,81.56
712.00,81.37
711.00,81.19
710.00,81.05
709.00,80.93
708.00,80.81
707.00,80.72
706.00,80.65
705.00,80.57
704.00,80.48
703.00,80.41
702.00,80.36
701.00,80.32
700.00,80.28
699.00,80.24
698.00,80.23
697.00,80.24
696.00,80.26
695.00,80.28
694.00,80.31
693.00,80.30
692.00,80.25
691.00,80.17
690.00,80.10
689.00,80.05
688.00,80.00
687.00,79.97
686.00,79.91
685.00,79.83
684.00,79.72
683.00,79.61
682.00,79.48
681.00,79.31
680.00,79.08
679.00,78.84
678.00,78.58
677.00,78.28
676.00,77.93
675.00,77.57
674.00,77.23
673.00,76.91
672.00,76.62
671.00,76.41
670.00,76.28
669.00,76.05
668.00,75.57
667.00,75.08
666.00,74.82
665.00,74.73
664.00,74.70
663.00,74.70
662.00,74.73
661.00,74.79
660.00,74.89
659.00,75.06
658.00,75.25
657.00,75.41
656.00,75.56
655.00,75.73
654.00,75.93
653.00,76.09
652.00,76.17
651.00,76.20
650.00,76.19
649.00,76.14
648.00,76.06
647.00,75.98
646.00,75.91
645.00,75.83
644.00,75.73
643.00,75.65
642.00,75.62
641.00,75.59
640.00,75.55
639.00,75.50
638.00,75.44
637.00,75.30
636.00,75.08
635.00,74.87
634.00,74.76
633.00,74.68
632.00,74.59
631.00,74.49
630.00,74.39
629.00,74.22
628.00,73.99
627.00,73.79
626.00,73.67
625.00,73.56
624.00,73.36
623.00,73.17
622.00,73.04
621.00,72.90
620.00,72.66
619.00,72.42
618.00,72.35
617.00,72.42
616.00,72.48
615.00,72.38
614.00,72.09
613.00,71.72
612.00,71.46
611.00,71.42
610.00,71.48
609.00,71.41
608.00,71.23
607.00,71.12
606.00,71.08
605.00,71.00
604.00,70.90
603.00,71.02
602.00,71.37
601.00,71.62
600.00,71.50
599.00,71.14
598.00,70.85
597.00,70.73
596.00,70.68
595.00,70.63
594.00,70.58
593.00,70.53
592.00,70.58
591.00,70.82
590.00,71.06
589.00,70.99
588.00,70.59
587.00,70.16
586.00,69.97
585.00,69.92
584.00,69.93
583.00,70.14
582.00,70.61
581.00,71.05
580.00,71.17
579.00,71.02
578.00,70.72
577.00,70.24
576.00,69.63
575.00,69.25
574.00,69.25
573.00,69.28
572.00,69.08
571.00,68.86
570.00,68.93
569.00,69.17
568.00,69.38
567.00,69.45
566.00,69.31
565.00,68.88
564.00,68.37
563.00,68.10
562.00,68.03
561.00,67.71
560.00,67.05
559.00,66.47
558.00,66.18
557.00,65.96
556.00,65.69
555.00,65.73
554.00,66.25
553.00,66.85
552.00,67.28
551.00,67.73
550.00,68.27
