Created as New Dataset,Bio-Couture Denim 1/7 nm (Black/Blue)
cm-1,%T
4000.00,99.89
3999.00,99.89
3998.00,99.89
3997.00,99.89
3996.00,99.89
3995.00,99.89
3994.00,99.90
3993.00,99.91
3992.00,99.92
3991.00,99.94
3990.00,99.95
3989.00,99.95
3988.00,99.95
3987.00,99.95
3986.00,99.95
3985.00,99.95
3984.00,99.95
3983.00,99.94
3982.00,99.92
3981.00,99.90
3980.00,99.89
3979.00,99.88
3978.00,99.88
3977.00,99.89
3976.00,99.88
3975.00,99.87
3974.00,99.84
3973.00,99.83
3972.00,99.82
3971.00,99.83
3970.00,99.84
3969.00,99.86
3968.00,99.87
3967.00,99.88
3966.00,99.89
3965.00,99.90
3964.00,99.92
3963.00,99.94
3962.00,99.94
3961.00,99.93
3960.00,99.91
3959.00,99.90
3958.00,99.90
3957.00,99.90
3956.00,99.90
3955.00,99.89
3954.00,99.89
3953.00,99.91
3952.00,99.93
3951.00,99.96
3950.00,99.97
3949.00,99.96
3948.00,99.93
3947.00,99.91
3946.00,99.89
3945.00,99.89
3944.00,99.89
3943.00,99.88
3942.00,99.87
3941.00,99.87
3940.00,99.87
3939.00,99.88
3938.00,99.89
3937.00,99.89
3936.00,99.89
3935.00,99.88
3934.00,99.87
3933.00,99.87
3932.00,99.88
3931.00,99.90
3930.00,99.92
3929.00,99.93
3928.00,99.93
3927.00,99.92
3926.00,99.90
3925.00,99.88
3924.00,99.87
3923.00,99.87
3922.00,99.86
3921.00,99.85
3920.00,99.84
3919.00,99.84
3918.00,99.85
3917.00,99.87
3916.00,99.88
3915.00,99.88
3914.00,99.87
3913.00,99.85
3912.00,99.85
3911.00,99.84
3910.00,99.84
3909.00,99.84
3908.00,99.83
3907.00,99.82
3906.00,99.81
3905.00,99.81
3904.00,99.81
3903.00,99.82
3902.00,99.82
3901.00,99.82
3900.00,99.83
3899.00,99.84
3898.00,99.86
3897.00,99.88
3896.00,99.89
3895.00,99.90
3894.00,99.91
3893.00,99.90
3892.00,99.89
3891.00,99.87
3890.00,99.84
3889.00,99.83
3888.00,99.82
3887.00,99.81
3886.00,99.79
3885.00,99.78
3884.00,99.79
3883.00,99.81
3882.00,99.83
3881.00,99.83
3880.00,99.84
3879.00,99.85
3878.00,99.86
3877.00,99.89
3876.00,99.90
3875.00,99.88
3874.00,99.85
3873.00,99.82
3872.00,99.80
3871.00,99.80
3870.00,99.81
3869.00,99.81
3868.00,99.82
3867.00,99.83
3866.00,99.83
3865.00,99.82
3864.00,99.80
3863.00,99.79
3862.00,99.79
3861.00,99.81
3860.00,99.84
3859.00,99.86
3858.00,99.88
3857.00,99.88
3856.00,99.89
3855.00,99.89
3854.00,99.87
3853.00,99.84
3852.00,99.81
3851.00,99.81
3850.00,99.82
3849.00,99.83
3848.00,99.83
3847.00,99.82
3846.00,99.80
3845.00,99.78
3844.00,99.79
3843.00,99.82
3842.00,99.86
3841.00,99.89
3840.00,99.90
3839.00,99.88
3838.00,99.85
3837.00,99.82
3836.00,99.82
3835.00,99.83
3834.00,99.85
3833.00,99.86
3832.00,99.86
3831.00,99.85
3830.00,99.84
3829.00,99.83
3828.00,99.82
3827.00,99.82
3826.00,99.81
3825.00,99.82
3824.00,99.84
3823.00,99.88
3822.00,99.90
3821.00,99.89
3820.00,99.86
3819.00,99.84
3818.00,99.82
3817.00,99.82
3816.00,99.80
3815.00,99.78
3814.00,99.77
3813.00,99.76
3812.00,99.75
3811.00,99.75
3810.00,99.76
3809.00,99.77
3808.00,99.80
3807.00,99.82
3806.00,99.83
3805.00,99.84
3804.00,99.84
3803.00,99.84
3802.00,99.81
3801.00,99.78
3800.00,99.76
3799.00,99.75
3798.00,99.74
3797.00,99.74
3796.00,99.74
3795.00,99.73
3794.00,99.71
3793.00,99.71
3792.00,99.71
3791.00,99.72
3790.00,99.74
3789.00,99.78
3788.00,99.81
3787.00,99.83
3786.00,99.84
3785.00,99.85
3784.00,99.84
3783.00,99.82
3782.00,99.80
3781.00,99.79
3780.00,99.79
3779.00,99.79
3778.00,99.79
3777.00,99.79
3776.00,99.79
3775.00,99.79
3774.00,99.78
3773.00,99.77
3772.00,99.77
3771.00,99.77
3770.00,99.76
3769.00,99.74
3768.00,99.73
3767.00,99.71
3766.00,99.70
3765.00,99.70
3764.00,99.70
3763.00,99.70
3762.00,99.70
3761.00,99.70
3760.00,99.71
3759.00,99.71
3758.00,99.72
3757.00,99.72
3756.00,99.71
3755.00,99.70
3754.00,99.68
3753.00,99.66
3752.00,99.64
3751.00,99.63
3750.00,99.62
3749.00,99.61
3748.00,99.60
3747.00,99.60
3746.00,99.61
3745.00,99.62
3744.00,99.63
3743.00,99.64
3742.00,99.65
3741.00,99.64
3740.00,99.63
3739.00,99.62
3738.00,99.63
3737.00,99.66
3736.00,99.66
3735.00,99.64
3734.00,99.61
3733.00,99.59
3732.00,99.58
3731.00,99.57
3730.00,99.55
3729.00,99.54
3728.00,99.53
3727.00,99.54
3726.00,99.56
3725.00,99.58
3724.00,99.61
3723.00,99.63
3722.00,99.63
3721.00,99.63
3720.00,99.62
3719.00,99.61
3718.00,99.60
3717.00,99.60
3716.00,99.60
3715.00,99.60
3714.00,99.60
3713.00,99.59
3712.00,99.58
3711.00,99.58
3710.00,99.57
3709.00,99.55
3708.00,99.52
3707.00,99.50
3706.00,99.50
3705.00,99.51
3704.00,99.54
3703.00,99.56
3702.00,99.58
3701.00,99.59
3700.00,99.60
3699.00,99.62
3698.00,99.62
3697.00,99.61
3696.00,99.57
3695.00,99.54
3694.00,99.51
3693.00,99.49
3692.00,99.47
3691.00,99.45
3690.00,99.43
3689.00,99.42
3688.00,99.43
3687.00,99.43
3686.00,99.44
3685.00,99.43
3684.00,99.42
3683.00,99.41
3682.00,99.41
3681.00,99.40
3680.00,99.40
3679.00,99.41
3678.00,99.42
3677.00,99.42
3676.00,99.40
3675.00,99.37
3674.00,99.35
3673.00,99.34
3672.00,99.33
3671.00,99.30
3670.00,99.27
3669.00,99.24
3668.00,99.23
3667.00,99.24
3666.00,99.25
3665.00,99.26
3664.00,99.26
3663.00,99.25
3662.00,99.22
3661.00,99.17
3660.00,99.13
3659.00,99.10
3658.00,99.09
3657.00,99.10
3656.00,99.09
3655.00,99.06
3654.00,99.04
3653.00,99.03
3652.00,99.03
3651.00,99.03
3650.00,99.02
3649.00,99.00
3648.00,99.00
3647.00,98.99
3646.00,98.98
3645.00,98.95
3644.00,98.92
3643.00,98.89
3642.00,98.85
3641.00,98.81
3640.00,98.77
3639.00,98.73
3638.00,98.70
3637.00,98.69
3636.00,98.67
3635.00,98.65
3634.00,98.61
3633.00,98.58
3632.00,98.55
3631.00,98.52
3630.00,98.49
3629.00,98.44
3628.00,98.40
3627.00,98.38
3626.00,98.38
3625.00,98.38
3624.00,98.38
3623.00,98.38
3622.00,98.38
3621.00,98.37
3620.00,98.35
3619.00,98.31
3618.00,98.26
3617.00,98.21
3616.00,98.17
3615.00,98.13
3614.00,98.08
3613.00,98.03
3612.00,98.00
3611.00,98.00
3610.00,98.02
3609.00,98.04
3608.00,98.05
3607.00,98.03
3606.00,98.00
3605.00,97.96
3604.00,97.93
3603.00,97.89
3602.00,97.86
3601.00,97.81
3600.00,97.76
3599.00,97.71
3598.00,97.69
3597.00,97.68
3596.00,97.67
3595.00,97.65
3594.00,97.62
3593.00,97.59
3592.00,97.57
3591.00,97.56
3590.00,97.55
3589.00,97.52
3588.00,97.47
3587.00,97.42
3586.00,97.38
3585.00,97.36
3584.00,97.35
3583.00,97.34
3582.00,97.34
3581.00,97.32
3580.00,97.30
3579.00,97.28
3578.00,97.25
3577.00,97.24
3576.00,97.23
3575.00,97.22
3574.00,97.20
3573.00,97.16
3572.00,97.11
3571.00,97.04
3570.00,96.98
3569.00,96.93
3568.00,96.90
3567.00,96.89
3566.00,96.89
3565.00,96.89
3564.00,96.87
3563.00,96.84
3562.00,96.80
3561.00,96.76
3560.00,96.73
3559.00,96.70
3558.00,96.68
3557.00,96.66
3556.00,96.63
3555.00,96.60
3554.00,96.56
3553.00,96.53
3552.00,96.50
3551.00,96.47
3550.00,96.43
3549.00,96.38
3548.00,96.33
3547.00,96.28
3546.00,96.24
3545.00,96.22
3544.00,96.20
3543.00,96.19
3542.00,96.17
3541.00,96.15
3540.00,96.12
3539.00,96.09
3538.00,96.04
3537.00,96.00
3536.00,95.95
3535.00,95.92
3534.00,95.90
3533.00,95.89
3532.00,95.89
3531.00,95.88
3530.00,95.85
3529.00,95.80
3528.00,95.75
3527.00,95.70
3526.00,95.66
3525.00,95.63
3524.00,95.61
3523.00,95.58
3522.00,95.55
3521.00,95.51
3520.00,95.48
3519.00,95.47
3518.00,95.46
3517.00,95.45
3516.00,95.44
3515.00,95.43
3514.00,95.40
3513.00,95.37
3512.00,95.33
3511.00,95.28
3510.00,95.25
3509.00,95.23
3508.00,95.24
3507.00,95.24
3506.00,95.24
3505.00,95.21
3504.00,95.16
3503.00,95.11
3502.00,95.07
3501.00,95.04
3500.00,95.01
3499.00,94.97
3498.00,94.93
3497.00,94.89
3496.00,94.85
3495.00,94.82
3494.00,94.79
3493.00,94.77
3492.00,94.76
3491.00,94.75
3490.00,94.73
3489.00,94.71
3488.00,94.68
3487.00,94.65
3486.00,94.61
3485.00,94.57
3484.00,94.54
3483.00,94.53
3482.00,94.52
3481.00,94.51
3480.00,94.48
3479.00,94.46
3478.00,94.44
3477.00,94.42
3476.00,94.40
3475.00,94.39
3474.00,94.37
3473.00,94.35
3472.00,94.32
3471.00,94.28
3470.00,94.25
3469.00,94.21
3468.00,94.18
3467.00,94.16
3466.00,94.14
3465.00,94.12
3464.00,94.09
3463.00,94.05
3462.00,94.02
3461.00,94.00
3460.00,93.99
3459.00,93.99
3458.00,93.98
3457.00,93.98
3456.00,93.96
3455.00,93.95
3454.00,93.92
3453.00,93.90
3452.00,93.86
3451.00,93.83
3450.00,93.79
3449.00,93.75
3448.00,93.71
3447.00,93.68
3446.00,93.67
3445.00,93.65
3444.00,93.63
3443.00,93.61
3442.00,93.59
3441.00,93.55
3440.00,93.51
3439.00,93.46
3438.00,93.43
3437.00,93.41
3436.00,93.40
3435.00,93.38
3434.00,93.36
3433.00,93.34
3432.00,93.31
3431.00,93.28
3430.00,93.25
3429.00,93.21
3428.00,93.16
3427.00,93.11
3426.00,93.07
3425.00,93.05
3424.00,93.03
3423.00,93.02
3422.00,92.99
3421.00,92.96
3420.00,92.93
3419.00,92.90
3418.00,92.87
3417.00,92.84
3416.00,92.79
3415.00,92.73
3414.00,92.67
3413.00,92.62
3412.00,92.60
3411.00,92.58
3410.00,92.56
3409.00,92.53
3408.00,92.50
3407.00,92.47
3406.00,92.44
3405.00,92.42
3404.00,92.40
3403.00,92.38
3402.00,92.35
3401.00,92.32
3400.00,92.28
3399.00,92.25
3398.00,92.22
3397.00,92.20
3396.00,92.18
3395.00,92.17
3394.00,92.15
3393.00,92.10
3392.00,92.04
3391.00,91.97
3390.00,91.93
3389.00,91.90
3388.00,91.89
3387.00,91.87
3386.00,91.84
3385.00,91.80
3384.00,91.76
3383.00,91.73
3382.00,91.71
3381.00,91.68
3380.00,91.65
3379.00,91.62
3378.00,91.58
3377.00,91.55
3376.00,91.52
3375.00,91.50
3374.00,91.48
3373.00,91.44
3372.00,91.39
3371.00,91.35
3370.00,91.30
3369.00,91.25
3368.00,91.20
3367.00,91.14
3366.00,91.09
3365.00,91.05
3364.00,91.03
3363.00,91.01
3362.00,90.97
3361.00,90.93
3360.00,90.88
3359.00,90.83
3358.00,90.79
3357.00,90.74
3356.00,90.70
3355.00,90.65
3354.00,90.60
3353.00,90.53
3352.00,90.47
3351.00,90.41
3350.00,90.35
3349.00,90.31
3348.00,90.28
3347.00,90.23
3346.00,90.18
3345.00,90.10
3344.00,90.03
3343.00,89.95
3342.00,89.88
3341.00,89.81
3340.00,89.73
3339.00,89.64
3338.00,89.57
3337.00,89.50
3336.00,89.42
3335.00,89.35
3334.00,89.28
3333.00,89.21
3332.00,89.16
3331.00,89.10
3330.00,89.02
3329.00,88.93
3328.00,88.83
3327.00,88.75
3326.00,88.69
3325.00,88.63
3324.00,88.57
3323.00,88.49
3322.00,88.40
3321.00,88.29
3320.00,88.18
3319.00,88.08
3318.00,87.98
3317.00,87.89
3316.00,87.80
3315.00,87.71
3314.00,87.61
3313.00,87.51
3312.00,87.42
3311.00,87.32
3310.00,87.22
3309.00,87.12
3308.00,87.02
3307.00,86.93
3306.00,86.83
3305.00,86.71
3304.00,86.59
3303.00,86.46
3302.00,86.34
3301.00,86.23
3300.00,86.12
3299.00,86.00
3298.00,85.89
3297.00,85.77
3296.00,85.68
3295.00,85.59
3294.00,85.50
3293.00,85.39
3292.00,85.27
3291.00,85.15
3290.00,85.05
3289.00,84.97
3288.00,84.91
3287.00,84.87
3286.00,84.83
3285.00,84.79
3284.00,84.74
3283.00,84.68
3282.00,84.64
3281.00,84.61
3280.00,84.60
3279.00,84.60
3278.00,84.61
3277.00,84.62
3276.00,84.64
3275.00,84.67
3274.00,84.69
3273.00,84.71
3272.00,84.75
3271.00,84.80
3270.00,84.87
3269.00,84.95
3268.00,85.04
3267.00,85.13
3266.00,85.23
3265.00,85.32
3264.00,85.41
3263.00,85.50
3262.00,85.60
3261.00,85.69
3260.00,85.77
3259.00,85.86
3258.00,85.95
3257.00,86.05
3256.00,86.16
3255.00,86.27
3254.00,86.38
3253.00,86.48
3252.00,86.58
3251.00,86.67
3250.00,86.76
3249.00,86.85
3248.00,86.93
3247.00,87.01
3246.00,87.09
3245.00,87.18
3244.00,87.27
3243.00,87.36
3242.00,87.45
3241.00,87.52
3240.00,87.58
3239.00,87.65
3238.00,87.74
3237.00,87.82
3236.00,87.90
3235.00,87.96
3234.00,88.02
3233.00,88.07
3232.00,88.12
3231.00,88.18
3230.00,88.26
3229.00,88.34
3228.00,88.41
3227.00,88.47
3226.00,88.53
3225.00,88.59
3224.00,88.65
3223.00,88.71
3222.00,88.76
3221.00,88.81
3220.00,88.84
3219.00,88.87
3218.00,88.89
3217.00,88.93
3216.00,88.98
3215.00,89.04
3214.00,89.12
3213.00,89.21
3212.00,89.27
3211.00,89.32
3210.00,89.36
3209.00,89.41
3208.00,89.48
3207.00,89.55
3206.00,89.62
3205.00,89.67
3204.00,89.72
3203.00,89.77
3202.00,89.82
3201.00,89.86
3200.00,89.92
3199.00,89.98
3198.00,90.06
3197.00,90.13
3196.00,90.18
3195.00,90.21
3194.00,90.23
3193.00,90.26
3192.00,90.31
3191.00,90.37
3190.00,90.43
3189.00,90.50
3188.00,90.55
3187.00,90.61
3186.00,90.65
3185.00,90.70
3184.00,90.76
3183.00,90.81
3182.00,90.87
3181.00,90.92
3180.00,90.97
3179.00,91.02
3178.00,91.07
3177.00,91.13
3176.00,91.19
3175.00,91.24
3174.00,91.30
3173.00,91.35
3172.00,91.40
3171.00,91.44
3170.00,91.48
3169.00,91.52
3168.00,91.57
3167.00,91.62
3166.00,91.67
3165.00,91.73
3164.00,91.78
3163.00,91.83
3162.00,91.88
3161.00,91.92
3160.00,91.97
3159.00,92.03
3158.00,92.09
3157.00,92.15
3156.00,92.21
3155.00,92.25
3154.00,92.29
3153.00,92.34
3152.00,92.37
3151.00,92.40
3150.00,92.42
3149.00,92.45
3148.00,92.48
3147.00,92.52
3146.00,92.55
3145.00,92.58
3144.00,92.62
3143.00,92.65
3142.00,92.69
3141.00,92.71
3140.00,92.74
3139.00,92.77
3138.00,92.80
3137.00,92.84
3136.00,92.86
3135.00,92.88
3134.00,92.88
3133.00,92.89
3132.00,92.91
3131.00,92.94
3130.00,92.98
3129.00,93.02
3128.00,93.05
3127.00,93.07
3126.00,93.09
3125.00,93.11
3124.00,93.13
3123.00,93.13
3122.00,93.12
3121.00,93.10
3120.00,93.10
3119.00,93.11
3118.00,93.13
3117.00,93.16
3116.00,93.18
3115.00,93.19
3114.00,93.18
3113.00,93.17
3112.00,93.16
3111.00,93.14
3110.00,93.14
3109.00,93.14
3108.00,93.15
3107.00,93.15
3106.00,93.14
3105.00,93.13
3104.00,93.13
3103.00,93.14
3102.00,93.14
3101.00,93.13
3100.00,93.11
3099.00,93.09
3098.00,93.07
3097.00,93.05
3096.00,93.03
3095.00,93.02
3094.00,93.02
3093.00,93.03
3092.00,93.04
3091.00,93.04
3090.00,93.03
3089.00,93.00
3088.00,92.97
3087.00,92.96
3086.00,92.95
3085.00,92.95
3084.00,92.94
3083.00,92.93
3082.00,92.93
3081.00,92.93
3080.00,92.93
3079.00,92.93
3078.00,92.93
3077.00,92.93
3076.00,92.92
3075.00,92.90
3074.00,92.89
3073.00,92.89
3072.00,92.90
3071.00,92.90
3070.00,92.90
3069.00,92.90
3068.00,92.91
3067.00,92.92
3066.00,92.94
3065.00,92.95
3064.00,92.97
3063.00,93.00
3062.00,93.02
3061.00,93.05
3060.00,93.07
3059.00,93.08
3058.00,93.10
3057.00,93.12
3056.00,93.15
3055.00,93.19
3054.00,93.23
3053.00,93.28
3052.00,93.31
3051.00,93.35
3050.00,93.39
3049.00,93.42
3048.00,93.45
3047.00,93.49
3046.00,93.54
3045.00,93.59
3044.00,93.63
3043.00,93.66
3042.00,93.69
3041.00,93.71
3040.00,93.73
3039.00,93.75
3038.00,93.78
3037.00,93.81
3036.00,93.85
3035.00,93.89
3034.00,93.94
3033.00,93.98
3032.00,94.03
3031.00,94.07
3030.00,94.11
3029.00,94.14
3028.00,94.15
3027.00,94.15
3026.00,94.15
3025.00,94.17
3024.00,94.20
3023.00,94.23
3022.00,94.26
3021.00,94.27
3020.00,94.30
3019.00,94.35
3018.00,94.40
3017.00,94.44
3016.00,94.46
3015.00,94.46
3014.00,94.45
3013.00,94.45
3012.00,94.46
3011.00,94.49
3010.00,94.51
3009.00,94.53
3008.00,94.54
3007.00,94.54
3006.00,94.53
3005.00,94.52
3004.00,94.51
3003.00,94.50
3002.00,94.49
3001.00,94.48
3000.00,94.47
2999.00,94.46
2998.00,94.47
2997.00,94.48
2996.00,94.48
2995.00,94.47
2994.00,94.44
2993.00,94.39
2992.00,94.33
2991.00,94.28
2990.00,94.23
2989.00,94.18
2988.00,94.14
2987.00,94.10
2986.00,94.07
2985.00,94.04
2984.00,94.02
2983.00,94.00
2982.00,93.98
2981.00,93.94
2980.00,93.88
2979.00,93.82
2978.00,93.75
2977.00,93.70
2976.00,93.64
2975.00,93.59
2974.00,93.53
2973.00,93.46
2972.00,93.41
2971.00,93.36
2970.00,93.32
2969.00,93.28
2968.00,93.24
2967.00,93.21
2966.00,93.18
2965.00,93.16
2964.00,93.15
2963.00,93.15
2962.00,93.15
2961.00,93.16
2960.00,93.18
2959.00,93.21
2958.00,93.24
2957.00,93.27
2956.00,93.30
2955.00,93.32
2954.00,93.33
2953.00,93.34
2952.00,93.34
2951.00,93.35
2950.00,93.36
2949.00,93.37
2948.00,93.37
2947.00,93.37
2946.00,93.37
2945.00,93.34
2944.00,93.30
2943.00,93.24
2942.00,93.18
2941.00,93.12
2940.00,93.08
2939.00,93.04
2938.00,93.00
2937.00,92.95
2936.00,92.91
2935.00,92.88
2934.00,92.85
2933.00,92.82
2932.00,92.80
2931.00,92.78
2930.00,92.79
2929.00,92.80
2928.00,92.81
2927.00,92.82
2926.00,92.83
2925.00,92.85
2924.00,92.87
2923.00,92.90
2922.00,92.92
2921.00,92.94
2920.00,92.96
2919.00,92.99
2918.00,93.04
2917.00,93.09
2916.00,93.16
2915.00,93.24
2914.00,93.31
2913.00,93.37
2912.00,93.43
2911.00,93.47
2910.00,93.51
2909.00,93.54
2908.00,93.58
2907.00,93.62
2906.00,93.67
2905.00,93.71
2904.00,93.75
2903.00,93.78
2902.00,93.80
2901.00,93.81
2900.00,93.81
2899.00,93.83
2898.00,93.86
2897.00,93.90
2896.00,93.93
2895.00,93.97
2894.00,93.99
2893.00,94.01
2892.00,94.02
2891.00,94.03
2890.00,94.04
2889.00,94.06
2888.00,94.07
2887.00,94.08
2886.00,94.08
2885.00,94.08
2884.00,94.08
2883.00,94.09
2882.00,94.09
2881.00,94.08
2880.00,94.06
2879.00,94.05
2878.00,94.05
2877.00,94.04
2876.00,94.04
2875.00,94.02
2874.00,94.00
2873.00,94.00
2872.00,94.02
2871.00,94.06
2870.00,94.10
2869.00,94.15
2868.00,94.18
2867.00,94.20
2866.00,94.22
2865.00,94.25
2864.00,94.28
2863.00,94.31
2862.00,94.32
2861.00,94.32
2860.00,94.32
2859.00,94.33
2858.00,94.36
2857.00,94.39
2856.00,94.43
2855.00,94.45
2854.00,94.47
2853.00,94.48
2852.00,94.50
2851.00,94.53
2850.00,94.58
2849.00,94.65
2848.00,94.72
2847.00,94.79
2846.00,94.85
2845.00,94.90
2844.00,94.97
2843.00,95.05
2842.00,95.12
2841.00,95.18
2840.00,95.22
2839.00,95.26
2838.00,95.29
2837.00,95.31
2836.00,95.33
2835.00,95.35
2834.00,95.36
2833.00,95.37
2832.00,95.37
2831.00,95.38
2830.00,95.40
2829.00,95.43
2828.00,95.46
2827.00,95.48
2826.00,95.51
2825.00,95.53
2824.00,95.54
2823.00,95.55
2822.00,95.56
2821.00,95.58
2820.00,95.59
2819.00,95.60
2818.00,95.61
2817.00,95.62
2816.00,95.63
2815.00,95.64
2814.00,95.65
2813.00,95.66
2812.00,95.68
2811.00,95.71
2810.00,95.73
2809.00,95.74
2808.00,95.74
2807.00,95.74
2806.00,95.73
2805.00,95.73
2804.00,95.73
2803.00,95.74
2802.00,95.75
2801.00,95.77
2800.00,95.79
2799.00,95.80
2798.00,95.81
2797.00,95.81
2796.00,95.82
2795.00,95.84
2794.00,95.85
2793.00,95.85
2792.00,95.85
2791.00,95.86
2790.00,95.87
2789.00,95.87
2788.00,95.88
2787.00,95.90
2786.00,95.91
2785.00,95.92
2784.00,95.94
2783.00,95.96
2782.00,95.97
2781.00,95.98
2780.00,95.99
2779.00,95.99
2778.00,95.99
2777.00,95.99
2776.00,95.99
2775.00,96.00
2774.00,96.01
2773.00,96.03
2772.00,96.05
2771.00,96.07
2770.00,96.08
2769.00,96.09
2768.00,96.09
2767.00,96.10
2766.00,96.11
2765.00,96.12
2764.00,96.11
2763.00,96.10
2762.00,96.11
2761.00,96.12
2760.00,96.14
2759.00,96.16
2758.00,96.17
2757.00,96.18
2756.00,96.18
2755.00,96.18
2754.00,96.18
2753.00,96.17
2752.00,96.17
2751.00,96.18
2750.00,96.19
2749.00,96.20
2748.00,96.21
2747.00,96.20
2746.00,96.20
2745.00,96.20
2744.00,96.21
2743.00,96.23
2742.00,96.24
2741.00,96.25
2740.00,96.25
2739.00,96.25
2738.00,96.25
2737.00,96.26
2736.00,96.28
2735.00,96.29
2734.00,96.30
2733.00,96.30
2732.00,96.30
2731.00,96.30
2730.00,96.32
2729.00,96.33
2728.00,96.34
2727.00,96.36
2726.00,96.37
2725.00,96.39
2724.00,96.40
2723.00,96.40
2722.00,96.39
2721.00,96.38
2720.00,96.38
2719.00,96.39
2718.00,96.40
2717.00,96.41
2716.00,96.43
2715.00,96.44
2714.00,96.45
2713.00,96.47
2712.00,96.48
2711.00,96.49
2710.00,96.50
2709.00,96.50
2708.00,96.51
2707.00,96.52
2706.00,96.52
2705.00,96.53
2704.00,96.53
2703.00,96.53
2702.00,96.53
2701.00,96.55
2700.00,96.56
2699.00,96.57
2698.00,96.56
2697.00,96.55
2696.00,96.55
2695.00,96.55
2694.00,96.56
2693.00,96.56
2692.00,96.56
2691.00,96.56
2690.00,96.56
2689.00,96.57
2688.00,96.58
2687.00,96.58
2686.00,96.58
2685.00,96.58
2684.00,96.57
2683.00,96.56
2682.00,96.56
2681.00,96.57
2680.00,96.58
2679.00,96.59
2678.00,96.60
2677.00,96.60
2676.00,96.61
2675.00,96.61
2674.00,96.61
2673.00,96.60
2672.00,96.59
2671.00,96.59
2670.00,96.60
2669.00,96.62
2668.00,96.63
2667.00,96.63
2666.00,96.63
2665.00,96.62
2664.00,96.61
2663.00,96.61
2662.00,96.61
2661.00,96.61
2660.00,96.61
2659.00,96.60
2658.00,96.60
2657.00,96.60
2656.00,96.60
2655.00,96.59
2654.00,96.59
2653.00,96.59
2652.00,96.58
2651.00,96.57
2650.00,96.56
2649.00,96.55
2648.00,96.55
2647.00,96.54
2646.00,96.53
2645.00,96.53
2644.00,96.53
2643.00,96.53
2642.00,96.53
2641.00,96.53
2640.00,96.52
2639.00,96.51
2638.00,96.50
2637.00,96.49
2636.00,96.48
2635.00,96.48
2634.00,96.47
2633.00,96.46
2632.00,96.44
2631.00,96.43
2630.00,96.43
2629.00,96.43
2628.00,96.43
2627.00,96.43
2626.00,96.43
2625.00,96.43
2624.00,96.42
2623.00,96.43
2622.00,96.43
2621.00,96.43
2620.00,96.42
2619.00,96.40
2618.00,96.38
2617.00,96.39
2616.00,96.41
2615.00,96.44
2614.00,96.45
2613.00,96.46
2612.00,96.45
2611.00,96.45
2610.00,96.44
2609.00,96.43
2608.00,96.41
2607.00,96.40
2606.00,96.40
2605.00,96.41
2604.00,96.43
2603.00,96.45
2602.00,96.45
2601.00,96.44
2600.00,96.42
2599.00,96.41
2598.00,96.41
2597.00,96.42
2596.00,96.41
2595.00,96.40
2594.00,96.38
2593.00,96.38
2592.00,96.38
2591.00,96.39
2590.00,96.39
2589.00,96.39
2588.00,96.41
2587.00,96.42
2586.00,96.43
2585.00,96.42
2584.00,96.40
2583.00,96.39
2582.00,96.39
2581.00,96.40
2580.00,96.42
2579.00,96.43
2578.00,96.44
2577.00,96.44
2576.00,96.43
2575.00,96.42
2574.00,96.40
2573.00,96.40
2572.00,96.41
2571.00,96.43
2570.00,96.45
2569.00,96.45
2568.00,96.44
2567.00,96.44
2566.00,96.44
2565.00,96.44
2564.00,96.44
2563.00,96.44
2562.00,96.45
2561.00,96.46
2560.00,96.47
2559.00,96.47
2558.00,96.48
2557.00,96.50
2556.00,96.50
2555.00,96.50
2554.00,96.48
2553.00,96.45
2552.00,96.42
2551.00,96.42
2550.00,96.43
2549.00,96.43
2548.00,96.43
2547.00,96.41
2546.00,96.40
2545.00,96.39
2544.00,96.39
2543.00,96.41
2542.00,96.43
2541.00,96.44
2540.00,96.44
2539.00,96.44
2538.00,96.44
2537.00,96.45
2536.00,96.47
2535.00,96.48
2534.00,96.48
2533.00,96.48
2532.00,96.48
2531.00,96.49
2530.00,96.51
2529.00,96.53
2528.00,96.53
2527.00,96.52
2526.00,96.51
2525.00,96.49
2524.00,96.48
2523.00,96.48
2522.00,96.49
2521.00,96.51
2520.00,96.51
2519.00,96.50
2518.00,96.48
2517.00,96.48
2516.00,96.48
2515.00,96.49
2514.00,96.50
2513.00,96.52
2512.00,96.54
2511.00,96.55
2510.00,96.54
2509.00,96.52
2508.00,96.49
2507.00,96.47
2506.00,96.48
2505.00,96.50
2504.00,96.52
2503.00,96.53
2502.00,96.53
2501.00,96.53
2500.00,96.53
2499.00,96.53
2498.00,96.52
2497.00,96.52
2496.00,96.53
2495.00,96.55
2494.00,96.56
2493.00,96.56
2492.00,96.55
2491.00,96.55
2490.00,96.54
2489.00,96.53
2488.00,96.53
2487.00,96.53
2486.00,96.53
2485.00,96.53
2484.00,96.53
2483.00,96.52
2482.00,96.51
2481.00,96.50
2480.00,96.48
2479.00,96.48
2478.00,96.49
2477.00,96.50
2476.00,96.51
2475.00,96.52
2474.00,96.54
2473.00,96.55
2472.00,96.56
2471.00,96.58
2470.00,96.60
2469.00,96.60
2468.00,96.59
2467.00,96.58
2466.00,96.58
2465.00,96.58
2464.00,96.57
2463.00,96.56
2462.00,96.55
2461.00,96.53
2460.00,96.53
2459.00,96.56
2458.00,96.59
2457.00,96.61
2456.00,96.60
2455.00,96.60
2454.00,96.59
2453.00,96.60
2452.00,96.61
2451.00,96.62
2450.00,96.62
2449.00,96.63
2448.00,96.63
2447.00,96.64
2446.00,96.64
2445.00,96.64
2444.00,96.62
2443.00,96.62
2442.00,96.62
2441.00,96.63
2440.00,96.63
2439.00,96.63
2438.00,96.61
2437.00,96.61
2436.00,96.62
2435.00,96.63
2434.00,96.66
2433.00,96.68
2432.00,96.70
2431.00,96.71
2430.00,96.71
2429.00,96.70
2428.00,96.68
2427.00,96.66
2426.00,96.64
2425.00,96.61
2424.00,96.59
2423.00,96.60
2422.00,96.63
2421.00,96.67
2420.00,96.71
2419.00,96.72
2418.00,96.71
2417.00,96.69
2416.00,96.68
2415.00,96.70
2414.00,96.72
2413.00,96.74
2412.00,96.74
2411.00,96.74
2410.00,96.74
2409.00,96.74
2408.00,96.74
2407.00,96.76
2406.00,96.78
2405.00,96.80
2404.00,96.81
2403.00,96.83
2402.00,96.85
2401.00,96.86
2400.00,96.86
2399.00,96.86
2398.00,96.85
2397.00,96.85
2396.00,96.85
2395.00,96.86
2394.00,96.87
2393.00,96.88
2392.00,96.89
2391.00,96.91
2390.00,96.93
2389.00,96.93
2388.00,96.92
2387.00,96.92
2386.00,96.93
2385.00,96.94
2384.00,96.94
2383.00,96.95
2382.00,96.96
2381.00,96.98
2380.00,96.98
2379.00,96.96
2378.00,96.95
2377.00,96.96
2376.00,96.98
2375.00,97.00
2374.00,97.01
2373.00,97.00
2372.00,96.97
2371.00,96.94
2370.00,96.90
2369.00,96.89
2368.00,96.91
2367.00,96.96
2366.00,96.99
2365.00,97.01
2364.00,97.01
2363.00,97.02
2362.00,97.00
2361.00,96.94
2360.00,96.87
2359.00,96.84
2358.00,96.86
2357.00,96.91
2356.00,96.96
2355.00,96.98
2354.00,96.98
2353.00,96.97
2352.00,96.96
2351.00,96.97
2350.00,96.99
2349.00,97.00
2348.00,97.01
2347.00,97.02
2346.00,97.04
2345.00,97.05
2344.00,97.06
2343.00,97.05
2342.00,97.04
2341.00,97.03
2340.00,97.01
2339.00,96.96
2338.00,96.91
2337.00,96.88
2336.00,96.88
2335.00,96.90
2334.00,96.91
2333.00,96.89
2332.00,96.85
2331.00,96.84
2330.00,96.86
2329.00,96.89
2328.00,96.89
2327.00,96.84
2326.00,96.77
2325.00,96.72
2324.00,96.70
2323.00,96.70
2322.00,96.71
2321.00,96.73
2320.00,96.76
2319.00,96.77
2318.00,96.78
2317.00,96.76
2316.00,96.73
2315.00,96.73
2314.00,96.72
2313.00,96.71
2312.00,96.67
2311.00,96.64
2310.00,96.63
2309.00,96.63
2308.00,96.65
2307.00,96.66
2306.00,96.67
2305.00,96.66
2304.00,96.65
2303.00,96.64
2302.00,96.62
2301.00,96.60
2300.00,96.57
2299.00,96.54
2298.00,96.51
2297.00,96.50
2296.00,96.51
2295.00,96.52
2294.00,96.52
2293.00,96.51
2292.00,96.50
2291.00,96.48
2290.00,96.45
2289.00,96.43
2288.00,96.40
2287.00,96.38
2286.00,96.37
2285.00,96.38
2284.00,96.40
2283.00,96.43
2282.00,96.45
2281.00,96.45
2280.00,96.44
2279.00,96.43
2278.00,96.40
2277.00,96.36
2276.00,96.34
2275.00,96.34
2274.00,96.35
2273.00,96.36
2272.00,96.37
2271.00,96.36
2270.00,96.35
2269.00,96.32
2268.00,96.29
2267.00,96.27
2266.00,96.25
2265.00,96.22
2264.00,96.20
2263.00,96.17
2262.00,96.16
2261.00,96.15
2260.00,96.15
2259.00,96.16
2258.00,96.15
2257.00,96.14
2256.00,96.13
2255.00,96.13
2254.00,96.12
2253.00,96.12
2252.00,96.12
2251.00,96.13
2250.00,96.13
2249.00,96.12
2248.00,96.12
2247.00,96.12
2246.00,96.13
2245.00,96.13
2244.00,96.12
2243.00,96.11
2242.00,96.09
2241.00,96.07
2240.00,96.04
2239.00,96.01
2238.00,95.96
2237.00,95.92
2236.00,95.90
2235.00,95.91
2234.00,95.94
2233.00,95.95
2232.00,95.95
2231.00,95.94
2230.00,95.94
2229.00,95.94
2228.00,95.92
2227.00,95.91
2226.00,95.90
2225.00,95.90
2224.00,95.91
2223.00,95.93
2222.00,95.95
2221.00,95.96
2220.00,95.94
2219.00,95.90
2218.00,95.85
2217.00,95.81
2216.00,95.78
2215.00,95.78
2214.00,95.80
2213.00,95.82
2212.00,95.83
2211.00,95.83
2210.00,95.81
2209.00,95.78
2208.00,95.74
2207.00,95.72
2206.00,95.73
2205.00,95.75
2204.00,95.75
2203.00,95.74
2202.00,95.71
2201.00,95.68
2200.00,95.67
2199.00,95.68
2198.00,95.70
2197.00,95.71
2196.00,95.72
2195.00,95.72
2194.00,95.68
2193.00,95.60
2192.00,95.52
2191.00,95.49
2190.00,95.50
2189.00,95.52
2188.00,95.56
2187.00,95.59
2186.00,95.60
2185.00,95.57
2184.00,95.53
2183.00,95.50
2182.00,95.52
2181.00,95.55
2180.00,95.58
2179.00,95.58
2178.00,95.55
2177.00,95.51
2176.00,95.50
2175.00,95.54
2174.00,95.59
2173.00,95.60
2172.00,95.55
2171.00,95.45
2170.00,95.32
2169.00,95.22
2168.00,95.18
2167.00,95.20
2166.00,95.23
2165.00,95.20
2164.00,95.10
2163.00,94.98
2162.00,94.89
2161.00,94.89
2160.00,94.99
2159.00,95.17
2158.00,95.35
2157.00,95.49
2156.00,95.57
2155.00,95.60
2154.00,95.60
2153.00,95.60
2152.00,95.61
2151.00,95.63
2150.00,95.64
2149.00,95.63
2148.00,95.63
2147.00,95.66
2146.00,95.72
2145.00,95.79
2144.00,95.86
2143.00,95.92
2142.00,95.96
2141.00,95.98
2140.00,95.99
2139.00,96.01
2138.00,96.04
2137.00,96.06
2136.00,96.08
2135.00,96.11
2134.00,96.16
2133.00,96.21
2132.00,96.26
2131.00,96.29
2130.00,96.30
2129.00,96.29
2128.00,96.26
2127.00,96.23
2126.00,96.22
2125.00,96.21
2124.00,96.22
2123.00,96.25
2122.00,96.29
2121.00,96.33
2120.00,96.36
2119.00,96.37
2118.00,96.34
2117.00,96.27
2116.00,96.18
2115.00,96.13
2114.00,96.13
2113.00,96.16
2112.00,96.20
2111.00,96.23
2110.00,96.24
2109.00,96.24
2108.00,96.21
2107.00,96.20
2106.00,96.19
2105.00,96.18
2104.00,96.17
2103.00,96.17
2102.00,96.18
2101.00,96.17
2100.00,96.16
2099.00,96.12
2098.00,96.10
2097.00,96.12
2096.00,96.19
2095.00,96.27
2094.00,96.34
2093.00,96.35
2092.00,96.32
2091.00,96.29
2090.00,96.26
2089.00,96.23
2088.00,96.20
2087.00,96.20
2086.00,96.20
2085.00,96.20
2084.00,96.19
2083.00,96.16
2082.00,96.12
2081.00,96.09
2080.00,96.07
2079.00,96.06
2078.00,96.05
2077.00,96.04
2076.00,96.05
2075.00,96.06
2074.00,96.06
2073.00,96.04
2072.00,96.01
2071.00,96.01
2070.00,96.01
2069.00,96.00
2068.00,96.00
2067.00,96.00
2066.00,96.03
2065.00,96.05
2064.00,96.06
2063.00,96.05
2062.00,96.02
2061.00,96.01
2060.00,96.01
2059.00,96.02
2058.00,96.03
2057.00,96.02
2056.00,96.01
2055.00,96.02
2054.00,96.00
2053.00,95.92
2052.00,95.80
2051.00,95.69
2050.00,95.64
2049.00,95.62
2048.00,95.66
2047.00,95.72
2046.00,95.77
2045.00,95.77
2044.00,95.72
2043.00,95.66
2042.00,95.62
2041.00,95.61
2040.00,95.59
2039.00,95.56
2038.00,95.50
2037.00,95.42
2036.00,95.34
2035.00,95.32
2034.00,95.36
2033.00,95.43
2032.00,95.49
2031.00,95.55
2030.00,95.60
2029.00,95.65
2028.00,95.70
2027.00,95.74
2026.00,95.76
2025.00,95.77
2024.00,95.79
2023.00,95.82
2022.00,95.84
2021.00,95.83
2020.00,95.80
2019.00,95.79
2018.00,95.78
2017.00,95.76
2016.00,95.76
2015.00,95.79
2014.00,95.83
2013.00,95.85
2012.00,95.83
2011.00,95.77
2010.00,95.69
2009.00,95.64
2008.00,95.69
2007.00,95.80
2006.00,95.91
2005.00,95.97
2004.00,95.97
2003.00,95.96
2002.00,95.96
2001.00,95.97
2000.00,95.98
1999.00,96.00
1998.00,96.02
1997.00,96.04
1996.00,96.04
1995.00,96.03
1994.00,95.98
1993.00,95.89
1992.00,95.81
1991.00,95.77
1990.00,95.76
1989.00,95.76
1988.00,95.76
1987.00,95.78
1986.00,95.81
1985.00,95.81
1984.00,95.77
1983.00,95.71
1982.00,95.64
1981.00,95.57
1980.00,95.53
1979.00,95.57
1978.00,95.68
1977.00,95.80
1976.00,95.89
1975.00,95.94
1974.00,95.95
1973.00,95.94
1972.00,95.93
1971.00,95.94
1970.00,95.97
1969.00,96.02
1968.00,96.07
1967.00,96.11
1966.00,96.12
1965.00,96.10
1964.00,96.07
1963.00,96.06
1962.00,96.07
1961.00,96.10
1960.00,96.16
1959.00,96.24
1958.00,96.31
1957.00,96.35
1956.00,96.36
1955.00,96.37
1954.00,96.38
1953.00,96.38
1952.00,96.36
1951.00,96.36
1950.00,96.36
1949.00,96.38
1948.00,96.41
1947.00,96.46
1946.00,96.49
1945.00,96.49
1944.00,96.46
1943.00,96.44
1942.00,96.46
1941.00,96.50
1940.00,96.54
1939.00,96.59
1938.00,96.62
1937.00,96.64
1936.00,96.65
1935.00,96.66
1934.00,96.66
1933.00,96.63
1932.00,96.59
1931.00,96.57
1930.00,96.61
1929.00,96.68
1928.00,96.74
1927.00,96.78
1926.00,96.80
1925.00,96.78
1924.00,96.77
1923.00,96.76
1922.00,96.76
1921.00,96.75
1920.00,96.73
1919.00,96.74
1918.00,96.76
1917.00,96.78
1916.00,96.79
1915.00,96.81
1914.00,96.84
1913.00,96.86
1912.00,96.89
1911.00,96.92
1910.00,96.94
1909.00,96.94
1908.00,96.93
1907.00,96.93
1906.00,96.93
1905.00,96.93
1904.00,96.92
1903.00,96.93
1902.00,96.95
1901.00,96.96
1900.00,96.97
1899.00,96.98
1898.00,96.98
1897.00,96.97
1896.00,96.95
1895.00,96.94
1894.00,96.97
1893.00,96.99
1892.00,97.01
1891.00,97.02
1890.00,97.02
1889.00,97.02
1888.00,97.03
1887.00,97.06
1886.00,97.09
1885.00,97.08
1884.00,97.06
1883.00,97.03
1882.00,97.02
1881.00,97.02
1880.00,97.04
1879.00,97.07
1878.00,97.10
1877.00,97.12
1876.00,97.13
1875.00,97.15
1874.00,97.18
1873.00,97.20
1872.00,97.22
1871.00,97.23
1870.00,97.22
1869.00,97.18
1868.00,97.15
1867.00,97.14
1866.00,97.16
1865.00,97.18
1864.00,97.21
1863.00,97.24
1862.00,97.27
1861.00,97.26
1860.00,97.23
1859.00,97.21
1858.00,97.21
1857.00,97.22
1856.00,97.23
1855.00,97.24
1854.00,97.26
1853.00,97.27
1852.00,97.29
1851.00,97.31
1850.00,97.32
1849.00,97.33
1848.00,97.33
1847.00,97.35
1846.00,97.37
1845.00,97.37
1844.00,97.34
1843.00,97.35
1842.00,97.39
1841.00,97.44
1840.00,97.47
1839.00,97.49
1838.00,97.49
1837.00,97.49
1836.00,97.49
1835.00,97.49
1834.00,97.51
1833.00,97.54
1832.00,97.56
1831.00,97.56
1830.00,97.54
1829.00,97.54
1828.00,97.55
1827.00,97.57
1826.00,97.57
1825.00,97.54
1824.00,97.52
1823.00,97.51
1822.00,97.53
1821.00,97.54
1820.00,97.54
1819.00,97.56
1818.00,97.58
1817.00,97.59
1816.00,97.59
1815.00,97.61
1814.00,97.63
1813.00,97.64
1812.00,97.62
1811.00,97.58
1810.00,97.56
1809.00,97.55
1808.00,97.55
1807.00,97.57
1806.00,97.61
1805.00,97.64
1804.00,97.66
1803.00,97.67
1802.00,97.68
1801.00,97.67
1800.00,97.67
1799.00,97.68
1798.00,97.69
1797.00,97.69
1796.00,97.70
1795.00,97.71
1794.00,97.71
1793.00,97.68
1792.00,97.65
1791.00,97.64
1790.00,97.65
1789.00,97.67
1788.00,97.68
1787.00,97.67
1786.00,97.66
1785.00,97.64
1784.00,97.65
1783.00,97.67
1782.00,97.69
1781.00,97.68
1780.00,97.66
1779.00,97.66
1778.00,97.68
1777.00,97.69
1776.00,97.68
1775.00,97.66
1774.00,97.66
1773.00,97.66
1772.00,97.65
1771.00,97.67
1770.00,97.66
1769.00,97.62
1768.00,97.56
1767.00,97.53
1766.00,97.55
1765.00,97.60
1764.00,97.63
1763.00,97.65
1762.00,97.64
1761.00,97.63
1760.00,97.63
1759.00,97.64
1758.00,97.64
1757.00,97.61
1756.00,97.56
1755.00,97.53
1754.00,97.51
1753.00,97.50
1752.00,97.48
1751.00,97.47
1750.00,97.47
1749.00,97.46
1748.00,97.43
1747.00,97.41
1746.00,97.41
1745.00,97.39
1744.00,97.37
1743.00,97.35
1742.00,97.33
1741.00,97.29
1740.00,97.23
1739.00,97.18
1738.00,97.17
1737.00,97.16
1736.00,97.13
1735.00,97.06
1734.00,96.99
1733.00,96.98
1732.00,96.99
1731.00,96.99
1730.00,96.96
1729.00,96.90
1728.00,96.84
1727.00,96.80
1726.00,96.77
1725.00,96.71
1724.00,96.65
1723.00,96.61
1722.00,96.60
1721.00,96.56
1720.00,96.48
1719.00,96.36
1718.00,96.25
1717.00,96.17
1716.00,96.09
1715.00,96.01
1714.00,95.91
1713.00,95.79
1712.00,95.63
1711.00,95.47
1710.00,95.31
1709.00,95.10
1708.00,94.84
1707.00,94.48
1706.00,94.01
1705.00,93.47
1704.00,92.96
1703.00,92.54
1702.00,92.08
1701.00,91.40
1700.00,90.65
1699.00,90.17
1698.00,89.94
1697.00,89.77
1696.00,89.60
1695.00,89.49
1694.00,89.45
1693.00,89.41
1692.00,89.34
1691.00,89.21
1690.00,89.04
1689.00,88.82
1688.00,88.57
1687.00,88.36
1686.00,88.15
1685.00,87.83
1684.00,87.43
1683.00,87.15
1682.00,86.97
1681.00,86.77
1680.00,86.53
1679.00,86.30
1678.00,86.08
1677.00,85.83
1676.00,85.51
1675.00,85.16
1674.00,84.88
1673.00,84.64
1672.00,84.38
1671.00,84.04
1670.00,83.63
1669.00,83.22
1668.00,82.87
1667.00,82.62
1666.00,82.40
1665.00,82.16
1664.00,81.83
1663.00,81.41
1662.00,81.00
1661.00,80.63
1660.00,80.30
1659.00,79.99
1658.00,79.69
1657.00,79.39
1656.00,79.07
1655.00,78.68
1654.00,78.11
1653.00,77.49
1652.00,77.16
1651.00,77.08
1650.00,77.01
1649.00,76.81
1648.00,76.44
1647.00,75.97
1646.00,75.58
1645.00,75.32
1644.00,75.11
1643.00,74.90
1642.00,74.66
1641.00,74.41
1640.00,74.15
1639.00,73.91
1638.00,73.68
1637.00,73.39
1636.00,72.98
1635.00,72.58
1634.00,72.31
1633.00,72.11
1632.00,71.92
1631.00,71.72
1630.00,71.52
1629.00,71.31
1628.00,71.09
1627.00,70.93
1626.00,70.83
1625.00,70.77
1624.00,70.71
1623.00,70.66
1622.00,70.68
1621.00,70.74
1620.00,70.81
1619.00,70.91
1618.00,71.09
1617.00,71.39
1616.00,71.79
1615.00,72.19
1614.00,72.58
1613.00,72.96
1612.00,73.37
1611.00,73.83
1610.00,74.33
1609.00,74.88
1608.00,75.44
1607.00,76.01
1606.00,76.56
1605.00,77.11
1604.00,77.65
1603.00,78.18
1602.00,78.67
1601.00,79.14
1600.00,79.60
1599.00,80.03
1598.00,80.43
1597.00,80.81
1596.00,81.16
1595.00,81.50
1594.00,81.82
1593.00,82.13
1592.00,82.45
1591.00,82.74
1590.00,83.01
1589.00,83.26
1588.00,83.49
1587.00,83.68
1586.00,83.84
1585.00,83.99
1584.00,84.12
1583.00,84.23
1582.00,84.31
1581.00,84.35
1580.00,84.37
1579.00,84.36
1578.00,84.29
1577.00,84.20
1576.00,84.14
1575.00,84.13
1574.00,84.14
1573.00,84.13
1572.00,84.09
1571.00,83.97
1570.00,83.74
1569.00,83.49
1568.00,83.29
1567.00,83.12
1566.00,82.90
1565.00,82.62
1564.00,82.33
1563.00,82.08
1562.00,81.90
1561.00,81.73
1560.00,81.38
1559.00,80.83
1558.00,80.38
1557.00,80.15
1556.00,79.97
1555.00,79.74
1554.00,79.48
1553.00,79.25
1552.00,79.04
1551.00,78.79
1550.00,78.47
1549.00,78.16
1548.00,77.90
1547.00,77.70
1546.00,77.47
1545.00,77.21
1544.00,76.94
1543.00,76.68
1542.00,76.37
1541.00,75.98
1540.00,75.56
1539.00,75.28
1538.00,75.16
1537.00,75.09
1536.00,75.02
1535.00,74.87
1534.00,74.60
1533.00,74.28
1532.00,74.02
1531.00,73.84
1530.00,73.68
1529.00,73.51
1528.00,73.32
1527.00,73.12
1526.00,72.91
1525.00,72.71
1524.00,72.54
1523.00,72.33
1522.00,72.07
1521.00,71.79
1520.00,71.60
1519.00,71.42
1518.00,71.17
1517.00,70.87
1516.00,70.62
1515.00,70.48
1514.00,70.44
1513.00,70.47
1512.00,70.55
1511.00,70.66
1510.00,70.77
1509.00,70.88
1508.00,71.00
1507.00,71.18
1506.00,71.41
1505.00,71.70
1504.00,71.99
1503.00,72.28
1502.00,72.55
1501.00,72.82
1500.00,73.11
1499.00,73.40
1498.00,73.71
1497.00,74.07
1496.00,74.51
1495.00,74.95
1494.00,75.38
1493.00,75.79
1492.00,76.22
1491.00,76.68
1490.00,77.14
1489.00,77.57
1488.00,77.97
1487.00,78.34
1486.00,78.68
1485.00,79.01
1484.00,79.33
1483.00,79.63
1482.00,79.91
1481.00,80.19
1480.00,80.44
1479.00,80.68
1478.00,80.90
1477.00,81.08
1476.00,81.21
1475.00,81.30
1474.00,81.37
1473.00,81.40
1472.00,81.42
1471.00,81.45
1470.00,81.50
1469.00,81.54
1468.00,81.58
1467.00,81.60
1466.00,81.58
1465.00,81.48
1464.00,81.36
1463.00,81.27
1462.00,81.23
1461.00,81.19
1460.00,81.10
1459.00,80.94
1458.00,80.67
1457.00,80.33
1456.00,80.08
1455.00,79.94
1454.00,79.84
1453.00,79.71
1452.00,79.55
1451.00,79.39
1450.00,79.25
1449.00,79.10
1448.00,78.96
1447.00,78.85
1446.00,78.79
1445.00,78.77
1444.00,78.78
1443.00,78.80
1442.00,78.84
1441.00,78.90
1440.00,78.98
1439.00,79.08
1438.00,79.21
1437.00,79.36
1436.00,79.55
1435.00,79.79
1434.00,80.03
1433.00,80.28
1432.00,80.52
1431.00,80.75
1430.00,80.96
1429.00,81.14
1428.00,81.31
1427.00,81.45
1426.00,81.58
1425.00,81.68
1424.00,81.75
1423.00,81.82
1422.00,81.88
1421.00,81.95
1420.00,81.99
1419.00,82.00
1418.00,82.01
1417.00,82.03
1416.00,82.04
1415.00,82.05
1414.00,82.06
1413.00,82.07
1412.00,82.06
1411.00,82.04
1410.00,82.01
1409.00,82.00
1408.00,81.99
1407.00,81.99
1406.00,81.98
1405.00,81.95
1404.00,81.94
1403.00,81.94
1402.00,81.98
1401.00,82.03
1400.00,82.06
1399.00,82.08
1398.00,82.11
1397.00,82.15
1396.00,82.19
1395.00,82.21
1394.00,82.22
1393.00,82.23
1392.00,82.26
1391.00,82.29
1390.00,82.32
1389.00,82.35
1388.00,82.38
1387.00,82.40
1386.00,82.42
1385.00,82.45
1384.00,82.47
1383.00,82.48
1382.00,82.50
1381.00,82.51
1380.00,82.53
1379.00,82.55
1378.00,82.56
1377.00,82.56
1376.00,82.55
1375.00,82.52
1374.00,82.46
1373.00,82.40
1372.00,82.35
1371.00,82.35
1370.00,82.37
1369.00,82.42
1368.00,82.49
1367.00,82.58
1366.00,82.71
1365.00,82.86
1364.00,83.00
1363.00,83.11
1362.00,83.21
1361.00,83.30
1360.00,83.39
1359.00,83.47
1358.00,83.56
1357.00,83.63
1356.00,83.69
1355.00,83.74
1354.00,83.77
1353.00,83.80
1352.00,83.81
1351.00,83.81
1350.00,83.81
1349.00,83.81
1348.00,83.80
1347.00,83.78
1346.00,83.75
1345.00,83.73
1344.00,83.71
1343.00,83.71
1342.00,83.71
1341.00,83.70
1340.00,83.67
1339.00,83.63
1338.00,83.59
1337.00,83.56
1336.00,83.54
1335.00,83.54
1334.00,83.56
1333.00,83.60
1332.00,83.64
1331.00,83.68
1330.00,83.72
1329.00,83.76
1328.00,83.79
1327.00,83.81
1326.00,83.84
1325.00,83.87
1324.00,83.90
1323.00,83.93
1322.00,83.94
1321.00,83.95
1320.00,83.95
1319.00,83.93
1318.00,83.91
1317.00,83.91
1316.00,83.92
1315.00,83.93
1314.00,83.95
1313.00,83.96
1312.00,83.99
1311.00,84.02
1310.00,84.06
1309.00,84.11
1308.00,84.16
1307.00,84.20
1306.00,84.23
1305.00,84.25
1304.00,84.29
1303.00,84.33
1302.00,84.36
1301.00,84.39
1300.00,84.41
1299.00,84.42
1298.00,84.43
1297.00,84.43
1296.00,84.43
1295.00,84.42
1294.00,84.41
1293.00,84.41
1292.00,84.40
1291.00,84.41
1290.00,84.42
1289.00,84.43
1288.00,84.43
1287.00,84.41
1286.00,84.38
1285.00,84.35
1284.00,84.31
1283.00,84.28
1282.00,84.22
1281.00,84.16
1280.00,84.09
1279.00,84.01
1278.00,83.93
1277.00,83.85
1276.00,83.76
1275.00,83.65
1274.00,83.53
1273.00,83.39
1272.00,83.22
1271.00,83.03
1270.00,82.80
1269.00,82.55
1268.00,82.27
1267.00,81.97
1266.00,81.67
1265.00,81.37
1264.00,81.11
1263.00,80.89
1262.00,80.73
1261.00,80.62
1260.00,80.55
1259.00,80.54
1258.00,80.57
1257.00,80.63
1256.00,80.71
1255.00,80.79
1254.00,80.86
1253.00,80.91
1252.00,80.94
1251.00,80.94
1250.00,80.92
1249.00,80.87
1248.00,80.81
1247.00,80.74
1246.00,80.66
1245.00,80.59
1244.00,80.50
1243.00,80.40
1242.00,80.29
1241.00,80.18
1240.00,80.06
1239.00,79.94
1238.00,79.82
1237.00,79.71
1236.00,79.61
1235.00,79.52
1234.00,79.44
1233.00,79.36
1232.00,79.29
1231.00,79.23
1230.00,79.19
1229.00,79.16
1228.00,79.14
1227.00,79.13
1226.00,79.15
1225.00,79.18
1224.00,79.22
1223.00,79.27
1222.00,79.32
1221.00,79.37
1220.00,79.43
1219.00,79.52
1218.00,79.64
1217.00,79.78
1216.00,79.92
1215.00,80.08
1214.00,80.25
1213.00,80.41
1212.00,80.58
1211.00,80.73
1210.00,80.89
1209.00,81.07
1208.00,81.25
1207.00,81.43
1206.00,81.62
1205.00,81.79
1204.00,81.97
1203.00,82.16
1202.00,82.34
1201.00,82.52
1200.00,82.69
1199.00,82.84
1198.00,82.97
1197.00,83.08
1196.00,83.19
1195.00,83.30
1194.00,83.40
1193.00,83.50
1192.00,83.57
1191.00,83.63
1190.00,83.68
1189.00,83.71
1188.00,83.73
1187.00,83.77
1186.00,83.81
1185.00,83.86
1184.00,83.88
1183.00,83.88
1182.00,83.85
1181.00,83.80
1180.00,83.72
1179.00,83.62
1178.00,83.50
1177.00,83.36
1176.00,83.20
1175.00,83.05
1174.00,82.91
1173.00,82.79
1172.00,82.67
1171.00,82.55
1170.00,82.44
1169.00,82.34
1168.00,82.24
1167.00,82.14
1166.00,82.07
1165.00,82.03
1164.00,82.00
1163.00,81.99
1162.00,82.00
1161.00,82.01
1160.00,82.04
1159.00,82.07
1158.00,82.12
1157.00,82.18
1156.00,82.25
1155.00,82.34
1154.00,82.45
1153.00,82.58
1152.00,82.72
1151.00,82.86
1150.00,83.00
1149.00,83.13
1148.00,83.25
1147.00,83.37
1146.00,83.48
1145.00,83.60
1144.00,83.74
1143.00,83.89
1142.00,84.04
1141.00,84.18
1140.00,84.29
1139.00,84.38
1138.00,84.46
1137.00,84.54
1136.00,84.60
1135.00,84.62
1134.00,84.62
1133.00,84.59
1132.00,84.57
1131.00,84.55
1130.00,84.54
1129.00,84.51
1128.00,84.46
1127.00,84.38
1126.00,84.28
1125.00,84.17
1124.00,84.08
1123.00,84.00
1122.00,83.93
1121.00,83.85
1120.00,83.75
1119.00,83.65
1118.00,83.55
1117.00,83.44
1116.00,83.29
1115.00,83.13
1114.00,82.98
1113.00,82.84
1112.00,82.73
1111.00,82.63
1110.00,82.54
1109.00,82.44
1108.00,82.35
1107.00,82.25
1106.00,82.18
1105.00,82.13
1104.00,82.10
1103.00,82.08
1102.00,82.05
1101.00,82.03
1100.00,82.02
1099.00,82.03
1098.00,82.09
1097.00,82.15
1096.00,82.19
1095.00,82.20
1094.00,82.19
1093.00,82.19
1092.00,82.20
1091.00,82.21
1090.00,82.19
1089.00,82.13
1088.00,82.05
1087.00,81.95
1086.00,81.85
1085.00,81.76
1084.00,81.66
1083.00,81.56
1082.00,81.45
1081.00,81.34
1080.00,81.22
1079.00,81.09
1078.00,80.98
1077.00,80.89
1076.00,80.79
1075.00,80.69
1074.00,80.57
1073.00,80.45
1072.00,80.35
1071.00,80.26
1070.00,80.20
1069.00,80.14
1068.00,80.10
1067.00,80.07
1066.00,80.02
1065.00,79.94
1064.00,79.83
1063.00,79.71
1062.00,79.60
1061.00,79.51
1060.00,79.42
1059.00,79.34
1058.00,79.28
1057.00,79.25
1056.00,79.23
1055.00,79.20
1054.00,79.15
1053.00,79.09
1052.00,79.01
1051.00,78.93
1050.00,78.83
1049.00,78.72
1048.00,78.61
1047.00,78.48
1046.00,78.37
1045.00,78.28
1044.00,78.22
1043.00,78.19
1042.00,78.18
1041.00,78.20
1040.00,78.26
1039.00,78.34
1038.00,78.42
1037.00,78.49
1036.00,78.56
1035.00,78.64
1034.00,78.74
1033.00,78.83
1032.00,78.93
1031.00,79.02
1030.00,79.10
1029.00,79.18
1028.00,79.28
1027.00,79.39
1026.00,79.51
1025.00,79.62
1024.00,79.72
1023.00,79.80
1022.00,79.87
1021.00,79.93
1020.00,79.99
1019.00,80.05
1018.00,80.12
1017.00,80.19
1016.00,80.25
1015.00,80.32
1014.00,80.40
1013.00,80.51
1012.00,80.62
1011.00,80.73
1010.00,80.85
1009.00,80.98
1008.00,81.10
1007.00,81.21
1006.00,81.30
1005.00,81.39
1004.00,81.46
1003.00,81.51
1002.00,81.57
1001.00,81.62
1000.00,81.69
999.00,81.76
998.00,81.84
997.00,81.92
996.00,81.99
995.00,82.06
994.00,82.14
993.00,82.23
992.00,82.34
991.00,82.46
990.00,82.59
989.00,82.71
988.00,82.82
987.00,82.92
986.00,83.00
985.00,83.08
984.00,83.16
983.00,83.23
982.00,83.30
981.00,83.37
980.00,83.41
979.00,83.45
978.00,83.47
977.00,83.50
976.00,83.55
975.00,83.60
974.00,83.66
973.00,83.72
972.00,83.78
971.00,83.83
970.00,83.87
969.00,83.90
968.00,83.91
967.00,83.93
966.00,83.95
965.00,84.00
964.00,84.09
963.00,84.21
962.00,84.35
961.00,84.49
960.00,84.63
959.00,84.76
958.00,84.88
957.00,85.01
956.00,85.13
955.00,85.26
954.00,85.38
953.00,85.50
952.00,85.60
951.00,85.70
950.00,85.78
949.00,85.85
948.00,85.89
947.00,85.92
946.00,85.95
945.00,85.99
944.00,86.05
943.00,86.11
942.00,86.15
941.00,86.16
940.00,86.17
939.00,86.17
938.00,86.20
937.00,86.23
936.00,86.28
935.00,86.32
934.00,86.36
933.00,86.36
932.00,86.34
931.00,86.30
930.00,86.27
929.00,86.27
928.00,86.31
927.00,86.36
926.00,86.40
925.00,86.45
924.00,86.50
923.00,86.57
922.00,86.64
921.00,86.69
920.00,86.74
919.00,86.79
918.00,86.84
917.00,86.89
916.00,86.94
915.00,86.98
914.00,87.02
913.00,87.07
912.00,87.11
911.00,87.15
910.00,87.18
909.00,87.21
908.00,87.22
907.00,87.22
906.00,87.21
905.00,87.19
904.00,87.16
903.00,87.13
902.00,87.10
901.00,87.10
900.00,87.10
899.00,87.11
898.00,87.12
897.00,87.13
896.00,87.15
895.00,87.18
894.00,87.21
893.00,87.23
892.00,87.24
891.00,87.23
890.00,87.22
889.00,87.21
888.00,87.23
887.00,87.27
886.00,87.32
885.00,87.36
884.00,87.37
883.00,87.36
882.00,87.35
881.00,87.33
880.00,87.32
879.00,87.30
878.00,87.29
877.00,87.30
876.00,87.32
875.00,87.33
874.00,87.34
873.00,87.34
872.00,87.37
871.00,87.42
870.00,87.47
869.00,87.49
868.00,87.50
867.00,87.49
866.00,87.49
865.00,87.47
864.00,87.45
863.00,87.42
862.00,87.40
861.00,87.40
860.00,87.42
859.00,87.43
858.00,87.41
857.00,87.38
856.00,87.34
855.00,87.30
854.00,87.25
853.00,87.18
852.00,87.10
851.00,87.05
850.00,87.03
849.00,87.05
848.00,87.09
847.00,87.11
846.00,87.11
845.00,87.08
844.00,87.03
843.00,86.96
842.00,86.90
841.00,86.86
840.00,86.83
839.00,86.81
838.00,86.75
837.00,86.65
836.00,86.55
835.00,86.45
834.00,86.36
833.00,86.24
832.00,86.11
831.00,85.98
830.00,85.88
829.00,85.77
828.00,85.64
827.00,85.49
826.00,85.35
825.00,85.22
824.00,85.13
823.00,85.05
822.00,84.99
821.00,84.93
820.00,84.86
819.00,84.77
818.00,84.69
817.00,84.62
816.00,84.57
815.00,84.51
814.00,84.44
813.00,84.36
812.00,84.27
811.00,84.19
810.00,84.13
809.00,84.07
808.00,84.01
807.00,83.95
806.00,83.88
805.00,83.81
804.00,83.74
803.00,83.69
802.00,83.66
801.00,83.64
800.00,83.63
799.00,83.61
798.00,83.59
797.00,83.58
796.00,83.58
795.00,83.60
794.00,83.66
793.00,83.76
792.00,83.86
791.00,83.92
790.00,83.94
789.00,83.92
788.00,83.90
787.00,83.91
786.00,83.93
785.00,83.95
784.00,83.94
783.00,83.93
782.00,83.91
781.00,83.89
780.00,83.87
779.00,83.84
778.00,83.81
777.00,83.77
776.00,83.75
775.00,83.73
774.00,83.70
773.00,83.66
772.00,83.58
771.00,83.49
770.00,83.39
769.00,83.30
768.00,83.22
767.00,83.15
766.00,83.09
765.00,83.04
764.00,82.98
763.00,82.89
762.00,82.77
761.00,82.65
760.00,82.54
759.00,82.46
758.00,82.40
757.00,82.35
756.00,82.29
755.00,82.21
754.00,82.14
753.00,82.09
752.00,82.04
751.00,81.97
750.00,81.86
749.00,81.72
748.00,81.58
747.00,81.45
746.00,81.34
745.00,81.25
744.00,81.15
743.00,81.04
742.00,80.93
741.00,80.85
740.00,80.79
739.00,80.72
738.00,80.62
737.00,80.48
736.00,80.31
735.00,80.16
734.00,80.06
733.00,79.98
732.00,79.90
731.00,79.77
730.00,79.61
729.00,79.43
728.00,79.27
727.00,79.12
726.00,78.94
725.00,78.73
724.00,78.53
723.00,78.34
722.00,78.18
721.00,78.03
720.00,77.88
719.00,77.74
718.00,77.60
717.00,77.45
716.00,77.27
715.00,77.05
714.00,76.84
713.00,76.63
712.00,76.43
711.00,76.23
710.00,76.02
709.00,75.80
708.00,75.58
707.00,75.39
706.00,75.23
705.00,75.06
704.00,74.90
703.00,74.76
702.00,74.64
701.00,74.52
700.00,74.38
699.00,74.23
698.00,74.08
697.00,73.96
696.00,73.87
695.00,73.82
694.00,73.79
693.00,73.74
692.00,73.68
691.00,73.61
690.00,73.54
689.00,73.47
688.00,73.37
687.00,73.26
686.00,73.18
685.00,73.12
684.00,73.07
683.00,73.02
682.00,72.96
681.00,72.90
680.00,72.86
679.00,72.82
678.00,72.77
677.00,72.69
676.00,72.58
675.00,72.48
674.00,72.39
673.00,72.30
672.00,72.20
671.00,72.11
670.00,72.04
669.00,72.00
668.00,71.92
667.00,71.79
666.00,71.63
665.00,71.46
664.00,71.30
663.00,71.19
662.00,71.18
661.00,71.24
660.00,71.29
659.00,71.30
658.00,71.29
657.00,71.30
656.00,71.36
655.00,71.43
654.00,71.43
653.00,71.33
652.00,71.16
651.00,70.97
650.00,70.83
649.00,70.73
648.00,70.67
647.00,70.63
646.00,70.59
645.00,70.50
644.00,70.36
643.00,70.21
642.00,70.10
641.00,70.03
640.00,69.93
639.00,69.81
638.00,69.71
637.00,69.66
636.00,69.61
635.00,69.56
634.00,69.51
633.00,69.45
632.00,69.35
631.00,69.20
630.00,69.05
629.00,68.99
628.00,69.04
627.00,69.08
626.00,68.99
625.00,68.76
624.00,68.54
623.00,68.47
622.00,68.51
621.00,68.48
620.00,68.31
619.00,68.00
618.00,67.64
617.00,67.36
616.00,67.33
615.00,67.61
614.00,67.98
613.00,68.14
612.00,67.98
611.00,67.67
610.00,67.43
609.00,67.36
608.00,67.42
607.00,67.59
606.00,67.84
605.00,68.09
604.00,68.23
603.00,68.22
602.00,68.09
601.00,67.96
600.00,67.93
599.00,67.99
598.00,68.00
597.00,67.89
596.00,67.75
595.00,67.78
594.00,68.03
593.00,68.31
592.00,68.40
591.00,68.28
590.00,68.11
589.00,68.09
588.00,68.32
587.00,68.73
586.00,69.07
585.00,69.09
584.00,68.82
583.00,68.48
582.00,68.24
581.00,68.07
580.00,67.87
579.00,67.70
578.00,67.61
577.00,67.57
576.00,67.54
575.00,67.44
574.00,67.16
573.00,66.70
572.00,66.25
571.00,66.05
570.00,66.13
569.00,66.33
568.00,66.63
567.00,66.96
566.00,67.12
565.00,66.90
564.00,66.56
563.00,66.53
562.00,66.90
561.00,67.21
560.00,67.06
559.00,66.49
558.00,65.80
557.00,65.26
556.00,65.08
555.00,65.33
554.00,65.78
553.00,65.97
552.00,65.80
551.00,65.37
550.00,64.82
