Created as New Dataset,6.4. Raw cotton boll
cm-1,%T
4000.00,99.95
3999.00,99.96
3998.00,99.96
3997.00,99.95
3996.00,99.94
3995.00,99.92
3994.00,99.90
3993.00,99.89
3992.00,99.88
3991.00,99.86
3990.00,99.85
3989.00,99.85
3988.00,99.86
3987.00,99.86
3986.00,99.87
3985.00,99.88
3984.00,99.89
3983.00,99.90
3982.00,99.92
3981.00,99.93
3980.00,99.94
3979.00,99.94
3978.00,99.95
3977.00,99.96
3976.00,99.96
3975.00,99.96
3974.00,99.96
3973.00,99.94
3972.00,99.93
3971.00,99.93
3970.00,99.92
3969.00,99.93
3968.00,99.94
3967.00,99.94
3966.00,99.95
3965.00,99.95
3964.00,99.96
3963.00,99.96
3962.00,99.96
3961.00,99.96
3960.00,99.95
3959.00,99.95
3958.00,99.95
3957.00,99.94
3956.00,99.94
3955.00,99.94
3954.00,99.95
3953.00,99.95
3952.00,99.96
3951.00,99.96
3950.00,99.96
3949.00,99.96
3948.00,99.97
3947.00,99.98
3946.00,99.98
3945.00,99.98
3944.00,99.97
3943.00,99.95
3942.00,99.93
3941.00,99.92
3940.00,99.92
3939.00,99.93
3938.00,99.94
3937.00,99.96
3936.00,99.97
3935.00,99.97
3934.00,99.97
3933.00,99.97
3932.00,99.96
3931.00,99.96
3930.00,99.96
3929.00,99.96
3928.00,99.97
3927.00,99.97
3926.00,99.96
3925.00,99.94
3924.00,99.92
3923.00,99.90
3922.00,99.91
3921.00,99.94
3920.00,99.95
3919.00,99.95
3918.00,99.94
3917.00,99.91
3916.00,99.89
3915.00,99.89
3914.00,99.89
3913.00,99.91
3912.00,99.93
3911.00,99.95
3910.00,99.96
3909.00,99.97
3908.00,99.97
3907.00,99.96
3906.00,99.95
3905.00,99.94
3904.00,99.92
3903.00,99.90
3902.00,99.87
3901.00,99.86
3900.00,99.88
3899.00,99.91
3898.00,99.93
3897.00,99.94
3896.00,99.94
3895.00,99.93
3894.00,99.92
3893.00,99.92
3892.00,99.93
3891.00,99.94
3890.00,99.94
3889.00,99.93
3888.00,99.91
3887.00,99.90
3886.00,99.91
3885.00,99.91
3884.00,99.91
3883.00,99.90
3882.00,99.89
3881.00,99.88
3880.00,99.87
3879.00,99.87
3878.00,99.88
3877.00,99.90
3876.00,99.91
3875.00,99.92
3874.00,99.91
3873.00,99.88
3872.00,99.86
3871.00,99.87
3870.00,99.90
3869.00,99.92
3868.00,99.93
3867.00,99.92
3866.00,99.91
3865.00,99.91
3864.00,99.90
3863.00,99.89
3862.00,99.88
3861.00,99.89
3860.00,99.90
3859.00,99.92
3858.00,99.92
3857.00,99.92
3856.00,99.91
3855.00,99.91
3854.00,99.91
3853.00,99.91
3852.00,99.92
3851.00,99.93
3850.00,99.95
3849.00,99.97
3848.00,99.99
3847.00,100.00
3846.00,100.00
3845.00,100.00
3844.00,100.00
3843.00,99.99
3842.00,99.96
3841.00,99.93
3840.00,99.89
3839.00,99.87
3838.00,99.87
3837.00,99.88
3836.00,99.90
3835.00,99.92
3834.00,99.93
3833.00,99.92
3832.00,99.91
3831.00,99.90
3830.00,99.90
3829.00,99.91
3828.00,99.93
3827.00,99.96
3826.00,99.99
3825.00,100.00
3824.00,99.99
3823.00,99.97
3822.00,99.95
3821.00,99.92
3820.00,99.89
3819.00,99.87
3818.00,99.87
3817.00,99.88
3816.00,99.89
3815.00,99.89
3814.00,99.87
3813.00,99.86
3812.00,99.86
3811.00,99.86
3810.00,99.86
3809.00,99.85
3808.00,99.84
3807.00,99.84
3806.00,99.85
3805.00,99.85
3804.00,99.85
3803.00,99.87
3802.00,99.88
3801.00,99.87
3800.00,99.86
3799.00,99.84
3798.00,99.84
3797.00,99.84
3796.00,99.85
3795.00,99.84
3794.00,99.84
3793.00,99.85
3792.00,99.86
3791.00,99.87
3790.00,99.87
3789.00,99.86
3788.00,99.86
3787.00,99.86
3786.00,99.86
3785.00,99.86
3784.00,99.86
3783.00,99.86
3782.00,99.86
3781.00,99.88
3780.00,99.89
3779.00,99.88
3778.00,99.87
3777.00,99.84
3776.00,99.82
3775.00,99.81
3774.00,99.80
3773.00,99.79
3772.00,99.78
3771.00,99.77
3770.00,99.76
3769.00,99.75
3768.00,99.75
3767.00,99.74
3766.00,99.74
3765.00,99.74
3764.00,99.75
3763.00,99.75
3762.00,99.75
3761.00,99.75
3760.00,99.75
3759.00,99.76
3758.00,99.78
3757.00,99.80
3756.00,99.80
3755.00,99.77
3754.00,99.73
3753.00,99.69
3752.00,99.64
3751.00,99.61
3750.00,99.61
3749.00,99.63
3748.00,99.64
3747.00,99.64
3746.00,99.65
3745.00,99.68
3744.00,99.71
3743.00,99.73
3742.00,99.72
3741.00,99.71
3740.00,99.69
3739.00,99.67
3738.00,99.66
3737.00,99.68
3736.00,99.72
3735.00,99.74
3734.00,99.73
3733.00,99.70
3732.00,99.67
3731.00,99.67
3730.00,99.67
3729.00,99.69
3728.00,99.71
3727.00,99.74
3726.00,99.75
3725.00,99.75
3724.00,99.73
3723.00,99.70
3722.00,99.67
3721.00,99.65
3720.00,99.63
3719.00,99.63
3718.00,99.65
3717.00,99.66
3716.00,99.68
3715.00,99.70
3714.00,99.71
3713.00,99.70
3712.00,99.68
3711.00,99.65
3710.00,99.63
3709.00,99.63
3708.00,99.64
3707.00,99.64
3706.00,99.62
3705.00,99.61
3704.00,99.59
3703.00,99.58
3702.00,99.58
3701.00,99.58
3700.00,99.58
3699.00,99.59
3698.00,99.60
3697.00,99.62
3696.00,99.64
3695.00,99.66
3694.00,99.66
3693.00,99.66
3692.00,99.65
3691.00,99.65
3690.00,99.64
3689.00,99.64
3688.00,99.63
3687.00,99.62
3686.00,99.60
3685.00,99.60
3684.00,99.61
3683.00,99.61
3682.00,99.61
3681.00,99.60
3680.00,99.58
3679.00,99.56
3678.00,99.55
3677.00,99.54
3676.00,99.53
3675.00,99.52
3674.00,99.50
3673.00,99.48
3672.00,99.48
3671.00,99.49
3670.00,99.50
3669.00,99.49
3668.00,99.47
3667.00,99.45
3666.00,99.44
3665.00,99.44
3664.00,99.43
3663.00,99.43
3662.00,99.43
3661.00,99.43
3660.00,99.43
3659.00,99.43
3658.00,99.45
3657.00,99.47
3656.00,99.48
3655.00,99.45
3654.00,99.39
3653.00,99.33
3652.00,99.30
3651.00,99.32
3650.00,99.34
3649.00,99.35
3648.00,99.33
3647.00,99.31
3646.00,99.30
3645.00,99.29
3644.00,99.28
3643.00,99.28
3642.00,99.27
3641.00,99.26
3640.00,99.25
3639.00,99.25
3638.00,99.24
3637.00,99.23
3636.00,99.21
3635.00,99.17
3634.00,99.12
3633.00,99.06
3632.00,99.03
3631.00,99.04
3630.00,99.07
3629.00,99.10
3628.00,99.10
3627.00,99.09
3626.00,99.09
3625.00,99.09
3624.00,99.06
3623.00,99.02
3622.00,98.96
3621.00,98.91
3620.00,98.90
3619.00,98.91
3618.00,98.91
3617.00,98.90
3616.00,98.87
3615.00,98.84
3614.00,98.82
3613.00,98.80
3612.00,98.78
3611.00,98.77
3610.00,98.76
3609.00,98.74
3608.00,98.72
3607.00,98.69
3606.00,98.65
3605.00,98.63
3604.00,98.63
3603.00,98.63
3602.00,98.63
3601.00,98.63
3600.00,98.62
3599.00,98.60
3598.00,98.58
3597.00,98.55
3596.00,98.51
3595.00,98.46
3594.00,98.41
3593.00,98.36
3592.00,98.33
3591.00,98.31
3590.00,98.29
3589.00,98.28
3588.00,98.27
3587.00,98.25
3586.00,98.24
3585.00,98.23
3584.00,98.22
3583.00,98.19
3582.00,98.16
3581.00,98.12
3580.00,98.08
3579.00,98.04
3578.00,98.01
3577.00,97.98
3576.00,97.95
3575.00,97.92
3574.00,97.90
3573.00,97.89
3572.00,97.89
3571.00,97.89
3570.00,97.87
3569.00,97.84
3568.00,97.79
3567.00,97.74
3566.00,97.70
3565.00,97.67
3564.00,97.65
3563.00,97.62
3562.00,97.60
3561.00,97.57
3560.00,97.54
3559.00,97.51
3558.00,97.48
3557.00,97.46
3556.00,97.45
3555.00,97.44
3554.00,97.41
3553.00,97.39
3552.00,97.35
3551.00,97.32
3550.00,97.28
3549.00,97.23
3548.00,97.19
3547.00,97.14
3546.00,97.11
3545.00,97.08
3544.00,97.05
3543.00,97.03
3542.00,97.00
3541.00,96.99
3540.00,96.98
3539.00,96.97
3538.00,96.95
3537.00,96.92
3536.00,96.89
3535.00,96.86
3534.00,96.84
3533.00,96.82
3532.00,96.78
3531.00,96.73
3530.00,96.69
3529.00,96.65
3528.00,96.61
3527.00,96.56
3526.00,96.51
3525.00,96.47
3524.00,96.44
3523.00,96.41
3522.00,96.38
3521.00,96.35
3520.00,96.33
3519.00,96.32
3518.00,96.29
3517.00,96.24
3516.00,96.18
3515.00,96.14
3514.00,96.11
3513.00,96.10
3512.00,96.08
3511.00,96.05
3510.00,96.01
3509.00,95.97
3508.00,95.94
3507.00,95.90
3506.00,95.85
3505.00,95.80
3504.00,95.75
3503.00,95.72
3502.00,95.69
3501.00,95.66
3500.00,95.62
3499.00,95.58
3498.00,95.53
3497.00,95.48
3496.00,95.43
3495.00,95.38
3494.00,95.35
3493.00,95.32
3492.00,95.29
3491.00,95.25
3490.00,95.21
3489.00,95.16
3488.00,95.11
3487.00,95.05
3486.00,94.99
3485.00,94.94
3484.00,94.89
3483.00,94.86
3482.00,94.83
3481.00,94.80
3480.00,94.77
3479.00,94.72
3478.00,94.66
3477.00,94.59
3476.00,94.52
3475.00,94.45
3474.00,94.40
3473.00,94.36
3472.00,94.33
3471.00,94.29
3470.00,94.25
3469.00,94.22
3468.00,94.19
3467.00,94.15
3466.00,94.11
3465.00,94.05
3464.00,93.99
3463.00,93.93
3462.00,93.87
3461.00,93.81
3460.00,93.75
3459.00,93.70
3458.00,93.65
3457.00,93.61
3456.00,93.57
3455.00,93.52
3454.00,93.46
3453.00,93.38
3452.00,93.32
3451.00,93.27
3450.00,93.24
3449.00,93.22
3448.00,93.20
3447.00,93.17
3446.00,93.13
3445.00,93.08
3444.00,93.01
3443.00,92.94
3442.00,92.87
3441.00,92.79
3440.00,92.73
3439.00,92.68
3438.00,92.62
3437.00,92.58
3436.00,92.53
3435.00,92.48
3434.00,92.44
3433.00,92.40
3432.00,92.35
3431.00,92.28
3430.00,92.22
3429.00,92.16
3428.00,92.11
3427.00,92.07
3426.00,92.03
3425.00,91.99
3424.00,91.93
3423.00,91.87
3422.00,91.81
3421.00,91.76
3420.00,91.72
3419.00,91.67
3418.00,91.62
3417.00,91.56
3416.00,91.49
3415.00,91.42
3414.00,91.36
3413.00,91.30
3412.00,91.23
3411.00,91.16
3410.00,91.10
3409.00,91.04
3408.00,90.99
3407.00,90.96
3406.00,90.93
3405.00,90.91
3404.00,90.89
3403.00,90.85
3402.00,90.82
3401.00,90.78
3400.00,90.75
3399.00,90.72
3398.00,90.66
3397.00,90.58
3396.00,90.51
3395.00,90.45
3394.00,90.42
3393.00,90.41
3392.00,90.39
3391.00,90.35
3390.00,90.29
3389.00,90.23
3388.00,90.17
3387.00,90.13
3386.00,90.09
3385.00,90.05
3384.00,90.01
3383.00,89.96
3382.00,89.91
3381.00,89.88
3380.00,89.85
3379.00,89.82
3378.00,89.79
3377.00,89.75
3376.00,89.70
3375.00,89.65
3374.00,89.60
3373.00,89.55
3372.00,89.51
3371.00,89.46
3370.00,89.41
3369.00,89.37
3368.00,89.31
3367.00,89.25
3366.00,89.18
3365.00,89.11
3364.00,89.06
3363.00,89.03
3362.00,89.00
3361.00,88.96
3360.00,88.90
3359.00,88.83
3358.00,88.77
3357.00,88.71
3356.00,88.65
3355.00,88.60
3354.00,88.53
3353.00,88.45
3352.00,88.37
3351.00,88.30
3350.00,88.23
3349.00,88.18
3348.00,88.12
3347.00,88.07
3346.00,88.02
3345.00,87.96
3344.00,87.91
3343.00,87.85
3342.00,87.79
3341.00,87.74
3340.00,87.71
3339.00,87.68
3338.00,87.65
3337.00,87.63
3336.00,87.60
3335.00,87.59
3334.00,87.58
3333.00,87.57
3332.00,87.58
3331.00,87.58
3330.00,87.59
3329.00,87.60
3328.00,87.61
3327.00,87.64
3326.00,87.68
3325.00,87.72
3324.00,87.76
3323.00,87.79
3322.00,87.80
3321.00,87.80
3320.00,87.80
3319.00,87.81
3318.00,87.83
3317.00,87.87
3316.00,87.90
3315.00,87.92
3314.00,87.93
3313.00,87.94
3312.00,87.94
3311.00,87.95
3310.00,87.95
3309.00,87.96
3308.00,87.97
3307.00,87.98
3306.00,87.99
3305.00,87.98
3304.00,87.97
3303.00,87.96
3302.00,87.96
3301.00,87.96
3300.00,87.96
3299.00,87.95
3298.00,87.94
3297.00,87.93
3296.00,87.92
3295.00,87.91
3294.00,87.90
3293.00,87.90
3292.00,87.92
3291.00,87.94
3290.00,87.96
3289.00,87.97
3288.00,87.99
3287.00,87.99
3286.00,88.00
3285.00,88.00
3284.00,88.00
3283.00,88.01
3282.00,88.02
3281.00,88.03
3280.00,88.04
3279.00,88.05
3278.00,88.06
3277.00,88.06
3276.00,88.07
3275.00,88.09
3274.00,88.13
3273.00,88.18
3272.00,88.22
3271.00,88.27
3270.00,88.31
3269.00,88.35
3268.00,88.40
3267.00,88.44
3266.00,88.49
3265.00,88.54
3264.00,88.59
3263.00,88.64
3262.00,88.68
3261.00,88.72
3260.00,88.78
3259.00,88.85
3258.00,88.93
3257.00,89.01
3256.00,89.10
3255.00,89.18
3254.00,89.26
3253.00,89.33
3252.00,89.38
3251.00,89.43
3250.00,89.48
3249.00,89.53
3248.00,89.60
3247.00,89.68
3246.00,89.76
3245.00,89.83
3244.00,89.89
3243.00,89.94
3242.00,89.99
3241.00,90.04
3240.00,90.09
3239.00,90.14
3238.00,90.18
3237.00,90.23
3236.00,90.28
3235.00,90.33
3234.00,90.39
3233.00,90.43
3232.00,90.48
3231.00,90.53
3230.00,90.58
3229.00,90.64
3228.00,90.71
3227.00,90.78
3226.00,90.85
3225.00,90.90
3224.00,90.94
3223.00,90.97
3222.00,91.00
3221.00,91.04
3220.00,91.08
3219.00,91.14
3218.00,91.20
3217.00,91.25
3216.00,91.30
3215.00,91.34
3214.00,91.39
3213.00,91.45
3212.00,91.51
3211.00,91.57
3210.00,91.61
3209.00,91.65
3208.00,91.68
3207.00,91.72
3206.00,91.78
3205.00,91.84
3204.00,91.91
3203.00,91.98
3202.00,92.03
3201.00,92.07
3200.00,92.10
3199.00,92.14
3198.00,92.17
3197.00,92.21
3196.00,92.25
3195.00,92.29
3194.00,92.32
3193.00,92.36
3192.00,92.40
3191.00,92.45
3190.00,92.50
3189.00,92.55
3188.00,92.60
3187.00,92.64
3186.00,92.68
3185.00,92.72
3184.00,92.77
3183.00,92.82
3182.00,92.86
3181.00,92.88
3180.00,92.90
3179.00,92.92
3178.00,92.95
3177.00,92.98
3176.00,93.01
3175.00,93.05
3174.00,93.10
3173.00,93.15
3172.00,93.21
3171.00,93.26
3170.00,93.31
3169.00,93.35
3168.00,93.38
3167.00,93.40
3166.00,93.43
3165.00,93.46
3164.00,93.50
3163.00,93.54
3162.00,93.58
3161.00,93.60
3160.00,93.61
3159.00,93.63
3158.00,93.66
3157.00,93.70
3156.00,93.74
3155.00,93.79
3154.00,93.84
3153.00,93.90
3152.00,93.95
3151.00,93.98
3150.00,94.00
3149.00,94.01
3148.00,94.03
3147.00,94.05
3146.00,94.09
3145.00,94.12
3144.00,94.14
3143.00,94.17
3142.00,94.19
3141.00,94.21
3140.00,94.24
3139.00,94.28
3138.00,94.31
3137.00,94.34
3136.00,94.37
3135.00,94.41
3134.00,94.44
3133.00,94.46
3132.00,94.48
3131.00,94.50
3130.00,94.53
3129.00,94.56
3128.00,94.60
3127.00,94.63
3126.00,94.64
3125.00,94.66
3124.00,94.67
3123.00,94.71
3122.00,94.75
3121.00,94.79
3120.00,94.82
3119.00,94.85
3118.00,94.88
3117.00,94.92
3116.00,94.97
3115.00,95.00
3114.00,95.02
3113.00,95.03
3112.00,95.04
3111.00,95.07
3110.00,95.10
3109.00,95.12
3108.00,95.14
3107.00,95.16
3106.00,95.18
3105.00,95.20
3104.00,95.22
3103.00,95.24
3102.00,95.25
3101.00,95.26
3100.00,95.27
3099.00,95.30
3098.00,95.35
3097.00,95.41
3096.00,95.46
3095.00,95.48
3094.00,95.49
3093.00,95.51
3092.00,95.52
3091.00,95.54
3090.00,95.56
3089.00,95.58
3088.00,95.60
3087.00,95.61
3086.00,95.63
3085.00,95.66
3084.00,95.70
3083.00,95.74
3082.00,95.77
3081.00,95.78
3080.00,95.78
3079.00,95.79
3078.00,95.81
3077.00,95.84
3076.00,95.86
3075.00,95.88
3074.00,95.90
3073.00,95.92
3072.00,95.94
3071.00,95.96
3070.00,95.98
3069.00,96.00
3068.00,96.03
3067.00,96.04
3066.00,96.06
3065.00,96.07
3064.00,96.08
3063.00,96.10
3062.00,96.12
3061.00,96.15
3060.00,96.19
3059.00,96.22
3058.00,96.24
3057.00,96.25
3056.00,96.26
3055.00,96.27
3054.00,96.28
3053.00,96.29
3052.00,96.28
3051.00,96.29
3050.00,96.31
3049.00,96.35
3048.00,96.38
3047.00,96.40
3046.00,96.40
3045.00,96.40
3044.00,96.42
3043.00,96.45
3042.00,96.50
3041.00,96.54
3040.00,96.56
3039.00,96.57
3038.00,96.57
3037.00,96.56
3036.00,96.56
3035.00,96.56
3034.00,96.58
3033.00,96.60
3032.00,96.62
3031.00,96.63
3030.00,96.64
3029.00,96.65
3028.00,96.66
3027.00,96.67
3026.00,96.69
3025.00,96.70
3024.00,96.71
3023.00,96.73
3022.00,96.74
3021.00,96.76
3020.00,96.76
3019.00,96.76
3018.00,96.75
3017.00,96.75
3016.00,96.76
3015.00,96.77
3014.00,96.79
3013.00,96.81
3012.00,96.83
3011.00,96.84
3010.00,96.85
3009.00,96.87
3008.00,96.89
3007.00,96.90
3006.00,96.90
3005.00,96.90
3004.00,96.91
3003.00,96.92
3002.00,96.94
3001.00,96.95
3000.00,96.96
2999.00,96.95
2998.00,96.95
2997.00,96.96
2996.00,96.97
2995.00,96.97
2994.00,96.96
2993.00,96.95
2992.00,96.95
2991.00,96.95
2990.00,96.95
2989.00,96.95
2988.00,96.95
2987.00,96.96
2986.00,96.97
2985.00,96.98
2984.00,96.97
2983.00,96.96
2982.00,96.94
2981.00,96.91
2980.00,96.88
2979.00,96.86
2978.00,96.83
2977.00,96.80
2976.00,96.75
2975.00,96.70
2974.00,96.64
2973.00,96.59
2972.00,96.54
2971.00,96.49
2970.00,96.44
2969.00,96.41
2968.00,96.40
2967.00,96.40
2966.00,96.41
2965.00,96.42
2964.00,96.41
2963.00,96.40
2962.00,96.39
2961.00,96.36
2960.00,96.33
2959.00,96.30
2958.00,96.27
2957.00,96.24
2956.00,96.19
2955.00,96.14
2954.00,96.08
2953.00,96.02
2952.00,95.96
2951.00,95.91
2950.00,95.88
2949.00,95.84
2948.00,95.81
2947.00,95.77
2946.00,95.73
2945.00,95.69
2944.00,95.65
2943.00,95.61
2942.00,95.57
2941.00,95.55
2940.00,95.52
2939.00,95.50
2938.00,95.48
2937.00,95.46
2936.00,95.44
2935.00,95.43
2934.00,95.40
2933.00,95.36
2932.00,95.31
2931.00,95.25
2930.00,95.19
2929.00,95.14
2928.00,95.10
2927.00,95.04
2926.00,94.96
2925.00,94.85
2924.00,94.74
2923.00,94.65
2922.00,94.58
2921.00,94.52
2920.00,94.46
2919.00,94.39
2918.00,94.31
2917.00,94.26
2916.00,94.22
2915.00,94.19
2914.00,94.18
2913.00,94.17
2912.00,94.15
2911.00,94.13
2910.00,94.09
2909.00,94.06
2908.00,94.03
2907.00,94.00
2906.00,93.97
2905.00,93.95
2904.00,93.92
2903.00,93.89
2902.00,93.86
2901.00,93.83
2900.00,93.81
2899.00,93.80
2898.00,93.80
2897.00,93.81
2896.00,93.82
2895.00,93.84
2894.00,93.85
2893.00,93.87
2892.00,93.91
2891.00,93.94
2890.00,93.97
2889.00,94.00
2888.00,94.03
2887.00,94.07
2886.00,94.11
2885.00,94.16
2884.00,94.19
2883.00,94.22
2882.00,94.25
2881.00,94.28
2880.00,94.31
2879.00,94.33
2878.00,94.35
2877.00,94.37
2876.00,94.40
2875.00,94.42
2874.00,94.45
2873.00,94.47
2872.00,94.48
2871.00,94.49
2870.00,94.50
2869.00,94.51
2868.00,94.53
2867.00,94.55
2866.00,94.58
2865.00,94.61
2864.00,94.65
2863.00,94.68
2862.00,94.71
2861.00,94.73
2860.00,94.74
2859.00,94.75
2858.00,94.77
2857.00,94.80
2856.00,94.83
2855.00,94.84
2854.00,94.83
2853.00,94.81
2852.00,94.80
2851.00,94.82
2850.00,94.86
2849.00,94.93
2848.00,95.03
2847.00,95.13
2846.00,95.24
2845.00,95.34
2844.00,95.44
2843.00,95.52
2842.00,95.58
2841.00,95.64
2840.00,95.70
2839.00,95.75
2838.00,95.80
2837.00,95.83
2836.00,95.86
2835.00,95.89
2834.00,95.93
2833.00,95.97
2832.00,96.01
2831.00,96.04
2830.00,96.06
2829.00,96.07
2828.00,96.08
2827.00,96.09
2826.00,96.12
2825.00,96.14
2824.00,96.17
2823.00,96.20
2822.00,96.24
2821.00,96.27
2820.00,96.30
2819.00,96.32
2818.00,96.34
2817.00,96.35
2816.00,96.37
2815.00,96.40
2814.00,96.42
2813.00,96.44
2812.00,96.45
2811.00,96.46
2810.00,96.47
2809.00,96.48
2808.00,96.51
2807.00,96.55
2806.00,96.57
2805.00,96.59
2804.00,96.60
2803.00,96.62
2802.00,96.65
2801.00,96.67
2800.00,96.69
2799.00,96.71
2798.00,96.72
2797.00,96.71
2796.00,96.70
2795.00,96.70
2794.00,96.70
2793.00,96.71
2792.00,96.73
2791.00,96.73
2790.00,96.73
2789.00,96.74
2788.00,96.75
2787.00,96.77
2786.00,96.78
2785.00,96.79
2784.00,96.79
2783.00,96.81
2782.00,96.83
2781.00,96.85
2780.00,96.86
2779.00,96.87
2778.00,96.87
2777.00,96.87
2776.00,96.88
2775.00,96.88
2774.00,96.89
2773.00,96.90
2772.00,96.91
2771.00,96.92
2770.00,96.93
2769.00,96.93
2768.00,96.93
2767.00,96.93
2766.00,96.92
2765.00,96.92
2764.00,96.93
2763.00,96.95
2762.00,96.97
2761.00,96.98
2760.00,96.98
2759.00,96.97
2758.00,96.96
2757.00,96.97
2756.00,96.97
2755.00,96.98
2754.00,96.99
2753.00,96.99
2752.00,97.00
2751.00,97.01
2750.00,97.01
2749.00,97.02
2748.00,97.03
2747.00,97.04
2746.00,97.04
2745.00,97.02
2744.00,97.01
2743.00,96.99
2742.00,96.99
2741.00,97.00
2740.00,97.00
2739.00,97.00
2738.00,97.00
2737.00,97.00
2736.00,97.01
2735.00,97.01
2734.00,97.01
2733.00,97.00
2732.00,97.00
2731.00,97.00
2730.00,97.01
2729.00,97.03
2728.00,97.05
2727.00,97.05
2726.00,97.05
2725.00,97.04
2724.00,97.04
2723.00,97.04
2722.00,97.05
2721.00,97.06
2720.00,97.07
2719.00,97.07
2718.00,97.08
2717.00,97.08
2716.00,97.08
2715.00,97.09
2714.00,97.10
2713.00,97.12
2712.00,97.13
2711.00,97.14
2710.00,97.14
2709.00,97.14
2708.00,97.14
2707.00,97.14
2706.00,97.16
2705.00,97.16
2704.00,97.16
2703.00,97.16
2702.00,97.16
2701.00,97.17
2700.00,97.18
2699.00,97.19
2698.00,97.20
2697.00,97.20
2696.00,97.20
2695.00,97.21
2694.00,97.23
2693.00,97.25
2692.00,97.25
2691.00,97.25
2690.00,97.24
2689.00,97.23
2688.00,97.22
2687.00,97.22
2686.00,97.22
2685.00,97.24
2684.00,97.26
2683.00,97.28
2682.00,97.30
2681.00,97.31
2680.00,97.31
2679.00,97.31
2678.00,97.30
2677.00,97.30
2676.00,97.30
2675.00,97.30
2674.00,97.31
2673.00,97.31
2672.00,97.32
2671.00,97.33
2670.00,97.34
2669.00,97.35
2668.00,97.35
2667.00,97.35
2666.00,97.35
2665.00,97.35
2664.00,97.33
2663.00,97.31
2662.00,97.30
2661.00,97.29
2660.00,97.29
2659.00,97.29
2658.00,97.29
2657.00,97.30
2656.00,97.30
2655.00,97.31
2654.00,97.31
2653.00,97.32
2652.00,97.31
2651.00,97.30
2650.00,97.29
2649.00,97.27
2648.00,97.26
2647.00,97.24
2646.00,97.22
2645.00,97.20
2644.00,97.19
2643.00,97.19
2642.00,97.17
2641.00,97.16
2640.00,97.15
2639.00,97.15
2638.00,97.16
2637.00,97.17
2636.00,97.16
2635.00,97.14
2634.00,97.13
2633.00,97.12
2632.00,97.13
2631.00,97.13
2630.00,97.14
2629.00,97.15
2628.00,97.15
2627.00,97.15
2626.00,97.14
2625.00,97.13
2624.00,97.12
2623.00,97.13
2622.00,97.14
2621.00,97.15
2620.00,97.15
2619.00,97.13
2618.00,97.10
2617.00,97.08
2616.00,97.06
2615.00,97.06
2614.00,97.07
2613.00,97.09
2612.00,97.11
2611.00,97.11
2610.00,97.10
2609.00,97.10
2608.00,97.09
2607.00,97.07
2606.00,97.05
2605.00,97.03
2604.00,97.03
2603.00,97.03
2602.00,97.04
2601.00,97.04
2600.00,97.05
2599.00,97.06
2598.00,97.06
2597.00,97.05
2596.00,97.06
2595.00,97.08
2594.00,97.09
2593.00,97.09
2592.00,97.07
2591.00,97.05
2590.00,97.03
2589.00,97.02
2588.00,97.01
2587.00,97.01
2586.00,97.01
2585.00,97.02
2584.00,97.02
2583.00,97.02
2582.00,97.01
2581.00,97.01
2580.00,97.00
2579.00,96.98
2578.00,96.96
2577.00,96.97
2576.00,96.98
2575.00,96.99
2574.00,96.98
2573.00,96.98
2572.00,96.96
2571.00,96.95
2570.00,96.94
2569.00,96.93
2568.00,96.94
2567.00,96.96
2566.00,96.97
2565.00,96.98
2564.00,96.98
2563.00,96.98
2562.00,96.97
2561.00,96.96
2560.00,96.95
2559.00,96.96
2558.00,96.98
2557.00,96.99
2556.00,97.00
2555.00,96.99
2554.00,96.98
2553.00,96.97
2552.00,96.96
2551.00,96.95
2550.00,96.93
2549.00,96.92
2548.00,96.93
2547.00,96.95
2546.00,96.97
2545.00,96.99
2544.00,96.98
2543.00,96.96
2542.00,96.95
2541.00,96.95
2540.00,96.96
2539.00,96.98
2538.00,96.98
2537.00,96.97
2536.00,96.95
2535.00,96.92
2534.00,96.91
2533.00,96.91
2532.00,96.93
2531.00,96.95
2530.00,96.96
2529.00,96.96
2528.00,96.96
2527.00,96.96
2526.00,96.95
2525.00,96.96
2524.00,96.97
2523.00,97.00
2522.00,97.02
2521.00,97.03
2520.00,97.04
2519.00,97.05
2518.00,97.05
2517.00,97.04
2516.00,97.02
2515.00,97.00
2514.00,96.98
2513.00,96.96
2512.00,96.93
2511.00,96.91
2510.00,96.91
2509.00,96.92
2508.00,96.95
2507.00,96.97
2506.00,97.00
2505.00,97.01
2504.00,97.01
2503.00,96.99
2502.00,96.97
2501.00,96.97
2500.00,96.98
2499.00,96.99
2498.00,97.00
2497.00,97.00
2496.00,97.00
2495.00,97.00
2494.00,97.01
2493.00,97.01
2492.00,97.02
2491.00,97.02
2490.00,97.03
2489.00,97.05
2488.00,97.07
2487.00,97.08
2486.00,97.07
2485.00,97.04
2484.00,97.00
2483.00,96.99
2482.00,96.99
2481.00,97.01
2480.00,97.03
2479.00,97.04
2478.00,97.05
2477.00,97.06
2476.00,97.07
2475.00,97.09
2474.00,97.12
2473.00,97.13
2472.00,97.14
2471.00,97.15
2470.00,97.14
2469.00,97.12
2468.00,97.09
2467.00,97.07
2466.00,97.07
2465.00,97.08
2464.00,97.08
2463.00,97.08
2462.00,97.08
2461.00,97.07
2460.00,97.08
2459.00,97.08
2458.00,97.09
2457.00,97.09
2456.00,97.08
2455.00,97.07
2454.00,97.05
2453.00,97.03
2452.00,97.02
2451.00,97.02
2450.00,97.03
2449.00,97.05
2448.00,97.06
2447.00,97.06
2446.00,97.06
2445.00,97.06
2444.00,97.07
2443.00,97.08
2442.00,97.09
2441.00,97.10
2440.00,97.11
2439.00,97.11
2438.00,97.10
2437.00,97.11
2436.00,97.14
2435.00,97.17
2434.00,97.19
2433.00,97.19
2432.00,97.18
2431.00,97.17
2430.00,97.16
2429.00,97.15
2428.00,97.13
2427.00,97.12
2426.00,97.12
2425.00,97.14
2424.00,97.17
2423.00,97.20
2422.00,97.24
2421.00,97.27
2420.00,97.28
2419.00,97.28
2418.00,97.26
2417.00,97.25
2416.00,97.25
2415.00,97.26
2414.00,97.27
2413.00,97.28
2412.00,97.28
2411.00,97.29
2410.00,97.29
2409.00,97.30
2408.00,97.30
2407.00,97.30
2406.00,97.30
2405.00,97.30
2404.00,97.31
2403.00,97.32
2402.00,97.33
2401.00,97.33
2400.00,97.34
2399.00,97.36
2398.00,97.37
2397.00,97.39
2396.00,97.39
2395.00,97.39
2394.00,97.39
2393.00,97.40
2392.00,97.41
2391.00,97.44
2390.00,97.46
2389.00,97.49
2388.00,97.51
2387.00,97.54
2386.00,97.55
2385.00,97.56
2384.00,97.57
2383.00,97.59
2382.00,97.60
2381.00,97.62
2380.00,97.62
2379.00,97.63
2378.00,97.63
2377.00,97.63
2376.00,97.63
2375.00,97.64
2374.00,97.66
2373.00,97.70
2372.00,97.73
2371.00,97.78
2370.00,97.83
2369.00,97.88
2368.00,97.90
2367.00,97.86
2366.00,97.77
2365.00,97.70
2364.00,97.71
2363.00,97.79
2362.00,97.85
2361.00,97.84
2360.00,97.76
2359.00,97.65
2358.00,97.57
2357.00,97.55
2356.00,97.60
2355.00,97.68
2354.00,97.77
2353.00,97.81
2352.00,97.80
2351.00,97.78
2350.00,97.77
2349.00,97.80
2348.00,97.86
2347.00,97.90
2346.00,97.91
2345.00,97.88
2344.00,97.85
2343.00,97.80
2342.00,97.76
2341.00,97.71
2340.00,97.68
2339.00,97.65
2338.00,97.63
2337.00,97.62
2336.00,97.65
2335.00,97.72
2334.00,97.79
2333.00,97.83
2332.00,97.82
2331.00,97.77
2330.00,97.72
2329.00,97.67
2328.00,97.64
2327.00,97.61
2326.00,97.60
2325.00,97.58
2324.00,97.57
2323.00,97.55
2322.00,97.53
2321.00,97.50
2320.00,97.46
2319.00,97.43
2318.00,97.41
2317.00,97.41
2316.00,97.43
2315.00,97.44
2314.00,97.44
2313.00,97.42
2312.00,97.38
2311.00,97.34
2310.00,97.31
2309.00,97.29
2308.00,97.27
2307.00,97.26
2306.00,97.27
2305.00,97.29
2304.00,97.30
2303.00,97.29
2302.00,97.25
2301.00,97.18
2300.00,97.13
2299.00,97.10
2298.00,97.08
2297.00,97.07
2296.00,97.07
2295.00,97.08
2294.00,97.08
2293.00,97.08
2292.00,97.05
2291.00,97.02
2290.00,96.97
2289.00,96.92
2288.00,96.88
2287.00,96.86
2286.00,96.86
2285.00,96.84
2284.00,96.82
2283.00,96.79
2282.00,96.77
2281.00,96.74
2280.00,96.71
2279.00,96.68
2278.00,96.66
2277.00,96.65
2276.00,96.64
2275.00,96.65
2274.00,96.64
2273.00,96.63
2272.00,96.60
2271.00,96.56
2270.00,96.53
2269.00,96.52
2268.00,96.51
2267.00,96.49
2266.00,96.46
2265.00,96.43
2264.00,96.41
2263.00,96.40
2262.00,96.42
2261.00,96.43
2260.00,96.42
2259.00,96.40
2258.00,96.38
2257.00,96.36
2256.00,96.36
2255.00,96.35
2254.00,96.34
2253.00,96.34
2252.00,96.35
2251.00,96.36
2250.00,96.36
2249.00,96.34
2248.00,96.30
2247.00,96.25
2246.00,96.21
2245.00,96.20
2244.00,96.20
2243.00,96.20
2242.00,96.18
2241.00,96.13
2240.00,96.08
2239.00,96.04
2238.00,96.01
2237.00,96.01
2236.00,96.01
2235.00,96.02
2234.00,96.02
2233.00,96.01
2232.00,95.98
2231.00,95.95
2230.00,95.92
2229.00,95.91
2228.00,95.91
2227.00,95.90
2226.00,95.88
2225.00,95.83
2224.00,95.79
2223.00,95.77
2222.00,95.77
2221.00,95.77
2220.00,95.77
2219.00,95.77
2218.00,95.76
2217.00,95.76
2216.00,95.77
2215.00,95.78
2214.00,95.78
2213.00,95.78
2212.00,95.76
2211.00,95.75
2210.00,95.74
2209.00,95.72
2208.00,95.69
2207.00,95.65
2206.00,95.63
2205.00,95.63
2204.00,95.64
2203.00,95.64
2202.00,95.62
2201.00,95.59
2200.00,95.54
2199.00,95.49
2198.00,95.45
2197.00,95.45
2196.00,95.47
2195.00,95.50
2194.00,95.48
2193.00,95.42
2192.00,95.37
2191.00,95.36
2190.00,95.38
2189.00,95.38
2188.00,95.32
2187.00,95.23
2186.00,95.12
2185.00,95.02
2184.00,94.96
2183.00,94.95
2182.00,94.99
2181.00,95.04
2180.00,95.07
2179.00,95.05
2178.00,95.02
2177.00,95.00
2176.00,95.01
2175.00,95.04
2174.00,95.04
2173.00,94.99
2172.00,94.89
2171.00,94.80
2170.00,94.71
2169.00,94.65
2168.00,94.59
2167.00,94.55
2166.00,94.50
2165.00,94.45
2164.00,94.40
2163.00,94.34
2162.00,94.29
2161.00,94.31
2160.00,94.43
2159.00,94.64
2158.00,94.85
2157.00,94.99
2156.00,95.06
2155.00,95.10
2154.00,95.15
2153.00,95.22
2152.00,95.29
2151.00,95.34
2150.00,95.37
2149.00,95.41
2148.00,95.44
2147.00,95.46
2146.00,95.49
2145.00,95.52
2144.00,95.55
2143.00,95.58
2142.00,95.59
2141.00,95.62
2140.00,95.67
2139.00,95.76
2138.00,95.85
2137.00,95.93
2136.00,95.97
2135.00,96.00
2134.00,96.05
2133.00,96.11
2132.00,96.17
2131.00,96.22
2130.00,96.26
2129.00,96.28
2128.00,96.29
2127.00,96.29
2126.00,96.31
2125.00,96.34
2124.00,96.39
2123.00,96.43
2122.00,96.43
2121.00,96.41
2120.00,96.38
2119.00,96.36
2118.00,96.34
2117.00,96.34
2116.00,96.36
2115.00,96.37
2114.00,96.36
2113.00,96.33
2112.00,96.31
2111.00,96.31
2110.00,96.33
2109.00,96.35
2108.00,96.37
2107.00,96.37
2106.00,96.35
2105.00,96.32
2104.00,96.28
2103.00,96.26
2102.00,96.28
2101.00,96.30
2100.00,96.30
2099.00,96.28
2098.00,96.26
2097.00,96.24
2096.00,96.25
2095.00,96.26
2094.00,96.29
2093.00,96.33
2092.00,96.36
2091.00,96.40
2090.00,96.41
2089.00,96.39
2088.00,96.35
2087.00,96.31
2086.00,96.28
2085.00,96.26
2084.00,96.24
2083.00,96.22
2082.00,96.21
2081.00,96.19
2080.00,96.15
2079.00,96.10
2078.00,96.06
2077.00,96.05
2076.00,96.08
2075.00,96.12
2074.00,96.14
2073.00,96.13
2072.00,96.11
2071.00,96.10
2070.00,96.10
2069.00,96.12
2068.00,96.12
2067.00,96.11
2066.00,96.08
2065.00,96.05
2064.00,96.02
2063.00,95.99
2062.00,95.96
2061.00,95.92
2060.00,95.88
2059.00,95.84
2058.00,95.80
2057.00,95.79
2056.00,95.83
2055.00,95.87
2054.00,95.86
2053.00,95.78
2052.00,95.63
2051.00,95.47
2050.00,95.36
2049.00,95.33
2048.00,95.35
2047.00,95.38
2046.00,95.37
2045.00,95.30
2044.00,95.21
2043.00,95.12
2042.00,95.05
2041.00,95.01
2040.00,94.98
2039.00,94.97
2038.00,94.95
2037.00,94.93
2036.00,94.91
2035.00,94.90
2034.00,94.90
2033.00,94.89
2032.00,94.88
2031.00,94.90
2030.00,94.92
2029.00,94.91
2028.00,94.87
2027.00,94.85
2026.00,94.86
2025.00,94.90
2024.00,94.99
2023.00,95.08
2022.00,95.14
2021.00,95.13
2020.00,95.07
2019.00,95.03
2018.00,95.05
2017.00,95.10
2016.00,95.15
2015.00,95.20
2014.00,95.23
2013.00,95.25
2012.00,95.23
2011.00,95.20
2010.00,95.20
2009.00,95.24
2008.00,95.30
2007.00,95.33
2006.00,95.34
2005.00,95.33
2004.00,95.34
2003.00,95.37
2002.00,95.43
2001.00,95.53
2000.00,95.62
1999.00,95.67
1998.00,95.67
1997.00,95.62
1996.00,95.54
1995.00,95.46
1994.00,95.43
1993.00,95.42
1992.00,95.44
1991.00,95.47
1990.00,95.49
1989.00,95.49
1988.00,95.45
1987.00,95.41
1986.00,95.39
1985.00,95.36
1984.00,95.30
1983.00,95.20
1982.00,95.10
1981.00,95.02
1980.00,94.98
1979.00,94.99
1978.00,95.03
1977.00,95.07
1976.00,95.10
1975.00,95.13
1974.00,95.19
1973.00,95.27
1972.00,95.35
1971.00,95.42
1970.00,95.48
1969.00,95.53
1968.00,95.56
1967.00,95.59
1966.00,95.65
1965.00,95.72
1964.00,95.78
1963.00,95.83
1962.00,95.87
1961.00,95.89
1960.00,95.89
1959.00,95.88
1958.00,95.89
1957.00,95.93
1956.00,95.98
1955.00,96.03
1954.00,96.04
1953.00,96.03
1952.00,96.02
1951.00,96.01
1950.00,96.02
1949.00,96.06
1948.00,96.12
1947.00,96.18
1946.00,96.24
1945.00,96.28
1944.00,96.30
1943.00,96.32
1942.00,96.33
1941.00,96.35
1940.00,96.36
1939.00,96.39
1938.00,96.42
1937.00,96.46
1936.00,96.51
1935.00,96.57
1934.00,96.62
1933.00,96.66
1932.00,96.68
1931.00,96.69
1930.00,96.70
1929.00,96.72
1928.00,96.73
1927.00,96.74
1926.00,96.74
1925.00,96.76
1924.00,96.79
1923.00,96.81
1922.00,96.80
1921.00,96.77
1920.00,96.76
1919.00,96.78
1918.00,96.82
1917.00,96.85
1916.00,96.86
1915.00,96.86
1914.00,96.85
1913.00,96.85
1912.00,96.86
1911.00,96.86
1910.00,96.87
1909.00,96.86
1908.00,96.86
1907.00,96.88
1906.00,96.91
1905.00,96.94
1904.00,96.96
1903.00,96.98
1902.00,97.01
1901.00,97.04
1900.00,97.04
1899.00,97.03
1898.00,97.02
1897.00,97.02
1896.00,97.03
1895.00,97.05
1894.00,97.08
1893.00,97.10
1892.00,97.12
1891.00,97.12
1890.00,97.10
1889.00,97.09
1888.00,97.09
1887.00,97.10
1886.00,97.11
1885.00,97.12
1884.00,97.13
1883.00,97.14
1882.00,97.16
1881.00,97.19
1880.00,97.21
1879.00,97.23
1878.00,97.23
1877.00,97.22
1876.00,97.20
1875.00,97.20
1874.00,97.21
1873.00,97.22
1872.00,97.23
1871.00,97.23
1870.00,97.23
1869.00,97.22
1868.00,97.20
1867.00,97.20
1866.00,97.22
1865.00,97.25
1864.00,97.27
1863.00,97.28
1862.00,97.28
1861.00,97.30
1860.00,97.32
1859.00,97.34
1858.00,97.35
1857.00,97.34
1856.00,97.33
1855.00,97.32
1854.00,97.32
1853.00,97.31
1852.00,97.31
1851.00,97.31
1850.00,97.31
1849.00,97.33
1848.00,97.34
1847.00,97.37
1846.00,97.39
1845.00,97.40
1844.00,97.41
1843.00,97.41
1842.00,97.41
1841.00,97.41
1840.00,97.40
1839.00,97.40
1838.00,97.40
1837.00,97.41
1836.00,97.42
1835.00,97.43
1834.00,97.44
1833.00,97.45
1832.00,97.45
1831.00,97.45
1830.00,97.44
1829.00,97.43
1828.00,97.44
1827.00,97.45
1826.00,97.45
1825.00,97.46
1824.00,97.45
1823.00,97.46
1822.00,97.47
1821.00,97.48
1820.00,97.50
1819.00,97.54
1818.00,97.58
1817.00,97.61
1816.00,97.63
1815.00,97.62
1814.00,97.61
1813.00,97.59
1812.00,97.58
1811.00,97.57
1810.00,97.56
1809.00,97.55
1808.00,97.53
1807.00,97.53
1806.00,97.54
1805.00,97.56
1804.00,97.58
1803.00,97.60
1802.00,97.62
1801.00,97.63
1800.00,97.64
1799.00,97.64
1798.00,97.63
1797.00,97.62
1796.00,97.61
1795.00,97.60
1794.00,97.61
1793.00,97.63
1792.00,97.65
1791.00,97.66
1790.00,97.65
1789.00,97.63
1788.00,97.61
1787.00,97.59
1786.00,97.58
1785.00,97.58
1784.00,97.60
1783.00,97.61
1782.00,97.63
1781.00,97.64
1780.00,97.66
1779.00,97.66
1778.00,97.66
1777.00,97.65
1776.00,97.64
1775.00,97.63
1774.00,97.62
1773.00,97.61
1772.00,97.59
1771.00,97.57
1770.00,97.56
1769.00,97.55
1768.00,97.55
1767.00,97.54
1766.00,97.54
1765.00,97.53
1764.00,97.53
1763.00,97.53
1762.00,97.53
1761.00,97.54
1760.00,97.54
1759.00,97.52
1758.00,97.50
1757.00,97.48
1756.00,97.46
1755.00,97.45
1754.00,97.46
1753.00,97.46
1752.00,97.48
1751.00,97.48
1750.00,97.46
1749.00,97.43
1748.00,97.40
1747.00,97.39
1746.00,97.40
1745.00,97.40
1744.00,97.38
1743.00,97.37
1742.00,97.35
1741.00,97.33
1740.00,97.32
1739.00,97.33
1738.00,97.32
1737.00,97.30
1736.00,97.27
1735.00,97.26
1734.00,97.27
1733.00,97.29
1732.00,97.31
1731.00,97.30
1730.00,97.29
1729.00,97.28
1728.00,97.28
1727.00,97.29
1726.00,97.30
1725.00,97.30
1724.00,97.30
1723.00,97.30
1722.00,97.30
1721.00,97.29
1720.00,97.29
1719.00,97.28
1718.00,97.28
1717.00,97.26
1716.00,97.26
1715.00,97.27
1714.00,97.27
1713.00,97.27
1712.00,97.27
1711.00,97.26
1710.00,97.27
1709.00,97.27
1708.00,97.26
1707.00,97.24
1706.00,97.22
1705.00,97.21
1704.00,97.20
1703.00,97.19
1702.00,97.18
1701.00,97.19
1700.00,97.19
1699.00,97.19
1698.00,97.19
1697.00,97.17
1696.00,97.15
1695.00,97.14
1694.00,97.12
1693.00,97.10
1692.00,97.08
1691.00,97.06
1690.00,97.04
1689.00,97.03
1688.00,97.02
1687.00,97.00
1686.00,96.98
1685.00,96.97
1684.00,96.94
1683.00,96.90
1682.00,96.86
1681.00,96.81
1680.00,96.75
1679.00,96.70
1678.00,96.65
1677.00,96.61
1676.00,96.57
1675.00,96.54
1674.00,96.53
1673.00,96.53
1672.00,96.50
1671.00,96.46
1670.00,96.41
1669.00,96.36
1668.00,96.32
1667.00,96.29
1666.00,96.26
1665.00,96.22
1664.00,96.18
1663.00,96.14
1662.00,96.12
1661.00,96.10
1660.00,96.07
1659.00,96.04
1658.00,96.02
1657.00,95.99
1656.00,95.97
1655.00,95.94
1654.00,95.88
1653.00,95.79
1652.00,95.74
1651.00,95.73
1650.00,95.73
1649.00,95.72
1648.00,95.70
1647.00,95.66
1646.00,95.62
1645.00,95.59
1644.00,95.57
1643.00,95.57
1642.00,95.57
1641.00,95.56
1640.00,95.53
1639.00,95.50
1638.00,95.46
1637.00,95.43
1636.00,95.39
1635.00,95.36
1634.00,95.35
1633.00,95.36
1632.00,95.36
1631.00,95.36
1630.00,95.35
1629.00,95.35
1628.00,95.34
1627.00,95.33
1626.00,95.33
1625.00,95.34
1624.00,95.35
1623.00,95.36
1622.00,95.37
1621.00,95.37
1620.00,95.37
1619.00,95.36
1618.00,95.37
1617.00,95.38
1616.00,95.39
1615.00,95.38
1614.00,95.37
1613.00,95.36
1612.00,95.35
1611.00,95.35
1610.00,95.36
1609.00,95.39
1608.00,95.41
1607.00,95.43
1606.00,95.44
1605.00,95.44
1604.00,95.43
1603.00,95.43
1602.00,95.44
1601.00,95.46
1600.00,95.49
1599.00,95.52
1598.00,95.55
1597.00,95.58
1596.00,95.61
1595.00,95.63
1594.00,95.65
1593.00,95.68
1592.00,95.72
1591.00,95.76
1590.00,95.79
1589.00,95.82
1588.00,95.84
1587.00,95.86
1586.00,95.89
1585.00,95.92
1584.00,95.96
1583.00,96.00
1582.00,96.05
1581.00,96.08
1580.00,96.12
1579.00,96.16
1578.00,96.20
1577.00,96.26
1576.00,96.30
1575.00,96.32
1574.00,96.33
1573.00,96.34
1572.00,96.35
1571.00,96.36
1570.00,96.39
1569.00,96.41
1568.00,96.44
1567.00,96.46
1566.00,96.49
1565.00,96.51
1564.00,96.52
1563.00,96.53
1562.00,96.54
1561.00,96.55
1560.00,96.59
1559.00,96.62
1558.00,96.65
1557.00,96.67
1556.00,96.69
1555.00,96.71
1554.00,96.72
1553.00,96.74
1552.00,96.76
1551.00,96.79
1550.00,96.81
1549.00,96.83
1548.00,96.83
1547.00,96.84
1546.00,96.87
1545.00,96.91
1544.00,96.94
1543.00,96.96
1542.00,96.98
1541.00,97.01
1540.00,97.03
1539.00,97.02
1538.00,97.02
1537.00,97.02
1536.00,97.02
1535.00,97.03
1534.00,97.03
1533.00,97.01
1532.00,97.00
1531.00,97.01
1530.00,97.03
1529.00,97.06
1528.00,97.07
1527.00,97.07
1526.00,97.06
1525.00,97.07
1524.00,97.08
1523.00,97.08
1522.00,97.08
1521.00,97.08
1520.00,97.09
1519.00,97.11
1518.00,97.11
1517.00,97.11
1516.00,97.11
1515.00,97.12
1514.00,97.12
1513.00,97.12
1512.00,97.11
1511.00,97.11
1510.00,97.11
1509.00,97.11
1508.00,97.10
1507.00,97.08
1506.00,97.08
1505.00,97.09
1504.00,97.11
1503.00,97.12
1502.00,97.12
1501.00,97.10
1500.00,97.07
1499.00,97.05
1498.00,97.04
1497.00,97.03
1496.00,97.01
1495.00,96.99
1494.00,96.97
1493.00,96.93
1492.00,96.90
1491.00,96.87
1490.00,96.83
1489.00,96.77
1488.00,96.69
1487.00,96.60
1486.00,96.51
1485.00,96.42
1484.00,96.34
1483.00,96.26
1482.00,96.18
1481.00,96.10
1480.00,96.04
1479.00,96.00
1478.00,95.96
1477.00,95.93
1476.00,95.89
1475.00,95.85
1474.00,95.79
1473.00,95.71
1472.00,95.63
1471.00,95.55
1470.00,95.49
1469.00,95.41
1468.00,95.32
1467.00,95.20
1466.00,95.07
1465.00,94.92
1464.00,94.79
1463.00,94.71
1462.00,94.66
1461.00,94.60
1460.00,94.54
1459.00,94.48
1458.00,94.41
1457.00,94.30
1456.00,94.19
1455.00,94.11
1454.00,94.06
1453.00,94.01
1452.00,93.97
1451.00,93.94
1450.00,93.91
1449.00,93.87
1448.00,93.82
1447.00,93.79
1446.00,93.76
1445.00,93.74
1444.00,93.71
1443.00,93.69
1442.00,93.65
1441.00,93.59
1440.00,93.51
1439.00,93.41
1438.00,93.31
1437.00,93.18
1436.00,93.05
1435.00,92.94
1434.00,92.84
1433.00,92.74
1432.00,92.63
1431.00,92.53
1430.00,92.46
1429.00,92.40
1428.00,92.36
1427.00,92.35
1426.00,92.37
1425.00,92.41
1424.00,92.46
1423.00,92.52
1422.00,92.58
1421.00,92.65
1420.00,92.76
1419.00,92.89
1418.00,93.03
1417.00,93.14
1416.00,93.24
1415.00,93.34
1414.00,93.43
1413.00,93.51
1412.00,93.57
1411.00,93.62
1410.00,93.66
1409.00,93.69
1408.00,93.72
1407.00,93.75
1406.00,93.78
1405.00,93.81
1404.00,93.84
1403.00,93.88
1402.00,93.92
1401.00,93.95
1400.00,93.98
1399.00,94.00
1398.00,94.02
1397.00,94.03
1396.00,94.03
1395.00,94.03
1394.00,94.03
1393.00,94.03
1392.00,94.03
1391.00,94.03
1390.00,94.00
1389.00,93.96
1388.00,93.89
1387.00,93.81
1386.00,93.72
1385.00,93.61
1384.00,93.49
1383.00,93.35
1382.00,93.20
1381.00,93.05
1380.00,92.88
1379.00,92.70
1378.00,92.52
1377.00,92.34
1376.00,92.16
1375.00,91.96
1374.00,91.75
1373.00,91.56
1372.00,91.42
1371.00,91.33
1370.00,91.28
1369.00,91.25
1368.00,91.24
1367.00,91.24
1366.00,91.25
1365.00,91.24
1364.00,91.22
1363.00,91.19
1362.00,91.17
1361.00,91.17
1360.00,91.19
1359.00,91.23
1358.00,91.28
1357.00,91.32
1356.00,91.36
1355.00,91.42
1354.00,91.50
1353.00,91.59
1352.00,91.67
1351.00,91.74
1350.00,91.78
1349.00,91.79
1348.00,91.77
1347.00,91.70
1346.00,91.60
1345.00,91.47
1344.00,91.32
1343.00,91.15
1342.00,90.99
1341.00,90.84
1340.00,90.70
1339.00,90.57
1338.00,90.46
1337.00,90.37
1336.00,90.29
1335.00,90.25
1334.00,90.26
1333.00,90.31
1332.00,90.39
1331.00,90.47
1330.00,90.55
1329.00,90.60
1328.00,90.63
1327.00,90.62
1326.00,90.59
1325.00,90.52
1324.00,90.41
1323.00,90.27
1322.00,90.10
1321.00,89.90
1320.00,89.68
1319.00,89.46
1318.00,89.26
1317.00,89.10
1316.00,89.01
1315.00,88.97
1314.00,89.00
1313.00,89.08
1312.00,89.21
1311.00,89.38
1310.00,89.59
1309.00,89.80
1308.00,90.03
1307.00,90.26
1306.00,90.49
1305.00,90.73
1304.00,90.97
1303.00,91.21
1302.00,91.45
1301.00,91.65
1300.00,91.83
1299.00,91.98
1298.00,92.11
1297.00,92.23
1296.00,92.33
1295.00,92.40
1294.00,92.46
1293.00,92.51
1292.00,92.55
1291.00,92.59
1290.00,92.63
1289.00,92.65
1288.00,92.66
1287.00,92.65
1286.00,92.62
1285.00,92.57
1284.00,92.50
1283.00,92.43
1282.00,92.38
1281.00,92.35
1280.00,92.36
1279.00,92.39
1278.00,92.44
1277.00,92.49
1276.00,92.53
1275.00,92.56
1274.00,92.61
1273.00,92.66
1272.00,92.72
1271.00,92.77
1270.00,92.82
1269.00,92.85
1268.00,92.89
1267.00,92.93
1266.00,92.98
1265.00,93.02
1264.00,93.05
1263.00,93.08
1262.00,93.11
1261.00,93.14
1260.00,93.17
1259.00,93.20
1258.00,93.23
1257.00,93.25
1256.00,93.27
1255.00,93.28
1254.00,93.28
1253.00,93.29
1252.00,93.28
1251.00,93.27
1250.00,93.24
1249.00,93.22
1248.00,93.21
1247.00,93.23
1246.00,93.26
1245.00,93.31
1244.00,93.36
1243.00,93.42
1242.00,93.48
1241.00,93.51
1240.00,93.53
1239.00,93.54
1238.00,93.54
1237.00,93.53
1236.00,93.52
1235.00,93.54
1234.00,93.58
1233.00,93.64
1232.00,93.72
1231.00,93.81
1230.00,93.92
1229.00,94.03
1228.00,94.14
1227.00,94.24
1226.00,94.34
1225.00,94.46
1224.00,94.58
1223.00,94.71
1222.00,94.83
1221.00,94.93
1220.00,95.00
1219.00,95.06
1218.00,95.11
1217.00,95.15
1216.00,95.16
1215.00,95.14
1214.00,95.10
1213.00,95.01
1212.00,94.88
1211.00,94.70
1210.00,94.48
1209.00,94.26
1208.00,94.07
1207.00,93.92
1206.00,93.81
1205.00,93.72
1204.00,93.64
1203.00,93.58
1202.00,93.57
1201.00,93.60
1200.00,93.68
1199.00,93.80
1198.00,93.92
1197.00,94.04
1196.00,94.16
1195.00,94.27
1194.00,94.39
1193.00,94.52
1192.00,94.65
1191.00,94.78
1190.00,94.89
1189.00,94.98
1188.00,95.04
1187.00,95.08
1186.00,95.09
1185.00,95.06
1184.00,95.01
1183.00,94.94
1182.00,94.84
1181.00,94.72
1180.00,94.56
1179.00,94.38
1178.00,94.16
1177.00,93.93
1176.00,93.69
1175.00,93.40
1174.00,93.07
1173.00,92.69
1172.00,92.26
1171.00,91.81
1170.00,91.34
1169.00,90.86
1168.00,90.39
1167.00,89.93
1166.00,89.51
1165.00,89.13
1164.00,88.81
1163.00,88.54
1162.00,88.35
1161.00,88.22
1160.00,88.16
1159.00,88.14
1158.00,88.17
1157.00,88.23
1156.00,88.31
1155.00,88.40
1154.00,88.50
1153.00,88.62
1152.00,88.74
1151.00,88.87
1150.00,88.99
1149.00,89.10
1148.00,89.20
1147.00,89.33
1146.00,89.48
1145.00,89.66
1144.00,89.85
1143.00,90.04
1142.00,90.21
1141.00,90.35
1140.00,90.44
1139.00,90.49
1138.00,90.48
1137.00,90.41
1136.00,90.31
1135.00,90.18
1134.00,90.03
1133.00,89.87
1132.00,89.67
1131.00,89.44
1130.00,89.18
1129.00,88.87
1128.00,88.51
1127.00,88.13
1126.00,87.75
1125.00,87.40
1124.00,87.07
1123.00,86.76
1122.00,86.42
1121.00,86.04
1120.00,85.64
1119.00,85.22
1118.00,84.78
1117.00,84.29
1116.00,83.74
1115.00,83.18
1114.00,82.66
1113.00,82.19
1112.00,81.80
1111.00,81.47
1110.00,81.22
1109.00,81.03
1108.00,80.88
1107.00,80.76
1106.00,80.68
1105.00,80.60
1104.00,80.54
1103.00,80.52
1102.00,80.54
1101.00,80.59
1100.00,80.68
1099.00,80.83
1098.00,81.03
1097.00,81.27
1096.00,81.50
1095.00,81.72
1094.00,81.93
1093.00,82.12
1092.00,82.30
1091.00,82.47
1090.00,82.62
1089.00,82.75
1088.00,82.84
1087.00,82.90
1086.00,82.94
1085.00,82.95
1084.00,82.92
1083.00,82.87
1082.00,82.81
1081.00,82.69
1080.00,82.51
1079.00,82.27
1078.00,82.02
1077.00,81.77
1076.00,81.54
1075.00,81.33
1074.00,81.11
1073.00,80.86
1072.00,80.56
1071.00,80.23
1070.00,79.88
1069.00,79.49
1068.00,79.03
1067.00,78.52
1066.00,77.94
1065.00,77.32
1064.00,76.67
1063.00,76.02
1062.00,75.39
1061.00,74.79
1060.00,74.22
1059.00,73.74
1058.00,73.34
1057.00,73.01
1056.00,72.73
1055.00,72.52
1054.00,72.38
1053.00,72.30
1052.00,72.25
1051.00,72.26
1050.00,72.32
1049.00,72.43
1048.00,72.57
1047.00,72.74
1046.00,72.94
1045.00,73.11
1044.00,73.23
1043.00,73.30
1042.00,73.32
1041.00,73.26
1040.00,73.11
1039.00,72.89
1038.00,72.61
1037.00,72.28
1036.00,71.93
1035.00,71.60
1034.00,71.33
1033.00,71.11
1032.00,70.95
1031.00,70.83
1030.00,70.74
1029.00,70.67
1028.00,70.64
1027.00,70.66
1026.00,70.72
1025.00,70.80
1024.00,70.88
1023.00,70.97
1022.00,71.09
1021.00,71.20
1020.00,71.31
1019.00,71.41
1018.00,71.52
1017.00,71.64
1016.00,71.76
1015.00,71.89
1014.00,71.99
1013.00,72.06
1012.00,72.09
1011.00,72.11
1010.00,72.13
1009.00,72.14
1008.00,72.13
1007.00,72.10
1006.00,72.07
1005.00,72.02
1004.00,71.96
1003.00,71.92
1002.00,71.90
1001.00,71.92
1000.00,71.98
999.00,72.07
998.00,72.19
997.00,72.34
996.00,72.48
995.00,72.63
994.00,72.77
993.00,72.90
992.00,73.01
991.00,73.08
990.00,73.10
989.00,73.06
988.00,72.98
987.00,72.88
986.00,72.80
985.00,72.75
984.00,72.78
983.00,72.92
982.00,73.18
981.00,73.53
980.00,73.96
979.00,74.45
978.00,74.96
977.00,75.49
976.00,76.01
975.00,76.52
974.00,77.02
973.00,77.49
972.00,77.91
971.00,78.30
970.00,78.66
969.00,79.00
968.00,79.33
967.00,79.64
966.00,79.94
965.00,80.22
964.00,80.49
963.00,80.74
962.00,80.98
961.00,81.20
960.00,81.43
959.00,81.66
958.00,81.90
957.00,82.14
956.00,82.39
955.00,82.63
954.00,82.86
953.00,83.07
952.00,83.27
951.00,83.48
950.00,83.69
949.00,83.90
948.00,84.10
947.00,84.31
946.00,84.52
945.00,84.71
944.00,84.89
943.00,85.06
942.00,85.22
941.00,85.37
940.00,85.49
939.00,85.60
938.00,85.71
937.00,85.81
936.00,85.91
935.00,86.02
934.00,86.14
933.00,86.24
932.00,86.32
931.00,86.38
930.00,86.44
929.00,86.52
928.00,86.62
927.00,86.74
926.00,86.84
925.00,86.92
924.00,86.98
923.00,87.06
922.00,87.14
921.00,87.23
920.00,87.29
919.00,87.35
918.00,87.39
917.00,87.41
916.00,87.40
915.00,87.38
914.00,87.36
913.00,87.33
912.00,87.30
911.00,87.27
910.00,87.25
909.00,87.22
908.00,87.17
907.00,87.11
906.00,87.05
905.00,86.99
904.00,86.93
903.00,86.87
902.00,86.81
901.00,86.76
900.00,86.72
899.00,86.69
898.00,86.67
897.00,86.64
896.00,86.62
895.00,86.63
894.00,86.68
893.00,86.76
892.00,86.86
891.00,86.96
890.00,87.07
889.00,87.19
888.00,87.31
887.00,87.45
886.00,87.58
885.00,87.72
884.00,87.87
883.00,88.02
882.00,88.17
881.00,88.30
880.00,88.43
879.00,88.54
878.00,88.64
877.00,88.73
876.00,88.84
875.00,88.96
874.00,89.07
873.00,89.18
872.00,89.26
871.00,89.33
870.00,89.41
869.00,89.47
868.00,89.52
867.00,89.57
866.00,89.63
865.00,89.69
864.00,89.75
863.00,89.79
862.00,89.83
861.00,89.86
860.00,89.90
859.00,89.95
858.00,90.02
857.00,90.08
856.00,90.13
855.00,90.16
854.00,90.18
853.00,90.21
852.00,90.23
851.00,90.26
850.00,90.29
849.00,90.32
848.00,90.34
847.00,90.36
846.00,90.39
845.00,90.43
844.00,90.48
843.00,90.52
842.00,90.53
841.00,90.50
840.00,90.44
839.00,90.40
838.00,90.39
837.00,90.40
836.00,90.43
835.00,90.47
834.00,90.49
833.00,90.49
832.00,90.48
831.00,90.47
830.00,90.48
829.00,90.48
828.00,90.50
827.00,90.52
826.00,90.54
825.00,90.57
824.00,90.59
823.00,90.61
822.00,90.59
821.00,90.53
820.00,90.44
819.00,90.37
818.00,90.36
817.00,90.39
816.00,90.44
815.00,90.48
814.00,90.49
813.00,90.49
812.00,90.48
811.00,90.49
810.00,90.49
809.00,90.50
808.00,90.51
807.00,90.53
806.00,90.55
805.00,90.55
804.00,90.53
803.00,90.52
802.00,90.52
801.00,90.52
800.00,90.53
799.00,90.53
798.00,90.52
797.00,90.49
796.00,90.46
795.00,90.46
794.00,90.48
793.00,90.50
792.00,90.49
791.00,90.46
790.00,90.43
789.00,90.40
788.00,90.36
787.00,90.33
786.00,90.31
785.00,90.30
784.00,90.31
783.00,90.33
782.00,90.35
781.00,90.33
780.00,90.29
779.00,90.23
778.00,90.17
777.00,90.12
776.00,90.07
775.00,90.05
774.00,90.06
773.00,90.08
772.00,90.09
771.00,90.06
770.00,90.01
769.00,89.95
768.00,89.90
767.00,89.86
766.00,89.84
765.00,89.84
764.00,89.82
763.00,89.77
762.00,89.69
761.00,89.60
760.00,89.52
759.00,89.48
758.00,89.45
757.00,89.44
756.00,89.42
755.00,89.40
754.00,89.36
753.00,89.30
752.00,89.24
751.00,89.20
750.00,89.18
749.00,89.15
748.00,89.07
747.00,88.96
746.00,88.85
745.00,88.77
744.00,88.71
743.00,88.68
742.00,88.66
741.00,88.63
740.00,88.59
739.00,88.54
738.00,88.49
737.00,88.43
736.00,88.34
735.00,88.24
734.00,88.12
733.00,88.00
732.00,87.89
731.00,87.79
730.00,87.70
729.00,87.61
728.00,87.48
727.00,87.34
726.00,87.19
725.00,87.04
724.00,86.88
723.00,86.72
722.00,86.53
721.00,86.32
720.00,86.08
719.00,85.86
718.00,85.68
717.00,85.50
716.00,85.33
715.00,85.17
714.00,85.01
713.00,84.86
712.00,84.71
711.00,84.58
710.00,84.48
709.00,84.40
708.00,84.32
707.00,84.24
706.00,84.18
705.00,84.10
704.00,83.99
703.00,83.88
702.00,83.80
701.00,83.76
700.00,83.75
699.00,83.74
698.00,83.71
697.00,83.66
696.00,83.61
695.00,83.58
694.00,83.62
693.00,83.68
692.00,83.71
691.00,83.69
690.00,83.63
689.00,83.59
688.00,83.56
687.00,83.53
686.00,83.47
685.00,83.34
684.00,83.20
683.00,83.10
682.00,83.05
681.00,83.00
680.00,82.89
679.00,82.69
678.00,82.43
677.00,82.15
676.00,81.86
675.00,81.56
674.00,81.21
673.00,80.81
672.00,80.43
671.00,80.15
670.00,79.97
669.00,79.78
668.00,79.46
667.00,79.15
666.00,78.98
665.00,78.86
664.00,78.69
663.00,78.50
662.00,78.37
661.00,78.39
660.00,78.55
659.00,78.80
658.00,79.06
657.00,79.23
656.00,79.34
655.00,79.44
654.00,79.55
653.00,79.64
652.00,79.72
651.00,79.85
650.00,80.02
649.00,80.16
648.00,80.19
647.00,80.15
646.00,80.11
645.00,80.09
644.00,80.01
643.00,79.89
642.00,79.80
641.00,79.78
640.00,79.77
639.00,79.70
638.00,79.54
637.00,79.36
636.00,79.20
635.00,79.07
634.00,78.89
633.00,78.63
632.00,78.38
631.00,78.29
630.00,78.34
629.00,78.41
628.00,78.42
627.00,78.44
626.00,78.45
625.00,78.33
624.00,77.97
623.00,77.48
622.00,77.04
621.00,76.73
620.00,76.55
619.00,76.48
618.00,76.44
617.00,76.28
616.00,76.02
615.00,75.84
614.00,75.80
613.00,75.76
612.00,75.65
611.00,75.59
610.00,75.64
609.00,75.68
608.00,75.64
607.00,75.59
606.00,75.60
605.00,75.60
604.00,75.53
603.00,75.52
602.00,75.62
601.00,75.72
600.00,75.71
599.00,75.64
598.00,75.64
597.00,75.66
596.00,75.56
595.00,75.35
594.00,75.11
593.00,74.87
592.00,74.69
591.00,74.64
590.00,74.68
589.00,74.67
588.00,74.53
587.00,74.38
586.00,74.40
585.00,74.61
584.00,74.90
583.00,75.22
582.00,75.46
581.00,75.46
580.00,75.26
579.00,75.11
578.00,75.18
577.00,75.25
576.00,75.14
575.00,74.85
574.00,74.45
573.00,73.88
572.00,73.28
571.00,73.02
570.00,73.30
569.00,73.77
568.00,73.94
567.00,73.55
566.00,72.68
565.00,71.65
564.00,70.95
563.00,70.95
562.00,71.40
561.00,71.58
560.00,71.22
559.00,70.75
558.00,70.60
557.00,70.77
556.00,71.09
555.00,71.54
554.00,71.87
553.00,71.76
552.00,71.27
551.00,71.02
550.00,71.19
