Created as New Dataset,3.1 Jute, burlap
cm-1,%T
4000.00,100.17
3999.00,100.18
3998.00,100.19
3997.00,100.19
3996.00,100.17
3995.00,100.16
3994.00,100.14
3993.00,100.15
3992.00,100.17
3991.00,100.20
3990.00,100.22
3989.00,100.22
3988.00,100.20
3987.00,100.17
3986.00,100.16
3985.00,100.16
3984.00,100.17
3983.00,100.18
3982.00,100.17
3981.00,100.16
3980.00,100.15
3979.00,100.14
3978.00,100.14
3977.00,100.14
3976.00,100.14
3975.00,100.14
3974.00,100.15
3973.00,100.16
3972.00,100.17
3971.00,100.17
3970.00,100.18
3969.00,100.19
3968.00,100.20
3967.00,100.21
3966.00,100.20
3965.00,100.20
3964.00,100.19
3963.00,100.18
3962.00,100.16
3961.00,100.15
3960.00,100.13
3959.00,100.12
3958.00,100.11
3957.00,100.10
3956.00,100.10
3955.00,100.11
3954.00,100.12
3953.00,100.14
3952.00,100.15
3951.00,100.15
3950.00,100.15
3949.00,100.15
3948.00,100.15
3947.00,100.16
3946.00,100.16
3945.00,100.15
3944.00,100.14
3943.00,100.14
3942.00,100.14
3941.00,100.15
3940.00,100.16
3939.00,100.17
3938.00,100.17
3937.00,100.17
3936.00,100.15
3935.00,100.13
3934.00,100.12
3933.00,100.12
3932.00,100.13
3931.00,100.14
3930.00,100.15
3929.00,100.15
3928.00,100.15
3927.00,100.15
3926.00,100.16
3925.00,100.16
3924.00,100.16
3923.00,100.15
3922.00,100.15
3921.00,100.15
3920.00,100.15
3919.00,100.16
3918.00,100.17
3917.00,100.18
3916.00,100.18
3915.00,100.19
3914.00,100.19
3913.00,100.19
3912.00,100.19
3911.00,100.19
3910.00,100.19
3909.00,100.20
3908.00,100.21
3907.00,100.20
3906.00,100.17
3905.00,100.15
3904.00,100.14
3903.00,100.13
3902.00,100.14
3901.00,100.14
3900.00,100.14
3899.00,100.14
3898.00,100.13
3897.00,100.13
3896.00,100.13
3895.00,100.14
3894.00,100.15
3893.00,100.16
3892.00,100.18
3891.00,100.19
3890.00,100.20
3889.00,100.19
3888.00,100.19
3887.00,100.19
3886.00,100.19
3885.00,100.19
3884.00,100.17
3883.00,100.15
3882.00,100.15
3881.00,100.17
3880.00,100.20
3879.00,100.20
3878.00,100.20
3877.00,100.18
3876.00,100.17
3875.00,100.17
3874.00,100.16
3873.00,100.14
3872.00,100.10
3871.00,100.09
3870.00,100.09
3869.00,100.09
3868.00,100.08
3867.00,100.08
3866.00,100.10
3865.00,100.13
3864.00,100.15
3863.00,100.16
3862.00,100.17
3861.00,100.18
3860.00,100.19
3859.00,100.21
3858.00,100.23
3857.00,100.23
3856.00,100.20
3855.00,100.19
3854.00,100.19
3853.00,100.20
3852.00,100.20
3851.00,100.18
3850.00,100.17
3849.00,100.16
3848.00,100.17
3847.00,100.18
3846.00,100.19
3845.00,100.21
3844.00,100.23
3843.00,100.25
3842.00,100.24
3841.00,100.23
3840.00,100.22
3839.00,100.22
3838.00,100.21
3837.00,100.19
3836.00,100.16
3835.00,100.14
3834.00,100.13
3833.00,100.13
3832.00,100.13
3831.00,100.13
3830.00,100.10
3829.00,100.08
3828.00,100.08
3827.00,100.10
3826.00,100.12
3825.00,100.12
3824.00,100.10
3823.00,100.09
3822.00,100.10
3821.00,100.12
3820.00,100.12
3819.00,100.12
3818.00,100.13
3817.00,100.15
3816.00,100.18
3815.00,100.18
3814.00,100.16
3813.00,100.14
3812.00,100.13
3811.00,100.13
3810.00,100.13
3809.00,100.14
3808.00,100.15
3807.00,100.15
3806.00,100.15
3805.00,100.13
3804.00,100.12
3803.00,100.13
3802.00,100.16
3801.00,100.15
3800.00,100.13
3799.00,100.11
3798.00,100.11
3797.00,100.12
3796.00,100.14
3795.00,100.15
3794.00,100.15
3793.00,100.15
3792.00,100.15
3791.00,100.14
3790.00,100.13
3789.00,100.12
3788.00,100.12
3787.00,100.13
3786.00,100.13
3785.00,100.14
3784.00,100.13
3783.00,100.12
3782.00,100.12
3781.00,100.11
3780.00,100.11
3779.00,100.11
3778.00,100.10
3777.00,100.09
3776.00,100.09
3775.00,100.09
3774.00,100.09
3773.00,100.09
3772.00,100.10
3771.00,100.10
3770.00,100.10
3769.00,100.09
3768.00,100.06
3767.00,100.03
3766.00,100.02
3765.00,100.02
3764.00,100.02
3763.00,100.02
3762.00,100.01
3761.00,100.00
3760.00,99.99
3759.00,100.00
3758.00,100.01
3757.00,100.01
3756.00,100.01
3755.00,100.00
3754.00,100.00
3753.00,100.03
3752.00,100.06
3751.00,100.08
3750.00,100.07
3749.00,100.06
3748.00,100.05
3747.00,100.04
3746.00,100.04
3745.00,100.04
3744.00,100.02
3743.00,99.98
3742.00,99.96
3741.00,99.97
3740.00,100.01
3739.00,100.06
3738.00,100.09
3737.00,100.10
3736.00,100.07
3735.00,100.01
3734.00,99.96
3733.00,99.93
3732.00,99.94
3731.00,99.96
3730.00,99.96
3729.00,99.96
3728.00,99.96
3727.00,99.97
3726.00,99.97
3725.00,99.97
3724.00,99.98
3723.00,99.99
3722.00,100.00
3721.00,99.99
3720.00,99.98
3719.00,99.97
3718.00,99.97
3717.00,99.96
3716.00,99.96
3715.00,99.95
3714.00,99.93
3713.00,99.90
3712.00,99.88
3711.00,99.89
3710.00,99.91
3709.00,99.92
3708.00,99.92
3707.00,99.90
3706.00,99.87
3705.00,99.86
3704.00,99.86
3703.00,99.86
3702.00,99.87
3701.00,99.88
3700.00,99.88
3699.00,99.87
3698.00,99.88
3697.00,99.89
3696.00,99.90
3695.00,99.90
3694.00,99.89
3693.00,99.88
3692.00,99.87
3691.00,99.85
3690.00,99.82
3689.00,99.80
3688.00,99.79
3687.00,99.78
3686.00,99.78
3685.00,99.77
3684.00,99.76
3683.00,99.75
3682.00,99.74
3681.00,99.75
3680.00,99.77
3679.00,99.79
3678.00,99.79
3677.00,99.79
3676.00,99.79
3675.00,99.78
3674.00,99.76
3673.00,99.73
3672.00,99.72
3671.00,99.72
3670.00,99.73
3669.00,99.71
3668.00,99.68
3667.00,99.66
3666.00,99.65
3665.00,99.66
3664.00,99.67
3663.00,99.66
3662.00,99.65
3661.00,99.62
3660.00,99.59
3659.00,99.56
3658.00,99.53
3657.00,99.51
3656.00,99.50
3655.00,99.49
3654.00,99.48
3653.00,99.47
3652.00,99.46
3651.00,99.45
3650.00,99.43
3649.00,99.42
3648.00,99.41
3647.00,99.39
3646.00,99.36
3645.00,99.34
3644.00,99.32
3643.00,99.32
3642.00,99.32
3641.00,99.33
3640.00,99.32
3639.00,99.31
3638.00,99.27
3637.00,99.23
3636.00,99.21
3635.00,99.22
3634.00,99.24
3633.00,99.25
3632.00,99.21
3631.00,99.15
3630.00,99.10
3629.00,99.08
3628.00,99.06
3627.00,99.04
3626.00,99.03
3625.00,99.03
3624.00,99.03
3623.00,99.02
3622.00,98.99
3621.00,98.94
3620.00,98.89
3619.00,98.86
3618.00,98.84
3617.00,98.82
3616.00,98.81
3615.00,98.80
3614.00,98.79
3613.00,98.77
3612.00,98.77
3611.00,98.77
3610.00,98.78
3609.00,98.79
3608.00,98.77
3607.00,98.75
3606.00,98.74
3605.00,98.73
3604.00,98.72
3603.00,98.69
3602.00,98.64
3601.00,98.59
3600.00,98.55
3599.00,98.55
3598.00,98.55
3597.00,98.54
3596.00,98.53
3595.00,98.51
3594.00,98.50
3593.00,98.48
3592.00,98.45
3591.00,98.40
3590.00,98.35
3589.00,98.32
3588.00,98.31
3587.00,98.31
3586.00,98.31
3585.00,98.30
3584.00,98.28
3583.00,98.25
3582.00,98.21
3581.00,98.18
3580.00,98.15
3579.00,98.13
3578.00,98.11
3577.00,98.09
3576.00,98.07
3575.00,98.04
3574.00,98.02
3573.00,97.99
3572.00,97.96
3571.00,97.92
3570.00,97.89
3569.00,97.86
3568.00,97.84
3567.00,97.81
3566.00,97.78
3565.00,97.76
3564.00,97.74
3563.00,97.73
3562.00,97.73
3561.00,97.71
3560.00,97.69
3559.00,97.65
3558.00,97.61
3557.00,97.58
3556.00,97.56
3555.00,97.53
3554.00,97.51
3553.00,97.49
3552.00,97.48
3551.00,97.47
3550.00,97.44
3549.00,97.39
3548.00,97.34
3547.00,97.30
3546.00,97.27
3545.00,97.25
3544.00,97.23
3543.00,97.21
3542.00,97.20
3541.00,97.20
3540.00,97.20
3539.00,97.17
3538.00,97.13
3537.00,97.08
3536.00,97.02
3535.00,96.97
3534.00,96.94
3533.00,96.91
3532.00,96.89
3531.00,96.88
3530.00,96.86
3529.00,96.84
3528.00,96.81
3527.00,96.78
3526.00,96.75
3525.00,96.73
3524.00,96.70
3523.00,96.66
3522.00,96.62
3521.00,96.60
3520.00,96.58
3519.00,96.57
3518.00,96.56
3517.00,96.54
3516.00,96.51
3515.00,96.46
3514.00,96.41
3513.00,96.35
3512.00,96.31
3511.00,96.28
3510.00,96.26
3509.00,96.23
3508.00,96.19
3507.00,96.16
3506.00,96.13
3505.00,96.11
3504.00,96.09
3503.00,96.07
3502.00,96.04
3501.00,96.02
3500.00,95.99
3499.00,95.96
3498.00,95.92
3497.00,95.87
3496.00,95.81
3495.00,95.77
3494.00,95.74
3493.00,95.72
3492.00,95.71
3491.00,95.69
3490.00,95.66
3489.00,95.61
3488.00,95.56
3487.00,95.51
3486.00,95.47
3485.00,95.43
3484.00,95.40
3483.00,95.38
3482.00,95.36
3481.00,95.34
3480.00,95.33
3479.00,95.31
3478.00,95.27
3477.00,95.21
3476.00,95.16
3475.00,95.11
3474.00,95.07
3473.00,95.02
3472.00,94.97
3471.00,94.94
3470.00,94.91
3469.00,94.89
3468.00,94.85
3467.00,94.82
3466.00,94.78
3465.00,94.74
3464.00,94.71
3463.00,94.68
3462.00,94.63
3461.00,94.58
3460.00,94.53
3459.00,94.48
3458.00,94.44
3457.00,94.40
3456.00,94.37
3455.00,94.34
3454.00,94.30
3453.00,94.26
3452.00,94.22
3451.00,94.19
3450.00,94.14
3449.00,94.09
3448.00,94.03
3447.00,93.97
3446.00,93.91
3445.00,93.87
3444.00,93.83
3443.00,93.82
3442.00,93.81
3441.00,93.79
3440.00,93.75
3439.00,93.71
3438.00,93.67
3437.00,93.64
3436.00,93.61
3435.00,93.57
3434.00,93.54
3433.00,93.51
3432.00,93.48
3431.00,93.45
3430.00,93.41
3429.00,93.37
3428.00,93.32
3427.00,93.25
3426.00,93.19
3425.00,93.14
3424.00,93.10
3423.00,93.09
3422.00,93.08
3421.00,93.06
3420.00,93.03
3419.00,92.98
3418.00,92.93
3417.00,92.89
3416.00,92.85
3415.00,92.83
3414.00,92.81
3413.00,92.79
3412.00,92.76
3411.00,92.72
3410.00,92.69
3409.00,92.65
3408.00,92.63
3407.00,92.61
3406.00,92.59
3405.00,92.56
3404.00,92.51
3403.00,92.45
3402.00,92.41
3401.00,92.38
3400.00,92.36
3399.00,92.33
3398.00,92.30
3397.00,92.27
3396.00,92.24
3395.00,92.22
3394.00,92.21
3393.00,92.19
3392.00,92.18
3391.00,92.15
3390.00,92.10
3389.00,92.06
3388.00,92.03
3387.00,92.00
3386.00,91.98
3385.00,91.96
3384.00,91.92
3383.00,91.88
3382.00,91.84
3381.00,91.81
3380.00,91.79
3379.00,91.77
3378.00,91.76
3377.00,91.75
3376.00,91.74
3375.00,91.71
3374.00,91.68
3373.00,91.65
3372.00,91.61
3371.00,91.58
3370.00,91.55
3369.00,91.52
3368.00,91.50
3367.00,91.48
3366.00,91.45
3365.00,91.41
3364.00,91.38
3363.00,91.35
3362.00,91.33
3361.00,91.31
3360.00,91.28
3359.00,91.24
3358.00,91.18
3357.00,91.11
3356.00,91.04
3355.00,90.97
3354.00,90.91
3353.00,90.88
3352.00,90.87
3351.00,90.87
3350.00,90.86
3349.00,90.84
3348.00,90.80
3347.00,90.77
3346.00,90.74
3345.00,90.72
3344.00,90.70
3343.00,90.69
3342.00,90.68
3341.00,90.68
3340.00,90.67
3339.00,90.65
3338.00,90.64
3337.00,90.61
3336.00,90.58
3335.00,90.55
3334.00,90.52
3333.00,90.51
3332.00,90.51
3331.00,90.50
3330.00,90.49
3329.00,90.48
3328.00,90.48
3327.00,90.50
3326.00,90.53
3325.00,90.55
3324.00,90.57
3323.00,90.58
3322.00,90.60
3321.00,90.62
3320.00,90.64
3319.00,90.66
3318.00,90.67
3317.00,90.69
3316.00,90.71
3315.00,90.73
3314.00,90.75
3313.00,90.76
3312.00,90.78
3311.00,90.79
3310.00,90.80
3309.00,90.80
3308.00,90.80
3307.00,90.79
3306.00,90.80
3305.00,90.81
3304.00,90.82
3303.00,90.83
3302.00,90.84
3301.00,90.85
3300.00,90.86
3299.00,90.88
3298.00,90.90
3297.00,90.92
3296.00,90.93
3295.00,90.93
3294.00,90.92
3293.00,90.92
3292.00,90.92
3291.00,90.92
3290.00,90.92
3289.00,90.91
3288.00,90.91
3287.00,90.92
3286.00,90.95
3285.00,90.98
3284.00,90.99
3283.00,91.00
3282.00,90.99
3281.00,91.00
3280.00,91.03
3279.00,91.07
3278.00,91.10
3277.00,91.11
3276.00,91.12
3275.00,91.12
3274.00,91.14
3273.00,91.16
3272.00,91.20
3271.00,91.23
3270.00,91.27
3269.00,91.30
3268.00,91.32
3267.00,91.34
3266.00,91.37
3265.00,91.42
3264.00,91.47
3263.00,91.52
3262.00,91.56
3261.00,91.59
3260.00,91.64
3259.00,91.69
3258.00,91.73
3257.00,91.77
3256.00,91.80
3255.00,91.84
3254.00,91.90
3253.00,91.98
3252.00,92.04
3251.00,92.08
3250.00,92.10
3249.00,92.12
3248.00,92.16
3247.00,92.21
3246.00,92.26
3245.00,92.32
3244.00,92.36
3243.00,92.40
3242.00,92.43
3241.00,92.46
3240.00,92.50
3239.00,92.54
3238.00,92.58
3237.00,92.61
3236.00,92.64
3235.00,92.66
3234.00,92.69
3233.00,92.73
3232.00,92.76
3231.00,92.79
3230.00,92.83
3229.00,92.88
3228.00,92.92
3227.00,92.95
3226.00,92.98
3225.00,93.01
3224.00,93.05
3223.00,93.11
3222.00,93.17
3221.00,93.21
3220.00,93.24
3219.00,93.27
3218.00,93.31
3217.00,93.35
3216.00,93.41
3215.00,93.45
3214.00,93.49
3213.00,93.51
3212.00,93.52
3211.00,93.54
3210.00,93.57
3209.00,93.61
3208.00,93.64
3207.00,93.69
3206.00,93.73
3205.00,93.77
3204.00,93.80
3203.00,93.83
3202.00,93.84
3201.00,93.85
3200.00,93.87
3199.00,93.89
3198.00,93.93
3197.00,93.98
3196.00,94.03
3195.00,94.07
3194.00,94.13
3193.00,94.18
3192.00,94.22
3191.00,94.27
3190.00,94.31
3189.00,94.34
3188.00,94.36
3187.00,94.39
3186.00,94.41
3185.00,94.44
3184.00,94.46
3183.00,94.48
3182.00,94.52
3181.00,94.55
3180.00,94.59
3179.00,94.63
3178.00,94.66
3177.00,94.67
3176.00,94.69
3175.00,94.72
3174.00,94.76
3173.00,94.81
3172.00,94.85
3171.00,94.88
3170.00,94.89
3169.00,94.91
3168.00,94.95
3167.00,95.00
3166.00,95.06
3165.00,95.10
3164.00,95.13
3163.00,95.14
3162.00,95.16
3161.00,95.17
3160.00,95.19
3159.00,95.21
3158.00,95.24
3157.00,95.27
3156.00,95.32
3155.00,95.36
3154.00,95.40
3153.00,95.43
3152.00,95.46
3151.00,95.47
3150.00,95.48
3149.00,95.48
3148.00,95.48
3147.00,95.49
3146.00,95.52
3145.00,95.56
3144.00,95.61
3143.00,95.65
3142.00,95.69
3141.00,95.72
3140.00,95.74
3139.00,95.76
3138.00,95.77
3137.00,95.78
3136.00,95.80
3135.00,95.82
3134.00,95.85
3133.00,95.89
3132.00,95.91
3131.00,95.93
3130.00,95.95
3129.00,95.97
3128.00,96.00
3127.00,96.03
3126.00,96.06
3125.00,96.07
3124.00,96.07
3123.00,96.08
3122.00,96.09
3121.00,96.12
3120.00,96.15
3119.00,96.18
3118.00,96.20
3117.00,96.23
3116.00,96.25
3115.00,96.29
3114.00,96.32
3113.00,96.35
3112.00,96.36
3111.00,96.38
3110.00,96.39
3109.00,96.40
3108.00,96.40
3107.00,96.41
3106.00,96.43
3105.00,96.45
3104.00,96.47
3103.00,96.48
3102.00,96.51
3101.00,96.54
3100.00,96.56
3099.00,96.58
3098.00,96.58
3097.00,96.58
3096.00,96.61
3095.00,96.64
3094.00,96.66
3093.00,96.68
3092.00,96.69
3091.00,96.72
3090.00,96.75
3089.00,96.78
3088.00,96.80
3087.00,96.82
3086.00,96.84
3085.00,96.86
3084.00,96.86
3083.00,96.85
3082.00,96.85
3081.00,96.85
3080.00,96.86
3079.00,96.89
3078.00,96.92
3077.00,96.95
3076.00,96.98
3075.00,97.00
3074.00,97.00
3073.00,97.01
3072.00,97.01
3071.00,97.01
3070.00,97.02
3069.00,97.02
3068.00,97.03
3067.00,97.05
3066.00,97.06
3065.00,97.07
3064.00,97.08
3063.00,97.09
3062.00,97.11
3061.00,97.15
3060.00,97.18
3059.00,97.21
3058.00,97.23
3057.00,97.24
3056.00,97.26
3055.00,97.27
3054.00,97.28
3053.00,97.28
3052.00,97.28
3051.00,97.28
3050.00,97.28
3049.00,97.28
3048.00,97.29
3047.00,97.32
3046.00,97.35
3045.00,97.38
3044.00,97.40
3043.00,97.42
3042.00,97.43
3041.00,97.44
3040.00,97.44
3039.00,97.44
3038.00,97.43
3037.00,97.43
3036.00,97.43
3035.00,97.44
3034.00,97.45
3033.00,97.47
3032.00,97.50
3031.00,97.53
3030.00,97.55
3029.00,97.56
3028.00,97.55
3027.00,97.54
3026.00,97.54
3025.00,97.54
3024.00,97.54
3023.00,97.54
3022.00,97.53
3021.00,97.53
3020.00,97.53
3019.00,97.54
3018.00,97.56
3017.00,97.58
3016.00,97.60
3015.00,97.60
3014.00,97.60
3013.00,97.61
3012.00,97.62
3011.00,97.64
3010.00,97.64
3009.00,97.63
3008.00,97.61
3007.00,97.59
3006.00,97.57
3005.00,97.56
3004.00,97.55
3003.00,97.54
3002.00,97.54
3001.00,97.54
3000.00,97.55
2999.00,97.56
2998.00,97.56
2997.00,97.56
2996.00,97.57
2995.00,97.57
2994.00,97.59
2993.00,97.59
2992.00,97.58
2991.00,97.56
2990.00,97.54
2989.00,97.52
2988.00,97.51
2987.00,97.51
2986.00,97.50
2985.00,97.49
2984.00,97.47
2983.00,97.44
2982.00,97.42
2981.00,97.40
2980.00,97.38
2979.00,97.35
2978.00,97.32
2977.00,97.28
2976.00,97.23
2975.00,97.19
2974.00,97.14
2973.00,97.09
2972.00,97.03
2971.00,96.96
2970.00,96.90
2969.00,96.85
2968.00,96.82
2967.00,96.82
2966.00,96.80
2965.00,96.77
2964.00,96.71
2963.00,96.65
2962.00,96.60
2961.00,96.55
2960.00,96.51
2959.00,96.46
2958.00,96.41
2957.00,96.35
2956.00,96.30
2955.00,96.26
2954.00,96.22
2953.00,96.18
2952.00,96.15
2951.00,96.13
2950.00,96.11
2949.00,96.10
2948.00,96.08
2947.00,96.06
2946.00,96.01
2945.00,95.95
2944.00,95.89
2943.00,95.84
2942.00,95.79
2941.00,95.74
2940.00,95.68
2939.00,95.63
2938.00,95.59
2937.00,95.55
2936.00,95.50
2935.00,95.44
2934.00,95.38
2933.00,95.32
2932.00,95.26
2931.00,95.21
2930.00,95.15
2929.00,95.09
2928.00,95.04
2927.00,94.98
2926.00,94.94
2925.00,94.90
2924.00,94.86
2923.00,94.82
2922.00,94.77
2921.00,94.72
2920.00,94.68
2919.00,94.66
2918.00,94.66
2917.00,94.68
2916.00,94.71
2915.00,94.76
2914.00,94.82
2913.00,94.88
2912.00,94.93
2911.00,94.97
2910.00,94.99
2909.00,94.98
2908.00,94.97
2907.00,94.94
2906.00,94.93
2905.00,94.93
2904.00,94.94
2903.00,94.96
2902.00,94.97
2901.00,94.97
2900.00,94.97
2899.00,94.98
2898.00,94.99
2897.00,95.02
2896.00,95.06
2895.00,95.09
2894.00,95.12
2893.00,95.14
2892.00,95.17
2891.00,95.20
2890.00,95.23
2889.00,95.26
2888.00,95.29
2887.00,95.31
2886.00,95.33
2885.00,95.34
2884.00,95.36
2883.00,95.37
2882.00,95.37
2881.00,95.38
2880.00,95.40
2879.00,95.42
2878.00,95.45
2877.00,95.47
2876.00,95.47
2875.00,95.47
2874.00,95.46
2873.00,95.45
2872.00,95.45
2871.00,95.46
2870.00,95.48
2869.00,95.50
2868.00,95.52
2867.00,95.56
2866.00,95.60
2865.00,95.64
2864.00,95.67
2863.00,95.69
2862.00,95.69
2861.00,95.68
2860.00,95.67
2859.00,95.66
2858.00,95.63
2857.00,95.60
2856.00,95.57
2855.00,95.55
2854.00,95.54
2853.00,95.52
2852.00,95.52
2851.00,95.54
2850.00,95.58
2849.00,95.66
2848.00,95.76
2847.00,95.86
2846.00,95.95
2845.00,96.03
2844.00,96.11
2843.00,96.19
2842.00,96.27
2841.00,96.36
2840.00,96.44
2839.00,96.51
2838.00,96.58
2837.00,96.63
2836.00,96.69
2835.00,96.74
2834.00,96.78
2833.00,96.82
2832.00,96.85
2831.00,96.89
2830.00,96.94
2829.00,96.99
2828.00,97.04
2827.00,97.08
2826.00,97.10
2825.00,97.13
2824.00,97.16
2823.00,97.19
2822.00,97.23
2821.00,97.26
2820.00,97.28
2819.00,97.30
2818.00,97.33
2817.00,97.36
2816.00,97.38
2815.00,97.41
2814.00,97.43
2813.00,97.44
2812.00,97.44
2811.00,97.45
2810.00,97.46
2809.00,97.48
2808.00,97.50
2807.00,97.53
2806.00,97.56
2805.00,97.57
2804.00,97.57
2803.00,97.56
2802.00,97.57
2801.00,97.58
2800.00,97.61
2799.00,97.63
2798.00,97.65
2797.00,97.66
2796.00,97.66
2795.00,97.66
2794.00,97.66
2793.00,97.68
2792.00,97.70
2791.00,97.72
2790.00,97.73
2789.00,97.74
2788.00,97.75
2787.00,97.75
2786.00,97.75
2785.00,97.74
2784.00,97.74
2783.00,97.75
2782.00,97.76
2781.00,97.77
2780.00,97.78
2779.00,97.79
2778.00,97.79
2777.00,97.80
2776.00,97.81
2775.00,97.83
2774.00,97.84
2773.00,97.84
2772.00,97.84
2771.00,97.84
2770.00,97.86
2769.00,97.88
2768.00,97.89
2767.00,97.89
2766.00,97.89
2765.00,97.89
2764.00,97.89
2763.00,97.89
2762.00,97.89
2761.00,97.89
2760.00,97.89
2759.00,97.90
2758.00,97.91
2757.00,97.91
2756.00,97.91
2755.00,97.91
2754.00,97.90
2753.00,97.91
2752.00,97.92
2751.00,97.93
2750.00,97.93
2749.00,97.91
2748.00,97.89
2747.00,97.89
2746.00,97.91
2745.00,97.92
2744.00,97.94
2743.00,97.94
2742.00,97.94
2741.00,97.93
2740.00,97.93
2739.00,97.93
2738.00,97.93
2737.00,97.93
2736.00,97.93
2735.00,97.93
2734.00,97.93
2733.00,97.93
2732.00,97.93
2731.00,97.93
2730.00,97.93
2729.00,97.94
2728.00,97.96
2727.00,97.99
2726.00,98.00
2725.00,98.00
2724.00,97.98
2723.00,97.95
2722.00,97.95
2721.00,97.96
2720.00,97.99
2719.00,98.01
2718.00,98.04
2717.00,98.04
2716.00,98.05
2715.00,98.04
2714.00,98.03
2713.00,98.02
2712.00,98.03
2711.00,98.05
2710.00,98.07
2709.00,98.08
2708.00,98.08
2707.00,98.08
2706.00,98.08
2705.00,98.09
2704.00,98.09
2703.00,98.10
2702.00,98.10
2701.00,98.09
2700.00,98.09
2699.00,98.08
2698.00,98.09
2697.00,98.10
2696.00,98.12
2695.00,98.13
2694.00,98.14
2693.00,98.14
2692.00,98.14
2691.00,98.13
2690.00,98.13
2689.00,98.13
2688.00,98.13
2687.00,98.14
2686.00,98.15
2685.00,98.16
2684.00,98.16
2683.00,98.16
2682.00,98.16
2681.00,98.16
2680.00,98.16
2679.00,98.15
2678.00,98.16
2677.00,98.17
2676.00,98.19
2675.00,98.20
2674.00,98.20
2673.00,98.20
2672.00,98.19
2671.00,98.19
2670.00,98.20
2669.00,98.20
2668.00,98.19
2667.00,98.18
2666.00,98.16
2665.00,98.15
2664.00,98.16
2663.00,98.16
2662.00,98.17
2661.00,98.18
2660.00,98.19
2659.00,98.19
2658.00,98.19
2657.00,98.17
2656.00,98.16
2655.00,98.15
2654.00,98.14
2653.00,98.14
2652.00,98.14
2651.00,98.14
2650.00,98.13
2649.00,98.12
2648.00,98.11
2647.00,98.11
2646.00,98.11
2645.00,98.12
2644.00,98.12
2643.00,98.12
2642.00,98.12
2641.00,98.11
2640.00,98.10
2639.00,98.09
2638.00,98.09
2637.00,98.08
2636.00,98.08
2635.00,98.08
2634.00,98.08
2633.00,98.09
2632.00,98.10
2631.00,98.10
2630.00,98.08
2629.00,98.05
2628.00,98.03
2627.00,98.01
2626.00,98.00
2625.00,98.00
2624.00,98.00
2623.00,98.02
2622.00,98.03
2621.00,98.04
2620.00,98.03
2619.00,98.04
2618.00,98.04
2617.00,98.05
2616.00,98.05
2615.00,98.04
2614.00,98.04
2613.00,98.04
2612.00,98.05
2611.00,98.07
2610.00,98.07
2609.00,98.07
2608.00,98.06
2607.00,98.05
2606.00,98.04
2605.00,98.03
2604.00,98.02
2603.00,98.01
2602.00,98.00
2601.00,98.00
2600.00,98.00
2599.00,98.00
2598.00,98.00
2597.00,98.00
2596.00,98.00
2595.00,97.99
2594.00,97.98
2593.00,97.99
2592.00,98.00
2591.00,98.01
2590.00,98.03
2589.00,98.03
2588.00,98.03
2587.00,98.03
2586.00,98.02
2585.00,98.01
2584.00,97.99
2583.00,97.97
2582.00,97.95
2581.00,97.94
2580.00,97.92
2579.00,97.92
2578.00,97.91
2577.00,97.92
2576.00,97.93
2575.00,97.95
2574.00,97.97
2573.00,97.97
2572.00,97.98
2571.00,97.98
2570.00,97.99
2569.00,97.99
2568.00,97.99
2567.00,97.98
2566.00,97.98
2565.00,97.99
2564.00,97.99
2563.00,97.99
2562.00,97.99
2561.00,97.98
2560.00,97.97
2559.00,97.94
2558.00,97.93
2557.00,97.93
2556.00,97.95
2555.00,97.97
2554.00,97.98
2553.00,97.97
2552.00,97.96
2551.00,97.95
2550.00,97.95
2549.00,97.95
2548.00,97.95
2547.00,97.96
2546.00,97.96
2545.00,97.95
2544.00,97.93
2543.00,97.92
2542.00,97.92
2541.00,97.93
2540.00,97.93
2539.00,97.93
2538.00,97.91
2537.00,97.90
2536.00,97.92
2535.00,97.96
2534.00,97.99
2533.00,98.02
2532.00,98.02
2531.00,98.00
2530.00,97.97
2529.00,97.94
2528.00,97.93
2527.00,97.94
2526.00,97.96
2525.00,97.98
2524.00,98.00
2523.00,98.01
2522.00,98.00
2521.00,97.99
2520.00,97.98
2519.00,97.97
2518.00,97.97
2517.00,97.96
2516.00,97.96
2515.00,97.97
2514.00,97.98
2513.00,97.98
2512.00,97.98
2511.00,97.96
2510.00,97.95
2509.00,97.95
2508.00,97.96
2507.00,97.98
2506.00,98.00
2505.00,98.02
2504.00,98.02
2503.00,98.02
2502.00,98.01
2501.00,98.02
2500.00,98.04
2499.00,98.08
2498.00,98.10
2497.00,98.12
2496.00,98.11
2495.00,98.09
2494.00,98.08
2493.00,98.06
2492.00,98.04
2491.00,98.03
2490.00,98.02
2489.00,98.02
2488.00,98.02
2487.00,98.03
2486.00,98.03
2485.00,98.03
2484.00,98.04
2483.00,98.05
2482.00,98.07
2481.00,98.08
2480.00,98.09
2479.00,98.09
2478.00,98.09
2477.00,98.08
2476.00,98.06
2475.00,98.04
2474.00,98.02
2473.00,98.01
2472.00,98.01
2471.00,98.02
2470.00,98.02
2469.00,98.03
2468.00,98.03
2467.00,98.04
2466.00,98.05
2465.00,98.06
2464.00,98.08
2463.00,98.09
2462.00,98.09
2461.00,98.06
2460.00,98.04
2459.00,98.04
2458.00,98.06
2457.00,98.09
2456.00,98.10
2455.00,98.09
2454.00,98.05
2453.00,98.02
2452.00,98.00
2451.00,98.01
2450.00,98.02
2449.00,98.05
2448.00,98.07
2447.00,98.09
2446.00,98.12
2445.00,98.14
2444.00,98.15
2443.00,98.15
2442.00,98.13
2441.00,98.12
2440.00,98.12
2439.00,98.14
2438.00,98.14
2437.00,98.12
2436.00,98.07
2435.00,98.03
2434.00,98.02
2433.00,98.04
2432.00,98.07
2431.00,98.09
2430.00,98.11
2429.00,98.13
2428.00,98.15
2427.00,98.16
2426.00,98.15
2425.00,98.12
2424.00,98.10
2423.00,98.10
2422.00,98.12
2421.00,98.14
2420.00,98.15
2419.00,98.15
2418.00,98.17
2417.00,98.20
2416.00,98.23
2415.00,98.23
2414.00,98.22
2413.00,98.20
2412.00,98.19
2411.00,98.18
2410.00,98.18
2409.00,98.19
2408.00,98.21
2407.00,98.24
2406.00,98.27
2405.00,98.30
2404.00,98.32
2403.00,98.32
2402.00,98.31
2401.00,98.29
2400.00,98.27
2399.00,98.26
2398.00,98.26
2397.00,98.28
2396.00,98.30
2395.00,98.32
2394.00,98.33
2393.00,98.34
2392.00,98.35
2391.00,98.35
2390.00,98.35
2389.00,98.35
2388.00,98.34
2387.00,98.35
2386.00,98.36
2385.00,98.38
2384.00,98.40
2383.00,98.43
2382.00,98.47
2381.00,98.51
2380.00,98.54
2379.00,98.56
2378.00,98.57
2377.00,98.57
2376.00,98.56
2375.00,98.54
2374.00,98.53
2373.00,98.52
2372.00,98.54
2371.00,98.57
2370.00,98.63
2369.00,98.69
2368.00,98.73
2367.00,98.72
2366.00,98.66
2365.00,98.60
2364.00,98.58
2363.00,98.58
2362.00,98.58
2361.00,98.56
2360.00,98.54
2359.00,98.53
2358.00,98.52
2357.00,98.53
2356.00,98.57
2355.00,98.60
2354.00,98.61
2353.00,98.60
2352.00,98.59
2351.00,98.59
2350.00,98.59
2349.00,98.59
2348.00,98.59
2347.00,98.60
2346.00,98.62
2345.00,98.62
2344.00,98.60
2343.00,98.55
2342.00,98.51
2341.00,98.50
2340.00,98.55
2339.00,98.64
2338.00,98.69
2337.00,98.69
2336.00,98.64
2335.00,98.58
2334.00,98.53
2333.00,98.50
2332.00,98.49
2331.00,98.48
2330.00,98.46
2329.00,98.44
2328.00,98.42
2327.00,98.40
2326.00,98.37
2325.00,98.32
2324.00,98.28
2323.00,98.27
2322.00,98.28
2321.00,98.30
2320.00,98.32
2319.00,98.33
2318.00,98.34
2317.00,98.34
2316.00,98.36
2315.00,98.38
2314.00,98.39
2313.00,98.38
2312.00,98.35
2311.00,98.31
2310.00,98.28
2309.00,98.27
2308.00,98.27
2307.00,98.28
2306.00,98.28
2305.00,98.26
2304.00,98.23
2303.00,98.21
2302.00,98.19
2301.00,98.18
2300.00,98.17
2299.00,98.15
2298.00,98.15
2297.00,98.17
2296.00,98.20
2295.00,98.21
2294.00,98.19
2293.00,98.15
2292.00,98.08
2291.00,98.02
2290.00,97.98
2289.00,97.96
2288.00,97.95
2287.00,97.95
2286.00,97.93
2285.00,97.91
2284.00,97.90
2283.00,97.90
2282.00,97.90
2281.00,97.89
2280.00,97.87
2279.00,97.83
2278.00,97.81
2277.00,97.81
2276.00,97.81
2275.00,97.80
2274.00,97.80
2273.00,97.78
2272.00,97.77
2271.00,97.77
2270.00,97.77
2269.00,97.75
2268.00,97.72
2267.00,97.66
2266.00,97.62
2265.00,97.61
2264.00,97.63
2263.00,97.68
2262.00,97.73
2261.00,97.74
2260.00,97.71
2259.00,97.65
2258.00,97.59
2257.00,97.56
2256.00,97.56
2255.00,97.59
2254.00,97.63
2253.00,97.66
2252.00,97.66
2251.00,97.65
2250.00,97.64
2249.00,97.64
2248.00,97.65
2247.00,97.66
2246.00,97.64
2245.00,97.60
2244.00,97.55
2243.00,97.51
2242.00,97.50
2241.00,97.50
2240.00,97.47
2239.00,97.42
2238.00,97.37
2237.00,97.35
2236.00,97.36
2235.00,97.37
2234.00,97.37
2233.00,97.36
2232.00,97.35
2231.00,97.34
2230.00,97.31
2229.00,97.28
2228.00,97.27
2227.00,97.29
2226.00,97.33
2225.00,97.35
2224.00,97.33
2223.00,97.28
2222.00,97.21
2221.00,97.16
2220.00,97.15
2219.00,97.17
2218.00,97.23
2217.00,97.31
2216.00,97.34
2215.00,97.32
2214.00,97.26
2213.00,97.20
2212.00,97.15
2211.00,97.11
2210.00,97.10
2209.00,97.12
2208.00,97.15
2207.00,97.17
2206.00,97.16
2205.00,97.13
2204.00,97.12
2203.00,97.14
2202.00,97.16
2201.00,97.18
2200.00,97.19
2199.00,97.18
2198.00,97.13
2197.00,97.05
2196.00,96.97
2195.00,96.92
2194.00,96.91
2193.00,96.92
2192.00,96.94
2191.00,96.97
2190.00,97.01
2189.00,97.02
2188.00,96.99
2187.00,96.93
2186.00,96.89
2185.00,96.90
2184.00,96.93
2183.00,96.97
2182.00,96.98
2181.00,96.96
2180.00,96.94
2179.00,96.91
2178.00,96.90
2177.00,96.89
2176.00,96.89
2175.00,96.88
2174.00,96.85
2173.00,96.80
2172.00,96.77
2171.00,96.75
2170.00,96.73
2169.00,96.69
2168.00,96.64
2167.00,96.59
2166.00,96.56
2165.00,96.53
2164.00,96.50
2163.00,96.45
2162.00,96.42
2161.00,96.44
2160.00,96.49
2159.00,96.57
2158.00,96.63
2157.00,96.68
2156.00,96.74
2155.00,96.81
2154.00,96.85
2153.00,96.88
2152.00,96.89
2151.00,96.92
2150.00,96.97
2149.00,97.01
2148.00,97.02
2147.00,97.01
2146.00,97.00
2145.00,97.03
2144.00,97.10
2143.00,97.18
2142.00,97.24
2141.00,97.29
2140.00,97.31
2139.00,97.31
2138.00,97.31
2137.00,97.31
2136.00,97.34
2135.00,97.39
2134.00,97.44
2133.00,97.50
2132.00,97.55
2131.00,97.59
2130.00,97.60
2129.00,97.58
2128.00,97.56
2127.00,97.53
2126.00,97.52
2125.00,97.53
2124.00,97.56
2123.00,97.60
2122.00,97.63
2121.00,97.65
2120.00,97.64
2119.00,97.62
2118.00,97.59
2117.00,97.56
2116.00,97.53
2115.00,97.54
2114.00,97.56
2113.00,97.58
2112.00,97.56
2111.00,97.53
2110.00,97.51
2109.00,97.51
2108.00,97.52
2107.00,97.54
2106.00,97.57
2105.00,97.58
2104.00,97.58
2103.00,97.57
2102.00,97.54
2101.00,97.52
2100.00,97.51
2099.00,97.53
2098.00,97.57
2097.00,97.61
2096.00,97.63
2095.00,97.63
2094.00,97.62
2093.00,97.61
2092.00,97.59
2091.00,97.57
2090.00,97.55
2089.00,97.51
2088.00,97.48
2087.00,97.45
2086.00,97.46
2085.00,97.49
2084.00,97.51
2083.00,97.49
2082.00,97.44
2081.00,97.40
2080.00,97.39
2079.00,97.40
2078.00,97.43
2077.00,97.45
2076.00,97.46
2075.00,97.44
2074.00,97.42
2073.00,97.40
2072.00,97.39
2071.00,97.40
2070.00,97.41
2069.00,97.43
2068.00,97.43
2067.00,97.42
2066.00,97.41
2065.00,97.40
2064.00,97.40
2063.00,97.42
2062.00,97.45
2061.00,97.46
2060.00,97.45
2059.00,97.43
2058.00,97.40
2057.00,97.37
2056.00,97.36
2055.00,97.34
2054.00,97.30
2053.00,97.21
2052.00,97.10
2051.00,96.97
2050.00,96.88
2049.00,96.85
2048.00,96.88
2047.00,96.91
2046.00,96.93
2045.00,96.91
2044.00,96.89
2043.00,96.87
2042.00,96.87
2041.00,96.87
2040.00,96.84
2039.00,96.79
2038.00,96.73
2037.00,96.68
2036.00,96.69
2035.00,96.74
2034.00,96.80
2033.00,96.84
2032.00,96.87
2031.00,96.89
2030.00,96.88
2029.00,96.84
2028.00,96.78
2027.00,96.74
2026.00,96.76
2025.00,96.83
2024.00,96.87
2023.00,96.85
2022.00,96.80
2021.00,96.77
2020.00,96.78
2019.00,96.82
2018.00,96.84
2017.00,96.82
2016.00,96.79
2015.00,96.78
2014.00,96.79
2013.00,96.82
2012.00,96.84
2011.00,96.82
2010.00,96.78
2009.00,96.76
2008.00,96.78
2007.00,96.84
2006.00,96.92
2005.00,96.99
2004.00,97.05
2003.00,97.09
2002.00,97.13
2001.00,97.15
2000.00,97.16
1999.00,97.18
1998.00,97.20
1997.00,97.22
1996.00,97.23
1995.00,97.22
1994.00,97.19
1993.00,97.15
1992.00,97.13
1991.00,97.12
1990.00,97.11
1989.00,97.12
1988.00,97.15
1987.00,97.16
1986.00,97.16
1985.00,97.12
1984.00,97.08
1983.00,97.05
1982.00,97.02
1981.00,96.97
1980.00,96.93
1979.00,96.93
1978.00,96.98
1977.00,97.06
1976.00,97.11
1975.00,97.12
1974.00,97.09
1973.00,97.05
1972.00,97.06
1971.00,97.11
1970.00,97.19
1969.00,97.24
1968.00,97.27
1967.00,97.29
1966.00,97.32
1965.00,97.37
1964.00,97.41
1963.00,97.43
1962.00,97.43
1961.00,97.44
1960.00,97.46
1959.00,97.49
1958.00,97.51
1957.00,97.52
1956.00,97.52
1955.00,97.51
1954.00,97.50
1953.00,97.49
1952.00,97.50
1951.00,97.51
1950.00,97.53
1949.00,97.55
1948.00,97.56
1947.00,97.57
1946.00,97.59
1945.00,97.61
1944.00,97.64
1943.00,97.67
1942.00,97.71
1941.00,97.73
1940.00,97.73
1939.00,97.74
1938.00,97.76
1937.00,97.76
1936.00,97.76
1935.00,97.74
1934.00,97.74
1933.00,97.75
1932.00,97.74
1931.00,97.74
1930.00,97.74
1929.00,97.75
1928.00,97.78
1927.00,97.79
1926.00,97.79
1925.00,97.79
1924.00,97.79
1923.00,97.81
1922.00,97.86
1921.00,97.91
1920.00,97.96
1919.00,97.98
1918.00,97.97
1917.00,97.93
1916.00,97.91
1915.00,97.92
1914.00,97.94
1913.00,97.97
1912.00,98.01
1911.00,98.03
1910.00,98.02
1909.00,98.00
1908.00,97.98
1907.00,98.00
1906.00,98.03
1905.00,98.05
1904.00,98.05
1903.00,98.04
1902.00,98.03
1901.00,98.04
1900.00,98.05
1899.00,98.06
1898.00,98.06
1897.00,98.04
1896.00,98.03
1895.00,98.05
1894.00,98.08
1893.00,98.11
1892.00,98.12
1891.00,98.11
1890.00,98.10
1889.00,98.09
1888.00,98.09
1887.00,98.09
1886.00,98.11
1885.00,98.14
1884.00,98.18
1883.00,98.20
1882.00,98.20
1881.00,98.18
1880.00,98.15
1879.00,98.13
1878.00,98.12
1877.00,98.13
1876.00,98.14
1875.00,98.16
1874.00,98.18
1873.00,98.18
1872.00,98.17
1871.00,98.16
1870.00,98.17
1869.00,98.19
1868.00,98.21
1867.00,98.21
1866.00,98.20
1865.00,98.19
1864.00,98.18
1863.00,98.18
1862.00,98.18
1861.00,98.20
1860.00,98.22
1859.00,98.25
1858.00,98.28
1857.00,98.30
1856.00,98.30
1855.00,98.29
1854.00,98.28
1853.00,98.27
1852.00,98.27
1851.00,98.26
1850.00,98.24
1849.00,98.23
1848.00,98.24
1847.00,98.25
1846.00,98.27
1845.00,98.30
1844.00,98.33
1843.00,98.35
1842.00,98.37
1841.00,98.37
1840.00,98.35
1839.00,98.33
1838.00,98.32
1837.00,98.31
1836.00,98.32
1835.00,98.33
1834.00,98.32
1833.00,98.31
1832.00,98.30
1831.00,98.30
1830.00,98.31
1829.00,98.32
1828.00,98.32
1827.00,98.33
1826.00,98.34
1825.00,98.34
1824.00,98.34
1823.00,98.33
1822.00,98.32
1821.00,98.31
1820.00,98.33
1819.00,98.35
1818.00,98.38
1817.00,98.40
1816.00,98.41
1815.00,98.40
1814.00,98.38
1813.00,98.36
1812.00,98.35
1811.00,98.36
1810.00,98.38
1809.00,98.39
1808.00,98.40
1807.00,98.40
1806.00,98.40
1805.00,98.39
1804.00,98.38
1803.00,98.37
1802.00,98.38
1801.00,98.40
1800.00,98.40
1799.00,98.41
1798.00,98.41
1797.00,98.41
1796.00,98.41
1795.00,98.39
1794.00,98.37
1793.00,98.34
1792.00,98.32
1791.00,98.31
1790.00,98.31
1789.00,98.32
1788.00,98.32
1787.00,98.33
1786.00,98.34
1785.00,98.36
1784.00,98.38
1783.00,98.39
1782.00,98.39
1781.00,98.38
1780.00,98.37
1779.00,98.36
1778.00,98.34
1777.00,98.31
1776.00,98.29
1775.00,98.28
1774.00,98.28
1773.00,98.28
1772.00,98.25
1771.00,98.20
1770.00,98.14
1769.00,98.09
1768.00,98.06
1767.00,98.05
1766.00,98.04
1765.00,98.00
1764.00,97.95
1763.00,97.88
1762.00,97.81
1761.00,97.75
1760.00,97.67
1759.00,97.59
1758.00,97.51
1757.00,97.42
1756.00,97.34
1755.00,97.28
1754.00,97.22
1753.00,97.14
1752.00,97.05
1751.00,96.96
1750.00,96.87
1749.00,96.79
1748.00,96.72
1747.00,96.66
1746.00,96.60
1745.00,96.54
1744.00,96.48
1743.00,96.45
1742.00,96.43
1741.00,96.41
1740.00,96.38
1739.00,96.34
1738.00,96.29
1737.00,96.24
1736.00,96.20
1735.00,96.17
1734.00,96.15
1733.00,96.15
1732.00,96.13
1731.00,96.12
1730.00,96.13
1729.00,96.15
1728.00,96.19
1727.00,96.24
1726.00,96.28
1725.00,96.32
1724.00,96.35
1723.00,96.38
1722.00,96.42
1721.00,96.45
1720.00,96.48
1719.00,96.52
1718.00,96.57
1717.00,96.61
1716.00,96.65
1715.00,96.70
1714.00,96.77
1713.00,96.82
1712.00,96.87
1711.00,96.91
1710.00,96.94
1709.00,96.97
1708.00,96.98
1707.00,97.00
1706.00,97.03
1705.00,97.08
1704.00,97.11
1703.00,97.14
1702.00,97.16
1701.00,97.17
1700.00,97.18
1699.00,97.18
1698.00,97.17
1697.00,97.15
1696.00,97.14
1695.00,97.13
1694.00,97.11
1693.00,97.10
1692.00,97.08
1691.00,97.06
1690.00,97.04
1689.00,97.03
1688.00,97.01
1687.00,97.00
1686.00,96.97
1685.00,96.94
1684.00,96.90
1683.00,96.85
1682.00,96.81
1681.00,96.78
1680.00,96.74
1679.00,96.70
1678.00,96.67
1677.00,96.63
1676.00,96.57
1675.00,96.52
1674.00,96.46
1673.00,96.41
1672.00,96.36
1671.00,96.31
1670.00,96.26
1669.00,96.22
1668.00,96.18
1667.00,96.13
1666.00,96.09
1665.00,96.03
1664.00,95.98
1663.00,95.94
1662.00,95.91
1661.00,95.88
1660.00,95.84
1659.00,95.80
1658.00,95.76
1657.00,95.72
1656.00,95.68
1655.00,95.64
1654.00,95.63
1653.00,95.63
1652.00,95.62
1651.00,95.59
1650.00,95.55
1649.00,95.52
1648.00,95.49
1647.00,95.47
1646.00,95.46
1645.00,95.47
1644.00,95.46
1643.00,95.46
1642.00,95.45
1641.00,95.45
1640.00,95.44
1639.00,95.43
1638.00,95.43
1637.00,95.44
1636.00,95.45
1635.00,95.47
1634.00,95.49
1633.00,95.50
1632.00,95.51
1631.00,95.51
1630.00,95.50
1629.00,95.50
1628.00,95.51
1627.00,95.53
1626.00,95.56
1625.00,95.57
1624.00,95.57
1623.00,95.57
1622.00,95.58
1621.00,95.59
1620.00,95.61
1619.00,95.63
1618.00,95.65
1617.00,95.66
1616.00,95.66
1615.00,95.65
1614.00,95.65
1613.00,95.65
1612.00,95.64
1611.00,95.63
1610.00,95.61
1609.00,95.60
1608.00,95.58
1607.00,95.56
1606.00,95.52
1605.00,95.48
1604.00,95.43
1603.00,95.38
1602.00,95.33
1601.00,95.29
1600.00,95.24
1599.00,95.19
1598.00,95.14
1597.00,95.09
1596.00,95.03
1595.00,94.98
1594.00,94.95
1593.00,94.95
1592.00,94.99
1591.00,95.05
1590.00,95.14
1589.00,95.24
1588.00,95.34
1587.00,95.44
1586.00,95.54
1585.00,95.65
1584.00,95.76
1583.00,95.88
1582.00,95.99
1581.00,96.10
1580.00,96.19
1579.00,96.28
1578.00,96.38
1577.00,96.50
1576.00,96.61
1575.00,96.68
1574.00,96.72
1573.00,96.74
1572.00,96.78
1571.00,96.83
1570.00,96.90
1569.00,96.96
1568.00,97.01
1567.00,97.04
1566.00,97.07
1565.00,97.11
1564.00,97.14
1563.00,97.16
1562.00,97.16
1561.00,97.15
1560.00,97.17
1559.00,97.21
1558.00,97.25
1557.00,97.26
1556.00,97.26
1555.00,97.26
1554.00,97.26
1553.00,97.25
1552.00,97.23
1551.00,97.22
1550.00,97.22
1549.00,97.24
1548.00,97.25
1547.00,97.25
1546.00,97.25
1545.00,97.25
1544.00,97.26
1543.00,97.25
1542.00,97.25
1541.00,97.25
1540.00,97.27
1539.00,97.30
1538.00,97.30
1537.00,97.29
1536.00,97.29
1535.00,97.29
1534.00,97.31
1533.00,97.33
1532.00,97.33
1531.00,97.33
1530.00,97.31
1529.00,97.29
1528.00,97.27
1527.00,97.26
1526.00,97.25
1525.00,97.24
1524.00,97.22
1523.00,97.18
1522.00,97.10
1521.00,97.01
1520.00,96.91
1519.00,96.83
1518.00,96.74
1517.00,96.65
1516.00,96.56
1515.00,96.48
1514.00,96.38
1513.00,96.27
1512.00,96.15
1511.00,96.03
1510.00,95.93
1509.00,95.84
1508.00,95.78
1507.00,95.75
1506.00,95.74
1505.00,95.74
1504.00,95.74
1503.00,95.76
1502.00,95.80
1501.00,95.84
1500.00,95.90
1499.00,95.97
1498.00,96.06
1497.00,96.16
1496.00,96.25
1495.00,96.34
1494.00,96.39
1493.00,96.43
1492.00,96.46
1491.00,96.50
1490.00,96.56
1489.00,96.60
1488.00,96.61
1487.00,96.61
1486.00,96.60
1485.00,96.59
1484.00,96.56
1483.00,96.53
1482.00,96.49
1481.00,96.44
1480.00,96.37
1479.00,96.28
1478.00,96.16
1477.00,96.01
1476.00,95.87
1475.00,95.75
1474.00,95.62
1473.00,95.44
1472.00,95.23
1471.00,95.02
1470.00,94.83
1469.00,94.66
1468.00,94.50
1467.00,94.33
1466.00,94.17
1465.00,94.03
1464.00,93.91
1463.00,93.83
1462.00,93.77
1461.00,93.72
1460.00,93.68
1459.00,93.66
1458.00,93.64
1457.00,93.63
1456.00,93.63
1455.00,93.64
1454.00,93.65
1453.00,93.66
1452.00,93.67
1451.00,93.70
1450.00,93.74
1449.00,93.79
1448.00,93.84
1447.00,93.91
1446.00,93.97
1445.00,94.02
1444.00,94.05
1443.00,94.06
1442.00,94.06
1441.00,94.05
1440.00,94.02
1439.00,93.97
1438.00,93.89
1437.00,93.79
1436.00,93.68
1435.00,93.59
1434.00,93.50
1433.00,93.41
1432.00,93.29
1431.00,93.16
1430.00,93.02
1429.00,92.91
1428.00,92.81
1427.00,92.75
1426.00,92.70
1425.00,92.66
1424.00,92.63
1423.00,92.63
1422.00,92.65
1421.00,92.68
1420.00,92.76
1419.00,92.89
1418.00,93.04
1417.00,93.17
1416.00,93.28
1415.00,93.39
1414.00,93.50
1413.00,93.61
1412.00,93.71
1411.00,93.81
1410.00,93.90
1409.00,93.99
1408.00,94.07
1407.00,94.13
1406.00,94.19
1405.00,94.26
1404.00,94.31
1403.00,94.34
1402.00,94.36
1401.00,94.37
1400.00,94.39
1399.00,94.41
1398.00,94.44
1397.00,94.46
1396.00,94.48
1395.00,94.49
1394.00,94.49
1393.00,94.49
1392.00,94.47
1391.00,94.44
1390.00,94.39
1389.00,94.32
1388.00,94.22
1387.00,94.11
1386.00,94.00
1385.00,93.88
1384.00,93.75
1383.00,93.60
1382.00,93.43
1381.00,93.28
1380.00,93.13
1379.00,92.99
1378.00,92.85
1377.00,92.72
1376.00,92.59
1375.00,92.47
1374.00,92.36
1373.00,92.28
1372.00,92.22
1371.00,92.17
1370.00,92.13
1369.00,92.09
1368.00,92.08
1367.00,92.08
1366.00,92.09
1365.00,92.10
1364.00,92.11
1363.00,92.15
1362.00,92.20
1361.00,92.26
1360.00,92.33
1359.00,92.39
1358.00,92.45
1357.00,92.50
1356.00,92.55
1355.00,92.60
1354.00,92.66
1353.00,92.71
1352.00,92.75
1351.00,92.79
1350.00,92.81
1349.00,92.82
1348.00,92.82
1347.00,92.79
1346.00,92.75
1345.00,92.68
1344.00,92.61
1343.00,92.52
1342.00,92.42
1341.00,92.30
1340.00,92.17
1339.00,92.05
1338.00,91.96
1337.00,91.89
1336.00,91.82
1335.00,91.76
1334.00,91.71
1333.00,91.67
1332.00,91.65
1331.00,91.64
1330.00,91.64
1329.00,91.63
1328.00,91.62
1327.00,91.59
1326.00,91.55
1325.00,91.50
1324.00,91.45
1323.00,91.38
1322.00,91.31
1321.00,91.23
1320.00,91.16
1319.00,91.10
1318.00,91.07
1317.00,91.06
1316.00,91.07
1315.00,91.11
1314.00,91.17
1313.00,91.26
1312.00,91.37
1311.00,91.51
1310.00,91.66
1309.00,91.83
1308.00,92.00
1307.00,92.16
1306.00,92.32
1305.00,92.47
1304.00,92.61
1303.00,92.76
1302.00,92.90
1301.00,93.04
1300.00,93.17
1299.00,93.28
1298.00,93.37
1297.00,93.44
1296.00,93.49
1295.00,93.53
1294.00,93.55
1293.00,93.58
1292.00,93.60
1291.00,93.61
1290.00,93.62
1289.00,93.61
1288.00,93.58
1287.00,93.53
1286.00,93.48
1285.00,93.43
1284.00,93.38
1283.00,93.32
1282.00,93.25
1281.00,93.21
1280.00,93.17
1279.00,93.15
1278.00,93.12
1277.00,93.08
1276.00,93.03
1275.00,92.98
1274.00,92.93
1273.00,92.88
1272.00,92.84
1271.00,92.79
1270.00,92.73
1269.00,92.67
1268.00,92.61
1267.00,92.57
1266.00,92.53
1265.00,92.49
1264.00,92.44
1263.00,92.39
1262.00,92.35
1261.00,92.31
1260.00,92.27
1259.00,92.25
1258.00,92.21
1257.00,92.16
1256.00,92.10
1255.00,92.04
1254.00,91.98
1253.00,91.93
1252.00,91.89
1251.00,91.84
1250.00,91.78
1249.00,91.71
1248.00,91.65
1247.00,91.59
1246.00,91.53
1245.00,91.46
1244.00,91.39
1243.00,91.33
1242.00,91.27
1241.00,91.22
1240.00,91.18
1239.00,91.16
1238.00,91.14
1237.00,91.12
1236.00,91.09
1235.00,91.04
1234.00,91.00
1233.00,90.97
1232.00,90.97
1231.00,91.02
1230.00,91.08
1229.00,91.15
1228.00,91.21
1227.00,91.26
1226.00,91.30
1225.00,91.35
1224.00,91.42
1223.00,91.50
1222.00,91.58
1221.00,91.67
1220.00,91.77
1219.00,91.88
1218.00,92.00
1217.00,92.12
1216.00,92.23
1215.00,92.33
1214.00,92.40
1213.00,92.43
1212.00,92.44
1211.00,92.45
1210.00,92.47
1209.00,92.48
1208.00,92.49
1207.00,92.49
1206.00,92.48
1205.00,92.46
1204.00,92.45
1203.00,92.45
1202.00,92.48
1201.00,92.54
1200.00,92.64
1199.00,92.75
1198.00,92.85
1197.00,92.95
1196.00,93.04
1195.00,93.12
1194.00,93.19
1193.00,93.26
1192.00,93.32
1191.00,93.38
1190.00,93.43
1189.00,93.47
1188.00,93.49
1187.00,93.50
1186.00,93.50
1185.00,93.47
1184.00,93.42
1183.00,93.36
1182.00,93.28
1181.00,93.19
1180.00,93.09
1179.00,92.98
1178.00,92.84
1177.00,92.68
1176.00,92.47
1175.00,92.23
1174.00,91.96
1173.00,91.66
1172.00,91.33
1171.00,90.97
1170.00,90.58
1169.00,90.18
1168.00,89.76
1167.00,89.37
1166.00,89.01
1165.00,88.68
1164.00,88.40
1163.00,88.16
1162.00,87.96
1161.00,87.81
1160.00,87.70
1159.00,87.64
1158.00,87.62
1157.00,87.63
1156.00,87.65
1155.00,87.69
1154.00,87.76
1153.00,87.84
1152.00,87.93
1151.00,88.03
1150.00,88.14
1149.00,88.26
1148.00,88.39
1147.00,88.54
1146.00,88.67
1145.00,88.79
1144.00,88.89
1143.00,88.99
1142.00,89.07
1141.00,89.10
1140.00,89.09
1139.00,89.03
1138.00,88.95
1137.00,88.82
1136.00,88.66
1135.00,88.45
1134.00,88.22
1133.00,87.97
1132.00,87.68
1131.00,87.38
1130.00,87.08
1129.00,86.79
1128.00,86.51
1127.00,86.21
1126.00,85.90
1125.00,85.59
1124.00,85.32
1123.00,85.09
1122.00,84.89
1121.00,84.70
1120.00,84.48
1119.00,84.25
1118.00,83.98
1117.00,83.68
1116.00,83.35
1115.00,83.03
1114.00,82.73
1113.00,82.43
1112.00,82.17
1111.00,81.94
1110.00,81.76
1109.00,81.59
1108.00,81.44
1107.00,81.31
1106.00,81.22
1105.00,81.15
1104.00,81.09
1103.00,81.08
1102.00,81.09
1101.00,81.11
1100.00,81.14
1099.00,81.19
1098.00,81.28
1097.00,81.39
1096.00,81.50
1095.00,81.59
1094.00,81.68
1093.00,81.75
1092.00,81.82
1091.00,81.87
1090.00,81.91
1089.00,81.91
1088.00,81.90
1087.00,81.90
1086.00,81.91
1085.00,81.91
1084.00,81.86
1083.00,81.78
1082.00,81.68
1081.00,81.57
1080.00,81.45
1079.00,81.30
1078.00,81.12
1077.00,80.91
1076.00,80.70
1075.00,80.51
1074.00,80.34
1073.00,80.17
1072.00,79.99
1071.00,79.78
1070.00,79.55
1069.00,79.28
1068.00,78.95
1067.00,78.57
1066.00,78.16
1065.00,77.72
1064.00,77.26
1063.00,76.79
1062.00,76.34
1061.00,75.91
1060.00,75.50
1059.00,75.12
1058.00,74.78
1057.00,74.46
1056.00,74.16
1055.00,73.92
1054.00,73.74
1053.00,73.59
1052.00,73.44
1051.00,73.31
1050.00,73.24
1049.00,73.22
1048.00,73.24
1047.00,73.26
1046.00,73.28
1045.00,73.28
1044.00,73.26
1043.00,73.21
1042.00,73.13
1041.00,73.01
1040.00,72.86
1039.00,72.67
1038.00,72.45
1037.00,72.18
1036.00,71.90
1035.00,71.64
1034.00,71.40
1033.00,71.19
1032.00,71.01
1031.00,70.89
1030.00,70.80
1029.00,70.75
1028.00,70.74
1027.00,70.77
1026.00,70.84
1025.00,70.91
1024.00,70.96
1023.00,71.02
1022.00,71.10
1021.00,71.18
1020.00,71.25
1019.00,71.32
1018.00,71.40
1017.00,71.48
1016.00,71.57
1015.00,71.67
1014.00,71.78
1013.00,71.88
1012.00,71.96
1011.00,72.03
1010.00,72.11
1009.00,72.18
1008.00,72.23
1007.00,72.29
1006.00,72.35
1005.00,72.42
1004.00,72.49
1003.00,72.58
1002.00,72.68
1001.00,72.76
1000.00,72.83
999.00,72.90
998.00,72.99
997.00,73.08
996.00,73.15
995.00,73.21
994.00,73.24
993.00,73.26
992.00,73.28
991.00,73.30
990.00,73.32
989.00,73.33
988.00,73.33
987.00,73.35
986.00,73.40
985.00,73.51
984.00,73.66
983.00,73.88
982.00,74.14
981.00,74.45
980.00,74.78
979.00,75.16
978.00,75.54
977.00,75.91
976.00,76.25
975.00,76.56
974.00,76.88
973.00,77.19
972.00,77.51
971.00,77.81
970.00,78.08
969.00,78.33
968.00,78.55
967.00,78.77
966.00,79.01
965.00,79.24
964.00,79.48
963.00,79.71
962.00,79.93
961.00,80.14
960.00,80.36
959.00,80.61
958.00,80.87
957.00,81.14
956.00,81.39
955.00,81.64
954.00,81.89
953.00,82.15
952.00,82.40
951.00,82.63
950.00,82.86
949.00,83.08
948.00,83.32
947.00,83.55
946.00,83.75
945.00,83.91
944.00,84.06
943.00,84.23
942.00,84.41
941.00,84.58
940.00,84.73
939.00,84.86
938.00,84.99
937.00,85.12
936.00,85.23
935.00,85.34
934.00,85.43
933.00,85.52
932.00,85.62
931.00,85.72
930.00,85.81
929.00,85.88
928.00,85.95
927.00,86.02
926.00,86.09
925.00,86.17
924.00,86.25
923.00,86.32
922.00,86.39
921.00,86.47
920.00,86.56
919.00,86.66
918.00,86.73
917.00,86.76
916.00,86.76
915.00,86.75
914.00,86.75
913.00,86.77
912.00,86.80
911.00,86.84
910.00,86.89
909.00,86.91
908.00,86.90
907.00,86.84
906.00,86.74
905.00,86.63
904.00,86.51
903.00,86.40
902.00,86.31
901.00,86.24
900.00,86.18
899.00,86.11
898.00,86.06
897.00,86.01
896.00,86.01
895.00,86.06
894.00,86.15
893.00,86.24
892.00,86.35
891.00,86.48
890.00,86.61
889.00,86.73
888.00,86.85
887.00,86.97
886.00,87.12
885.00,87.26
884.00,87.40
883.00,87.52
882.00,87.63
881.00,87.74
880.00,87.86
879.00,87.99
878.00,88.12
877.00,88.21
876.00,88.26
875.00,88.30
874.00,88.33
873.00,88.38
872.00,88.46
871.00,88.57
870.00,88.68
869.00,88.77
868.00,88.85
867.00,88.92
866.00,88.97
865.00,89.00
864.00,89.02
863.00,89.06
862.00,89.12
861.00,89.18
860.00,89.25
859.00,89.30
858.00,89.33
857.00,89.34
856.00,89.33
855.00,89.33
854.00,89.35
853.00,89.37
852.00,89.38
851.00,89.39
850.00,89.40
849.00,89.41
848.00,89.42
847.00,89.43
846.00,89.44
845.00,89.46
844.00,89.46
843.00,89.47
842.00,89.47
841.00,89.46
840.00,89.44
839.00,89.43
838.00,89.43
837.00,89.44
836.00,89.44
835.00,89.42
834.00,89.39
833.00,89.35
832.00,89.32
831.00,89.33
830.00,89.35
829.00,89.37
828.00,89.38
827.00,89.37
826.00,89.36
825.00,89.36
824.00,89.38
823.00,89.43
822.00,89.48
821.00,89.50
820.00,89.50
819.00,89.49
818.00,89.48
817.00,89.47
816.00,89.44
815.00,89.42
814.00,89.40
813.00,89.39
812.00,89.38
811.00,89.39
810.00,89.42
809.00,89.45
808.00,89.47
807.00,89.48
806.00,89.48
805.00,89.47
804.00,89.45
803.00,89.44
802.00,89.43
801.00,89.43
800.00,89.44
799.00,89.45
798.00,89.47
797.00,89.49
796.00,89.49
795.00,89.50
794.00,89.50
793.00,89.51
792.00,89.52
791.00,89.54
790.00,89.54
789.00,89.50
788.00,89.45
787.00,89.41
786.00,89.41
785.00,89.43
784.00,89.43
783.00,89.43
782.00,89.43
781.00,89.42
780.00,89.39
779.00,89.36
778.00,89.32
777.00,89.29
776.00,89.27
775.00,89.25
774.00,89.23
773.00,89.20
772.00,89.16
771.00,89.13
770.00,89.12
769.00,89.11
768.00,89.11
767.00,89.11
766.00,89.12
765.00,89.11
764.00,89.06
763.00,88.99
762.00,88.93
761.00,88.90
760.00,88.87
759.00,88.83
758.00,88.79
757.00,88.74
756.00,88.68
755.00,88.62
754.00,88.57
753.00,88.53
752.00,88.49
751.00,88.44
750.00,88.39
749.00,88.33
748.00,88.26
747.00,88.22
746.00,88.19
745.00,88.15
744.00,88.09
743.00,88.01
742.00,87.94
741.00,87.89
740.00,87.84
739.00,87.77
738.00,87.68
737.00,87.59
736.00,87.50
735.00,87.45
734.00,87.41
733.00,87.37
732.00,87.31
731.00,87.24
730.00,87.15
729.00,87.03
728.00,86.89
727.00,86.77
726.00,86.68
725.00,86.63
724.00,86.58
723.00,86.49
722.00,86.37
721.00,86.23
720.00,86.11
719.00,86.02
718.00,85.95
717.00,85.88
716.00,85.80
715.00,85.71
714.00,85.63
713.00,85.54
712.00,85.45
711.00,85.40
710.00,85.39
709.00,85.37
708.00,85.32
707.00,85.23
706.00,85.12
705.00,85.03
704.00,84.97
703.00,84.94
702.00,84.92
701.00,84.89
700.00,84.83
699.00,84.79
698.00,84.77
697.00,84.73
696.00,84.68
695.00,84.64
694.00,84.63
693.00,84.62
692.00,84.58
691.00,84.54
690.00,84.52
689.00,84.52
688.00,84.51
687.00,84.47
686.00,84.40
685.00,84.31
684.00,84.22
683.00,84.13
682.00,84.05
681.00,83.94
680.00,83.77
679.00,83.55
678.00,83.32
677.00,83.11
676.00,82.91
675.00,82.72
674.00,82.55
673.00,82.37
672.00,82.22
671.00,82.12
670.00,82.04
669.00,81.91
668.00,81.66
667.00,81.43
666.00,81.31
665.00,81.23
664.00,81.16
663.00,81.10
662.00,81.03
661.00,80.96
660.00,80.91
659.00,80.94
658.00,81.05
657.00,81.17
656.00,81.24
655.00,81.31
654.00,81.43
653.00,81.55
652.00,81.59
651.00,81.54
650.00,81.45
649.00,81.37
648.00,81.34
647.00,81.33
646.00,81.31
645.00,81.21
644.00,81.06
643.00,80.96
642.00,80.94
641.00,80.95
640.00,80.93
639.00,80.89
638.00,80.87
637.00,80.81
636.00,80.70
635.00,80.62
634.00,80.61
633.00,80.58
632.00,80.48
631.00,80.34
630.00,80.21
629.00,80.11
628.00,80.03
627.00,79.97
626.00,79.90
625.00,79.73
624.00,79.46
623.00,79.24
622.00,79.15
621.00,79.04
620.00,78.70
619.00,78.17
618.00,77.68
617.00,77.44
616.00,77.47
615.00,77.70
614.00,77.96
613.00,78.07
612.00,78.03
611.00,77.92
610.00,77.78
609.00,77.53
608.00,77.23
607.00,77.11
606.00,77.33
605.00,77.71
604.00,77.91
603.00,77.71
602.00,77.21
601.00,76.72
600.00,76.49
599.00,76.54
598.00,76.65
597.00,76.54
596.00,76.26
595.00,76.06
594.00,76.08
593.00,76.23
592.00,76.37
591.00,76.52
590.00,76.64
589.00,76.64
588.00,76.53
587.00,76.42
586.00,76.34
585.00,76.21
584.00,76.10
583.00,76.19
582.00,76.45
581.00,76.57
580.00,76.41
579.00,76.17
578.00,76.02
577.00,75.91
576.00,75.91
575.00,76.19
574.00,76.62
573.00,76.79
572.00,76.62
571.00,76.57
570.00,76.83
569.00,77.04
568.00,76.79
567.00,76.13
566.00,75.46
565.00,75.01
564.00,74.84
563.00,74.86
562.00,74.77
561.00,74.27
560.00,73.54
559.00,73.07
558.00,72.99
557.00,73.04
556.00,73.20
555.00,73.69
554.00,74.33
553.00,74.55
552.00,74.20
551.00,73.90
550.00,73.94
