Created as New Dataset,3.2 Jute cord
cm-1,%T
4000.00,100.06
3999.00,100.04
3998.00,100.02
3997.00,100.03
3996.00,100.05
3995.00,100.06
3994.00,100.07
3993.00,100.07
3992.00,100.05
3991.00,100.03
3990.00,100.03
3989.00,100.03
3988.00,100.04
3987.00,100.06
3986.00,100.08
3985.00,100.10
3984.00,100.11
3983.00,100.10
3982.00,100.09
3981.00,100.07
3980.00,100.05
3979.00,100.05
3978.00,100.06
3977.00,100.07
3976.00,100.09
3975.00,100.09
3974.00,100.09
3973.00,100.09
3972.00,100.08
3971.00,100.06
3970.00,100.04
3969.00,100.02
3968.00,100.02
3967.00,100.03
3966.00,100.04
3965.00,100.06
3964.00,100.08
3963.00,100.09
3962.00,100.09
3961.00,100.07
3960.00,100.06
3959.00,100.05
3958.00,100.05
3957.00,100.07
3956.00,100.08
3955.00,100.08
3954.00,100.08
3953.00,100.07
3952.00,100.05
3951.00,100.03
3950.00,100.01
3949.00,100.00
3948.00,100.01
3947.00,100.02
3946.00,100.05
3945.00,100.07
3944.00,100.09
3943.00,100.10
3942.00,100.11
3941.00,100.09
3940.00,100.07
3939.00,100.04
3938.00,100.01
3937.00,100.00
3936.00,100.00
3935.00,100.01
3934.00,100.02
3933.00,100.02
3932.00,100.01
3931.00,100.00
3930.00,100.01
3929.00,100.03
3928.00,100.04
3927.00,100.03
3926.00,100.02
3925.00,100.02
3924.00,100.02
3923.00,100.03
3922.00,100.03
3921.00,100.04
3920.00,100.04
3919.00,100.04
3918.00,100.03
3917.00,100.03
3916.00,100.03
3915.00,100.02
3914.00,100.02
3913.00,100.03
3912.00,100.03
3911.00,100.05
3910.00,100.05
3909.00,100.06
3908.00,100.07
3907.00,100.08
3906.00,100.09
3905.00,100.11
3904.00,100.12
3903.00,100.14
3902.00,100.15
3901.00,100.15
3900.00,100.15
3899.00,100.12
3898.00,100.09
3897.00,100.06
3896.00,100.03
3895.00,100.02
3894.00,100.03
3893.00,100.05
3892.00,100.08
3891.00,100.10
3890.00,100.10
3889.00,100.08
3888.00,100.06
3887.00,100.05
3886.00,100.06
3885.00,100.06
3884.00,100.05
3883.00,100.02
3882.00,99.99
3881.00,99.96
3880.00,99.95
3879.00,99.94
3878.00,99.94
3877.00,99.95
3876.00,99.98
3875.00,100.01
3874.00,100.02
3873.00,100.00
3872.00,99.97
3871.00,99.95
3870.00,99.94
3869.00,99.94
3868.00,99.94
3867.00,99.93
3866.00,99.94
3865.00,99.97
3864.00,100.01
3863.00,100.04
3862.00,100.06
3861.00,100.06
3860.00,100.05
3859.00,100.04
3858.00,100.02
3857.00,100.00
3856.00,99.99
3855.00,100.00
3854.00,100.01
3853.00,100.01
3852.00,100.01
3851.00,100.01
3850.00,100.02
3849.00,100.05
3848.00,100.07
3847.00,100.08
3846.00,100.08
3845.00,100.07
3844.00,100.07
3843.00,100.06
3842.00,100.04
3841.00,100.01
3840.00,99.97
3839.00,99.95
3838.00,99.94
3837.00,99.94
3836.00,99.95
3835.00,99.96
3834.00,99.98
3833.00,99.99
3832.00,100.00
3831.00,100.00
3830.00,99.99
3829.00,99.97
3828.00,99.97
3827.00,99.99
3826.00,100.02
3825.00,100.03
3824.00,100.02
3823.00,99.98
3822.00,99.95
3821.00,99.93
3820.00,99.91
3819.00,99.90
3818.00,99.89
3817.00,99.90
3816.00,99.91
3815.00,99.91
3814.00,99.90
3813.00,99.91
3812.00,99.93
3811.00,99.95
3810.00,99.95
3809.00,99.93
3808.00,99.91
3807.00,99.89
3806.00,99.87
3805.00,99.85
3804.00,99.83
3803.00,99.86
3802.00,99.92
3801.00,99.98
3800.00,100.02
3799.00,100.03
3798.00,100.03
3797.00,100.04
3796.00,100.03
3795.00,100.02
3794.00,100.00
3793.00,99.98
3792.00,99.98
3791.00,99.97
3790.00,99.96
3789.00,99.95
3788.00,99.94
3787.00,99.93
3786.00,99.93
3785.00,99.94
3784.00,99.95
3783.00,99.95
3782.00,99.92
3781.00,99.89
3780.00,99.87
3779.00,99.87
3778.00,99.88
3777.00,99.90
3776.00,99.91
3775.00,99.92
3774.00,99.91
3773.00,99.90
3772.00,99.90
3771.00,99.90
3770.00,99.90
3769.00,99.90
3768.00,99.89
3767.00,99.89
3766.00,99.91
3765.00,99.92
3764.00,99.93
3763.00,99.92
3762.00,99.91
3761.00,99.91
3760.00,99.90
3759.00,99.88
3758.00,99.86
3757.00,99.85
3756.00,99.84
3755.00,99.84
3754.00,99.83
3753.00,99.82
3752.00,99.80
3751.00,99.79
3750.00,99.78
3749.00,99.79
3748.00,99.80
3747.00,99.79
3746.00,99.78
3745.00,99.79
3744.00,99.82
3743.00,99.83
3742.00,99.84
3741.00,99.83
3740.00,99.83
3739.00,99.81
3738.00,99.80
3737.00,99.78
3736.00,99.78
3735.00,99.78
3734.00,99.79
3733.00,99.81
3732.00,99.83
3731.00,99.84
3730.00,99.83
3729.00,99.82
3728.00,99.80
3727.00,99.79
3726.00,99.77
3725.00,99.77
3724.00,99.77
3723.00,99.78
3722.00,99.78
3721.00,99.78
3720.00,99.78
3719.00,99.77
3718.00,99.77
3717.00,99.76
3716.00,99.74
3715.00,99.70
3714.00,99.65
3713.00,99.59
3712.00,99.55
3711.00,99.53
3710.00,99.53
3709.00,99.53
3708.00,99.52
3707.00,99.51
3706.00,99.49
3705.00,99.48
3704.00,99.48
3703.00,99.47
3702.00,99.46
3701.00,99.45
3700.00,99.44
3699.00,99.43
3698.00,99.42
3697.00,99.43
3696.00,99.43
3695.00,99.45
3694.00,99.47
3693.00,99.49
3692.00,99.49
3691.00,99.48
3690.00,99.46
3689.00,99.44
3688.00,99.42
3687.00,99.41
3686.00,99.42
3685.00,99.43
3684.00,99.46
3683.00,99.48
3682.00,99.48
3681.00,99.47
3680.00,99.44
3679.00,99.39
3678.00,99.32
3677.00,99.28
3676.00,99.30
3675.00,99.33
3674.00,99.35
3673.00,99.33
3672.00,99.31
3671.00,99.31
3670.00,99.32
3669.00,99.33
3668.00,99.32
3667.00,99.30
3666.00,99.30
3665.00,99.29
3664.00,99.29
3663.00,99.28
3662.00,99.26
3661.00,99.24
3660.00,99.21
3659.00,99.20
3658.00,99.19
3657.00,99.17
3656.00,99.15
3655.00,99.13
3654.00,99.11
3653.00,99.09
3652.00,99.08
3651.00,99.06
3650.00,99.03
3649.00,99.00
3648.00,98.98
3647.00,98.97
3646.00,98.96
3645.00,98.95
3644.00,98.94
3643.00,98.93
3642.00,98.93
3641.00,98.94
3640.00,98.96
3639.00,98.97
3638.00,98.97
3637.00,98.96
3636.00,98.92
3635.00,98.89
3634.00,98.86
3633.00,98.85
3632.00,98.84
3631.00,98.83
3630.00,98.80
3629.00,98.75
3628.00,98.69
3627.00,98.64
3626.00,98.62
3625.00,98.62
3624.00,98.62
3623.00,98.61
3622.00,98.59
3621.00,98.58
3620.00,98.59
3619.00,98.59
3618.00,98.59
3617.00,98.58
3616.00,98.58
3615.00,98.58
3614.00,98.58
3613.00,98.57
3612.00,98.55
3611.00,98.51
3610.00,98.49
3609.00,98.48
3608.00,98.48
3607.00,98.49
3606.00,98.49
3605.00,98.46
3604.00,98.42
3603.00,98.37
3602.00,98.32
3601.00,98.30
3600.00,98.29
3599.00,98.29
3598.00,98.28
3597.00,98.26
3596.00,98.25
3595.00,98.25
3594.00,98.26
3593.00,98.28
3592.00,98.28
3591.00,98.27
3590.00,98.25
3589.00,98.22
3588.00,98.19
3587.00,98.17
3586.00,98.14
3585.00,98.12
3584.00,98.10
3583.00,98.08
3582.00,98.07
3581.00,98.05
3580.00,98.03
3579.00,98.01
3578.00,97.98
3577.00,97.96
3576.00,97.93
3575.00,97.89
3574.00,97.85
3573.00,97.81
3572.00,97.78
3571.00,97.78
3570.00,97.79
3569.00,97.80
3568.00,97.80
3567.00,97.79
3566.00,97.75
3565.00,97.72
3564.00,97.70
3563.00,97.68
3562.00,97.67
3561.00,97.65
3560.00,97.61
3559.00,97.57
3558.00,97.53
3557.00,97.49
3556.00,97.46
3555.00,97.43
3554.00,97.41
3553.00,97.39
3552.00,97.37
3551.00,97.34
3550.00,97.32
3549.00,97.31
3548.00,97.30
3547.00,97.28
3546.00,97.23
3545.00,97.16
3544.00,97.10
3543.00,97.06
3542.00,97.06
3541.00,97.08
3540.00,97.11
3539.00,97.11
3538.00,97.10
3537.00,97.08
3536.00,97.05
3535.00,97.01
3534.00,96.97
3533.00,96.93
3532.00,96.90
3531.00,96.87
3530.00,96.86
3529.00,96.84
3528.00,96.81
3527.00,96.79
3526.00,96.76
3525.00,96.75
3524.00,96.73
3523.00,96.70
3522.00,96.67
3521.00,96.65
3520.00,96.63
3519.00,96.62
3518.00,96.60
3517.00,96.57
3516.00,96.54
3515.00,96.51
3514.00,96.50
3513.00,96.48
3512.00,96.46
3511.00,96.42
3510.00,96.38
3509.00,96.35
3508.00,96.31
3507.00,96.29
3506.00,96.27
3505.00,96.26
3504.00,96.24
3503.00,96.22
3502.00,96.18
3501.00,96.14
3500.00,96.10
3499.00,96.07
3498.00,96.05
3497.00,96.04
3496.00,96.03
3495.00,96.01
3494.00,95.98
3493.00,95.95
3492.00,95.92
3491.00,95.90
3490.00,95.87
3489.00,95.85
3488.00,95.83
3487.00,95.81
3486.00,95.79
3485.00,95.77
3484.00,95.74
3483.00,95.72
3482.00,95.71
3481.00,95.70
3480.00,95.69
3479.00,95.66
3478.00,95.61
3477.00,95.56
3476.00,95.51
3475.00,95.47
3474.00,95.43
3473.00,95.38
3472.00,95.34
3471.00,95.29
3470.00,95.26
3469.00,95.24
3468.00,95.23
3467.00,95.23
3466.00,95.22
3465.00,95.20
3464.00,95.17
3463.00,95.13
3462.00,95.10
3461.00,95.07
3460.00,95.06
3459.00,95.05
3458.00,95.05
3457.00,95.04
3456.00,95.03
3455.00,94.99
3454.00,94.95
3453.00,94.91
3452.00,94.88
3451.00,94.85
3450.00,94.83
3449.00,94.80
3448.00,94.77
3447.00,94.74
3446.00,94.71
3445.00,94.69
3444.00,94.67
3443.00,94.66
3442.00,94.63
3441.00,94.59
3440.00,94.54
3439.00,94.50
3438.00,94.47
3437.00,94.45
3436.00,94.43
3435.00,94.41
3434.00,94.39
3433.00,94.36
3432.00,94.32
3431.00,94.28
3430.00,94.25
3429.00,94.22
3428.00,94.19
3427.00,94.16
3426.00,94.14
3425.00,94.12
3424.00,94.11
3423.00,94.09
3422.00,94.07
3421.00,94.03
3420.00,94.00
3419.00,93.98
3418.00,93.97
3417.00,93.96
3416.00,93.95
3415.00,93.93
3414.00,93.91
3413.00,93.89
3412.00,93.88
3411.00,93.87
3410.00,93.87
3409.00,93.86
3408.00,93.85
3407.00,93.84
3406.00,93.83
3405.00,93.81
3404.00,93.79
3403.00,93.76
3402.00,93.73
3401.00,93.69
3400.00,93.66
3399.00,93.62
3398.00,93.59
3397.00,93.57
3396.00,93.56
3395.00,93.56
3394.00,93.57
3393.00,93.56
3392.00,93.55
3391.00,93.53
3390.00,93.51
3389.00,93.49
3388.00,93.46
3387.00,93.42
3386.00,93.40
3385.00,93.38
3384.00,93.38
3383.00,93.39
3382.00,93.41
3381.00,93.43
3380.00,93.43
3379.00,93.41
3378.00,93.37
3377.00,93.35
3376.00,93.32
3375.00,93.30
3374.00,93.27
3373.00,93.23
3372.00,93.20
3371.00,93.20
3370.00,93.21
3369.00,93.23
3368.00,93.23
3367.00,93.21
3366.00,93.18
3365.00,93.16
3364.00,93.14
3363.00,93.13
3362.00,93.11
3361.00,93.07
3360.00,93.03
3359.00,93.01
3358.00,92.99
3357.00,92.97
3356.00,92.96
3355.00,92.95
3354.00,92.94
3353.00,92.92
3352.00,92.91
3351.00,92.88
3350.00,92.85
3349.00,92.83
3348.00,92.82
3347.00,92.82
3346.00,92.83
3345.00,92.83
3344.00,92.83
3343.00,92.82
3342.00,92.81
3341.00,92.79
3340.00,92.76
3339.00,92.74
3338.00,92.72
3337.00,92.73
3336.00,92.75
3335.00,92.77
3334.00,92.79
3333.00,92.79
3332.00,92.79
3331.00,92.80
3330.00,92.80
3329.00,92.80
3328.00,92.79
3327.00,92.78
3326.00,92.79
3325.00,92.80
3324.00,92.81
3323.00,92.82
3322.00,92.82
3321.00,92.83
3320.00,92.83
3319.00,92.83
3318.00,92.84
3317.00,92.85
3316.00,92.86
3315.00,92.87
3314.00,92.88
3313.00,92.87
3312.00,92.87
3311.00,92.88
3310.00,92.87
3309.00,92.87
3308.00,92.87
3307.00,92.88
3306.00,92.89
3305.00,92.91
3304.00,92.93
3303.00,92.94
3302.00,92.95
3301.00,92.96
3300.00,92.97
3299.00,92.96
3298.00,92.95
3297.00,92.94
3296.00,92.95
3295.00,92.97
3294.00,92.99
3293.00,92.99
3292.00,92.99
3291.00,92.98
3290.00,92.97
3289.00,92.98
3288.00,92.99
3287.00,93.01
3286.00,93.03
3285.00,93.06
3284.00,93.08
3283.00,93.08
3282.00,93.07
3281.00,93.05
3280.00,93.04
3279.00,93.04
3278.00,93.06
3277.00,93.09
3276.00,93.11
3275.00,93.12
3274.00,93.13
3273.00,93.15
3272.00,93.19
3271.00,93.22
3270.00,93.26
3269.00,93.29
3268.00,93.32
3267.00,93.33
3266.00,93.35
3265.00,93.37
3264.00,93.40
3263.00,93.43
3262.00,93.44
3261.00,93.45
3260.00,93.45
3259.00,93.46
3258.00,93.48
3257.00,93.51
3256.00,93.55
3255.00,93.60
3254.00,93.64
3253.00,93.68
3252.00,93.71
3251.00,93.74
3250.00,93.76
3249.00,93.78
3248.00,93.80
3247.00,93.82
3246.00,93.84
3245.00,93.86
3244.00,93.88
3243.00,93.90
3242.00,93.93
3241.00,93.95
3240.00,93.98
3239.00,94.01
3238.00,94.04
3237.00,94.06
3236.00,94.07
3235.00,94.09
3234.00,94.12
3233.00,94.15
3232.00,94.19
3231.00,94.23
3230.00,94.27
3229.00,94.30
3228.00,94.32
3227.00,94.32
3226.00,94.33
3225.00,94.35
3224.00,94.38
3223.00,94.40
3222.00,94.42
3221.00,94.44
3220.00,94.46
3219.00,94.49
3218.00,94.52
3217.00,94.55
3216.00,94.58
3215.00,94.61
3214.00,94.65
3213.00,94.67
3212.00,94.69
3211.00,94.70
3210.00,94.72
3209.00,94.74
3208.00,94.76
3207.00,94.79
3206.00,94.81
3205.00,94.83
3204.00,94.84
3203.00,94.86
3202.00,94.89
3201.00,94.93
3200.00,94.97
3199.00,95.01
3198.00,95.03
3197.00,95.05
3196.00,95.06
3195.00,95.06
3194.00,95.07
3193.00,95.10
3192.00,95.14
3191.00,95.19
3190.00,95.22
3189.00,95.24
3188.00,95.25
3187.00,95.27
3186.00,95.30
3185.00,95.34
3184.00,95.38
3183.00,95.40
3182.00,95.41
3181.00,95.42
3180.00,95.42
3179.00,95.43
3178.00,95.44
3177.00,95.45
3176.00,95.46
3175.00,95.48
3174.00,95.52
3173.00,95.56
3172.00,95.59
3171.00,95.61
3170.00,95.64
3169.00,95.67
3168.00,95.70
3167.00,95.73
3166.00,95.75
3165.00,95.77
3164.00,95.80
3163.00,95.83
3162.00,95.84
3161.00,95.86
3160.00,95.87
3159.00,95.89
3158.00,95.92
3157.00,95.94
3156.00,95.95
3155.00,95.96
3154.00,95.98
3153.00,96.00
3152.00,96.04
3151.00,96.09
3150.00,96.14
3149.00,96.18
3148.00,96.19
3147.00,96.19
3146.00,96.20
3145.00,96.20
3144.00,96.22
3143.00,96.25
3142.00,96.27
3141.00,96.29
3140.00,96.31
3139.00,96.31
3138.00,96.31
3137.00,96.30
3136.00,96.31
3135.00,96.33
3134.00,96.36
3133.00,96.38
3132.00,96.40
3131.00,96.42
3130.00,96.43
3129.00,96.44
3128.00,96.45
3127.00,96.47
3126.00,96.50
3125.00,96.52
3124.00,96.53
3123.00,96.55
3122.00,96.57
3121.00,96.61
3120.00,96.64
3119.00,96.65
3118.00,96.65
3117.00,96.65
3116.00,96.67
3115.00,96.71
3114.00,96.74
3113.00,96.76
3112.00,96.77
3111.00,96.77
3110.00,96.76
3109.00,96.77
3108.00,96.78
3107.00,96.80
3106.00,96.82
3105.00,96.84
3104.00,96.86
3103.00,96.87
3102.00,96.88
3101.00,96.90
3100.00,96.93
3099.00,96.96
3098.00,96.97
3097.00,96.97
3096.00,96.96
3095.00,96.97
3094.00,96.98
3093.00,97.00
3092.00,97.02
3091.00,97.05
3090.00,97.07
3089.00,97.07
3088.00,97.08
3087.00,97.09
3086.00,97.11
3085.00,97.13
3084.00,97.14
3083.00,97.15
3082.00,97.15
3081.00,97.15
3080.00,97.14
3079.00,97.13
3078.00,97.13
3077.00,97.14
3076.00,97.16
3075.00,97.19
3074.00,97.22
3073.00,97.24
3072.00,97.26
3071.00,97.27
3070.00,97.28
3069.00,97.29
3068.00,97.30
3067.00,97.30
3066.00,97.31
3065.00,97.32
3064.00,97.33
3063.00,97.35
3062.00,97.37
3061.00,97.39
3060.00,97.41
3059.00,97.43
3058.00,97.46
3057.00,97.47
3056.00,97.47
3055.00,97.46
3054.00,97.45
3053.00,97.46
3052.00,97.47
3051.00,97.49
3050.00,97.50
3049.00,97.51
3048.00,97.52
3047.00,97.53
3046.00,97.54
3045.00,97.55
3044.00,97.55
3043.00,97.56
3042.00,97.56
3041.00,97.57
3040.00,97.58
3039.00,97.60
3038.00,97.62
3037.00,97.63
3036.00,97.63
3035.00,97.63
3034.00,97.64
3033.00,97.66
3032.00,97.67
3031.00,97.67
3030.00,97.66
3029.00,97.65
3028.00,97.66
3027.00,97.67
3026.00,97.69
3025.00,97.71
3024.00,97.72
3023.00,97.72
3022.00,97.72
3021.00,97.73
3020.00,97.74
3019.00,97.74
3018.00,97.74
3017.00,97.73
3016.00,97.72
3015.00,97.71
3014.00,97.71
3013.00,97.70
3012.00,97.70
3011.00,97.71
3010.00,97.72
3009.00,97.74
3008.00,97.75
3007.00,97.76
3006.00,97.76
3005.00,97.75
3004.00,97.75
3003.00,97.74
3002.00,97.74
3001.00,97.73
3000.00,97.74
2999.00,97.74
2998.00,97.74
2997.00,97.73
2996.00,97.71
2995.00,97.70
2994.00,97.68
2993.00,97.68
2992.00,97.68
2991.00,97.69
2990.00,97.69
2989.00,97.69
2988.00,97.68
2987.00,97.66
2986.00,97.64
2985.00,97.63
2984.00,97.62
2983.00,97.61
2982.00,97.60
2981.00,97.58
2980.00,97.56
2979.00,97.53
2978.00,97.51
2977.00,97.48
2976.00,97.46
2975.00,97.43
2974.00,97.40
2973.00,97.36
2972.00,97.31
2971.00,97.27
2970.00,97.23
2969.00,97.20
2968.00,97.17
2967.00,97.15
2966.00,97.13
2965.00,97.10
2964.00,97.06
2963.00,97.02
2962.00,96.98
2961.00,96.94
2960.00,96.91
2959.00,96.89
2958.00,96.88
2957.00,96.87
2956.00,96.85
2955.00,96.83
2954.00,96.81
2953.00,96.77
2952.00,96.72
2951.00,96.67
2950.00,96.64
2949.00,96.61
2948.00,96.59
2947.00,96.57
2946.00,96.55
2945.00,96.54
2944.00,96.52
2943.00,96.50
2942.00,96.45
2941.00,96.39
2940.00,96.33
2939.00,96.29
2938.00,96.27
2937.00,96.24
2936.00,96.21
2935.00,96.18
2934.00,96.14
2933.00,96.11
2932.00,96.08
2931.00,96.05
2930.00,96.01
2929.00,95.96
2928.00,95.92
2927.00,95.90
2926.00,95.89
2925.00,95.87
2924.00,95.85
2923.00,95.83
2922.00,95.81
2921.00,95.79
2920.00,95.79
2919.00,95.80
2918.00,95.81
2917.00,95.82
2916.00,95.85
2915.00,95.87
2914.00,95.89
2913.00,95.91
2912.00,95.92
2911.00,95.94
2910.00,95.96
2909.00,95.97
2908.00,95.98
2907.00,95.97
2906.00,95.98
2905.00,95.99
2904.00,96.01
2903.00,96.02
2902.00,96.02
2901.00,96.02
2900.00,96.03
2899.00,96.04
2898.00,96.07
2897.00,96.08
2896.00,96.09
2895.00,96.09
2894.00,96.09
2893.00,96.10
2892.00,96.12
2891.00,96.14
2890.00,96.17
2889.00,96.20
2888.00,96.23
2887.00,96.25
2886.00,96.28
2885.00,96.29
2884.00,96.31
2883.00,96.33
2882.00,96.34
2881.00,96.35
2880.00,96.36
2879.00,96.36
2878.00,96.36
2877.00,96.36
2876.00,96.38
2875.00,96.40
2874.00,96.43
2873.00,96.45
2872.00,96.46
2871.00,96.47
2870.00,96.48
2869.00,96.49
2868.00,96.52
2867.00,96.55
2866.00,96.57
2865.00,96.58
2864.00,96.57
2863.00,96.57
2862.00,96.57
2861.00,96.57
2860.00,96.58
2859.00,96.60
2858.00,96.60
2857.00,96.58
2856.00,96.56
2855.00,96.54
2854.00,96.53
2853.00,96.54
2852.00,96.57
2851.00,96.61
2850.00,96.66
2849.00,96.71
2848.00,96.76
2847.00,96.83
2846.00,96.90
2845.00,96.97
2844.00,97.03
2843.00,97.07
2842.00,97.09
2841.00,97.10
2840.00,97.13
2839.00,97.17
2838.00,97.24
2837.00,97.31
2836.00,97.37
2835.00,97.42
2834.00,97.46
2833.00,97.49
2832.00,97.51
2831.00,97.53
2830.00,97.56
2829.00,97.59
2828.00,97.62
2827.00,97.65
2826.00,97.67
2825.00,97.70
2824.00,97.73
2823.00,97.76
2822.00,97.80
2821.00,97.83
2820.00,97.85
2819.00,97.85
2818.00,97.85
2817.00,97.85
2816.00,97.86
2815.00,97.88
2814.00,97.90
2813.00,97.92
2812.00,97.93
2811.00,97.95
2810.00,97.96
2809.00,97.97
2808.00,97.97
2807.00,97.98
2806.00,97.98
2805.00,98.00
2804.00,98.02
2803.00,98.04
2802.00,98.05
2801.00,98.06
2800.00,98.07
2799.00,98.07
2798.00,98.07
2797.00,98.08
2796.00,98.10
2795.00,98.11
2794.00,98.12
2793.00,98.12
2792.00,98.12
2791.00,98.12
2790.00,98.12
2789.00,98.11
2788.00,98.11
2787.00,98.11
2786.00,98.13
2785.00,98.15
2784.00,98.17
2783.00,98.19
2782.00,98.20
2781.00,98.20
2780.00,98.20
2779.00,98.19
2778.00,98.19
2777.00,98.21
2776.00,98.22
2775.00,98.23
2774.00,98.24
2773.00,98.24
2772.00,98.24
2771.00,98.23
2770.00,98.22
2769.00,98.21
2768.00,98.21
2767.00,98.22
2766.00,98.23
2765.00,98.24
2764.00,98.25
2763.00,98.26
2762.00,98.27
2761.00,98.29
2760.00,98.31
2759.00,98.32
2758.00,98.32
2757.00,98.32
2756.00,98.31
2755.00,98.31
2754.00,98.30
2753.00,98.29
2752.00,98.28
2751.00,98.27
2750.00,98.27
2749.00,98.27
2748.00,98.28
2747.00,98.30
2746.00,98.31
2745.00,98.32
2744.00,98.31
2743.00,98.30
2742.00,98.29
2741.00,98.28
2740.00,98.29
2739.00,98.29
2738.00,98.29
2737.00,98.28
2736.00,98.28
2735.00,98.28
2734.00,98.28
2733.00,98.28
2732.00,98.29
2731.00,98.31
2730.00,98.32
2729.00,98.34
2728.00,98.35
2727.00,98.36
2726.00,98.36
2725.00,98.35
2724.00,98.34
2723.00,98.33
2722.00,98.33
2721.00,98.34
2720.00,98.35
2719.00,98.35
2718.00,98.35
2717.00,98.36
2716.00,98.38
2715.00,98.39
2714.00,98.39
2713.00,98.39
2712.00,98.38
2711.00,98.38
2710.00,98.39
2709.00,98.41
2708.00,98.42
2707.00,98.42
2706.00,98.43
2705.00,98.42
2704.00,98.42
2703.00,98.41
2702.00,98.41
2701.00,98.43
2700.00,98.45
2699.00,98.46
2698.00,98.47
2697.00,98.47
2696.00,98.46
2695.00,98.45
2694.00,98.44
2693.00,98.44
2692.00,98.44
2691.00,98.45
2690.00,98.46
2689.00,98.46
2688.00,98.47
2687.00,98.48
2686.00,98.49
2685.00,98.49
2684.00,98.50
2683.00,98.50
2682.00,98.49
2681.00,98.49
2680.00,98.49
2679.00,98.48
2678.00,98.48
2677.00,98.49
2676.00,98.51
2675.00,98.54
2674.00,98.55
2673.00,98.55
2672.00,98.54
2671.00,98.52
2670.00,98.50
2669.00,98.49
2668.00,98.48
2667.00,98.49
2666.00,98.51
2665.00,98.52
2664.00,98.52
2663.00,98.51
2662.00,98.50
2661.00,98.50
2660.00,98.51
2659.00,98.51
2658.00,98.50
2657.00,98.49
2656.00,98.48
2655.00,98.48
2654.00,98.48
2653.00,98.48
2652.00,98.46
2651.00,98.45
2650.00,98.44
2649.00,98.43
2648.00,98.42
2647.00,98.42
2646.00,98.43
2645.00,98.44
2644.00,98.44
2643.00,98.42
2642.00,98.40
2641.00,98.39
2640.00,98.39
2639.00,98.40
2638.00,98.41
2637.00,98.41
2636.00,98.40
2635.00,98.39
2634.00,98.38
2633.00,98.37
2632.00,98.36
2631.00,98.34
2630.00,98.33
2629.00,98.32
2628.00,98.32
2627.00,98.32
2626.00,98.32
2625.00,98.33
2624.00,98.32
2623.00,98.32
2622.00,98.32
2621.00,98.31
2620.00,98.31
2619.00,98.30
2618.00,98.31
2617.00,98.31
2616.00,98.32
2615.00,98.33
2614.00,98.34
2613.00,98.35
2612.00,98.35
2611.00,98.34
2610.00,98.32
2609.00,98.31
2608.00,98.30
2607.00,98.31
2606.00,98.32
2605.00,98.33
2604.00,98.34
2603.00,98.35
2602.00,98.35
2601.00,98.36
2600.00,98.37
2599.00,98.37
2598.00,98.37
2597.00,98.36
2596.00,98.35
2595.00,98.34
2594.00,98.33
2593.00,98.31
2592.00,98.28
2591.00,98.26
2590.00,98.26
2589.00,98.27
2588.00,98.28
2587.00,98.28
2586.00,98.28
2585.00,98.27
2584.00,98.27
2583.00,98.27
2582.00,98.28
2581.00,98.29
2580.00,98.28
2579.00,98.27
2578.00,98.26
2577.00,98.26
2576.00,98.26
2575.00,98.26
2574.00,98.26
2573.00,98.26
2572.00,98.26
2571.00,98.25
2570.00,98.25
2569.00,98.25
2568.00,98.26
2567.00,98.27
2566.00,98.28
2565.00,98.29
2564.00,98.30
2563.00,98.31
2562.00,98.31
2561.00,98.32
2560.00,98.32
2559.00,98.31
2558.00,98.29
2557.00,98.28
2556.00,98.27
2555.00,98.27
2554.00,98.27
2553.00,98.27
2552.00,98.28
2551.00,98.30
2550.00,98.30
2549.00,98.30
2548.00,98.28
2547.00,98.26
2546.00,98.23
2545.00,98.21
2544.00,98.20
2543.00,98.21
2542.00,98.21
2541.00,98.22
2540.00,98.22
2539.00,98.23
2538.00,98.25
2537.00,98.26
2536.00,98.26
2535.00,98.26
2534.00,98.26
2533.00,98.26
2532.00,98.26
2531.00,98.24
2530.00,98.23
2529.00,98.22
2528.00,98.23
2527.00,98.25
2526.00,98.28
2525.00,98.30
2524.00,98.30
2523.00,98.30
2522.00,98.31
2521.00,98.32
2520.00,98.31
2519.00,98.30
2518.00,98.28
2517.00,98.27
2516.00,98.26
2515.00,98.26
2514.00,98.27
2513.00,98.29
2512.00,98.30
2511.00,98.31
2510.00,98.31
2509.00,98.32
2508.00,98.32
2507.00,98.32
2506.00,98.32
2505.00,98.32
2504.00,98.31
2503.00,98.30
2502.00,98.31
2501.00,98.32
2500.00,98.34
2499.00,98.36
2498.00,98.37
2497.00,98.37
2496.00,98.37
2495.00,98.36
2494.00,98.36
2493.00,98.36
2492.00,98.38
2491.00,98.38
2490.00,98.38
2489.00,98.37
2488.00,98.36
2487.00,98.36
2486.00,98.37
2485.00,98.38
2484.00,98.39
2483.00,98.40
2482.00,98.40
2481.00,98.38
2480.00,98.36
2479.00,98.34
2478.00,98.31
2477.00,98.30
2476.00,98.31
2475.00,98.33
2474.00,98.35
2473.00,98.36
2472.00,98.37
2471.00,98.38
2470.00,98.38
2469.00,98.38
2468.00,98.37
2467.00,98.37
2466.00,98.37
2465.00,98.38
2464.00,98.40
2463.00,98.41
2462.00,98.41
2461.00,98.38
2460.00,98.35
2459.00,98.32
2458.00,98.30
2457.00,98.30
2456.00,98.31
2455.00,98.33
2454.00,98.36
2453.00,98.38
2452.00,98.40
2451.00,98.41
2450.00,98.43
2449.00,98.45
2448.00,98.45
2447.00,98.44
2446.00,98.42
2445.00,98.40
2444.00,98.39
2443.00,98.39
2442.00,98.40
2441.00,98.41
2440.00,98.41
2439.00,98.41
2438.00,98.42
2437.00,98.42
2436.00,98.44
2435.00,98.45
2434.00,98.46
2433.00,98.46
2432.00,98.46
2431.00,98.46
2430.00,98.45
2429.00,98.45
2428.00,98.45
2427.00,98.45
2426.00,98.44
2425.00,98.43
2424.00,98.43
2423.00,98.43
2422.00,98.43
2421.00,98.42
2420.00,98.42
2419.00,98.42
2418.00,98.42
2417.00,98.43
2416.00,98.43
2415.00,98.44
2414.00,98.47
2413.00,98.50
2412.00,98.51
2411.00,98.51
2410.00,98.51
2409.00,98.52
2408.00,98.53
2407.00,98.54
2406.00,98.54
2405.00,98.56
2404.00,98.57
2403.00,98.59
2402.00,98.60
2401.00,98.60
2400.00,98.59
2399.00,98.58
2398.00,98.57
2397.00,98.58
2396.00,98.60
2395.00,98.62
2394.00,98.64
2393.00,98.65
2392.00,98.67
2391.00,98.68
2390.00,98.68
2389.00,98.68
2388.00,98.67
2387.00,98.65
2386.00,98.64
2385.00,98.63
2384.00,98.64
2383.00,98.66
2382.00,98.68
2381.00,98.70
2380.00,98.71
2379.00,98.72
2378.00,98.72
2377.00,98.72
2376.00,98.72
2375.00,98.73
2374.00,98.74
2373.00,98.75
2372.00,98.76
2371.00,98.75
2370.00,98.73
2369.00,98.70
2368.00,98.68
2367.00,98.69
2366.00,98.73
2365.00,98.76
2364.00,98.77
2363.00,98.77
2362.00,98.78
2361.00,98.82
2360.00,98.84
2359.00,98.81
2358.00,98.74
2357.00,98.68
2356.00,98.70
2355.00,98.77
2354.00,98.83
2353.00,98.84
2352.00,98.82
2351.00,98.80
2350.00,98.80
2349.00,98.81
2348.00,98.81
2347.00,98.81
2346.00,98.81
2345.00,98.80
2344.00,98.79
2343.00,98.76
2342.00,98.74
2341.00,98.73
2340.00,98.76
2339.00,98.80
2338.00,98.85
2337.00,98.86
2336.00,98.84
2335.00,98.82
2334.00,98.81
2333.00,98.81
2332.00,98.81
2331.00,98.80
2330.00,98.79
2329.00,98.80
2328.00,98.81
2327.00,98.79
2326.00,98.72
2325.00,98.63
2324.00,98.58
2323.00,98.58
2322.00,98.62
2321.00,98.67
2320.00,98.71
2319.00,98.72
2318.00,98.68
2317.00,98.61
2316.00,98.55
2315.00,98.51
2314.00,98.50
2313.00,98.48
2312.00,98.45
2311.00,98.44
2310.00,98.43
2309.00,98.43
2308.00,98.43
2307.00,98.43
2306.00,98.42
2305.00,98.41
2304.00,98.42
2303.00,98.43
2302.00,98.44
2301.00,98.43
2300.00,98.38
2299.00,98.33
2298.00,98.30
2297.00,98.30
2296.00,98.31
2295.00,98.32
2294.00,98.32
2293.00,98.31
2292.00,98.29
2291.00,98.26
2290.00,98.22
2289.00,98.19
2288.00,98.17
2287.00,98.17
2286.00,98.17
2285.00,98.16
2284.00,98.14
2283.00,98.14
2282.00,98.16
2281.00,98.18
2280.00,98.17
2279.00,98.14
2278.00,98.10
2277.00,98.08
2276.00,98.08
2275.00,98.09
2274.00,98.10
2273.00,98.11
2272.00,98.10
2271.00,98.08
2270.00,98.06
2269.00,98.04
2268.00,98.03
2267.00,98.03
2266.00,98.04
2265.00,98.05
2264.00,98.07
2263.00,98.07
2262.00,98.07
2261.00,98.05
2260.00,97.99
2259.00,97.91
2258.00,97.85
2257.00,97.84
2256.00,97.86
2255.00,97.88
2254.00,97.89
2253.00,97.90
2252.00,97.92
2251.00,97.94
2250.00,97.94
2249.00,97.92
2248.00,97.90
2247.00,97.86
2246.00,97.83
2245.00,97.80
2244.00,97.80
2243.00,97.81
2242.00,97.82
2241.00,97.81
2240.00,97.78
2239.00,97.74
2238.00,97.73
2237.00,97.72
2236.00,97.72
2235.00,97.70
2234.00,97.68
2233.00,97.68
2232.00,97.69
2231.00,97.72
2230.00,97.74
2229.00,97.74
2228.00,97.71
2227.00,97.66
2226.00,97.62
2225.00,97.61
2224.00,97.62
2223.00,97.62
2222.00,97.61
2221.00,97.58
2220.00,97.55
2219.00,97.54
2218.00,97.55
2217.00,97.59
2216.00,97.64
2215.00,97.66
2214.00,97.63
2213.00,97.54
2212.00,97.46
2211.00,97.43
2210.00,97.47
2209.00,97.54
2208.00,97.57
2207.00,97.54
2206.00,97.48
2205.00,97.44
2204.00,97.44
2203.00,97.45
2202.00,97.44
2201.00,97.40
2200.00,97.36
2199.00,97.31
2198.00,97.26
2197.00,97.20
2196.00,97.14
2195.00,97.09
2194.00,97.08
2193.00,97.08
2192.00,97.10
2191.00,97.14
2190.00,97.19
2189.00,97.24
2188.00,97.27
2187.00,97.26
2186.00,97.22
2185.00,97.17
2184.00,97.14
2183.00,97.15
2182.00,97.18
2181.00,97.21
2180.00,97.22
2179.00,97.24
2178.00,97.27
2177.00,97.32
2176.00,97.34
2175.00,97.32
2174.00,97.27
2173.00,97.20
2172.00,97.13
2171.00,97.08
2170.00,97.05
2169.00,97.01
2168.00,96.93
2167.00,96.84
2166.00,96.75
2165.00,96.70
2164.00,96.68
2163.00,96.64
2162.00,96.59
2161.00,96.58
2160.00,96.66
2159.00,96.83
2158.00,97.02
2157.00,97.14
2156.00,97.18
2155.00,97.19
2154.00,97.21
2153.00,97.25
2152.00,97.31
2151.00,97.38
2150.00,97.43
2149.00,97.46
2148.00,97.46
2147.00,97.44
2146.00,97.44
2145.00,97.47
2144.00,97.51
2143.00,97.54
2142.00,97.56
2141.00,97.60
2140.00,97.67
2139.00,97.76
2138.00,97.81
2137.00,97.83
2136.00,97.82
2135.00,97.82
2134.00,97.84
2133.00,97.88
2132.00,97.93
2131.00,97.98
2130.00,98.01
2129.00,98.01
2128.00,98.00
2127.00,97.98
2126.00,97.97
2125.00,97.96
2124.00,97.97
2123.00,98.00
2122.00,98.03
2121.00,98.06
2120.00,98.07
2119.00,98.08
2118.00,98.08
2117.00,98.04
2116.00,97.97
2115.00,97.90
2114.00,97.87
2113.00,97.89
2112.00,97.93
2111.00,97.98
2110.00,98.00
2109.00,97.99
2108.00,97.96
2107.00,97.94
2106.00,97.95
2105.00,97.95
2104.00,97.96
2103.00,97.96
2102.00,97.97
2101.00,97.95
2100.00,97.91
2099.00,97.86
2098.00,97.83
2097.00,97.85
2096.00,97.89
2095.00,97.91
2094.00,97.92
2093.00,97.93
2092.00,97.94
2091.00,97.96
2090.00,97.98
2089.00,98.00
2088.00,98.00
2087.00,97.98
2086.00,97.94
2085.00,97.91
2084.00,97.90
2083.00,97.89
2082.00,97.88
2081.00,97.85
2080.00,97.83
2079.00,97.84
2078.00,97.87
2077.00,97.90
2076.00,97.91
2075.00,97.89
2074.00,97.85
2073.00,97.81
2072.00,97.77
2071.00,97.76
2070.00,97.79
2069.00,97.83
2068.00,97.87
2067.00,97.91
2066.00,97.94
2065.00,97.94
2064.00,97.92
2063.00,97.88
2062.00,97.84
2061.00,97.82
2060.00,97.79
2059.00,97.76
2058.00,97.70
2057.00,97.63
2056.00,97.57
2055.00,97.53
2054.00,97.53
2053.00,97.55
2052.00,97.55
2051.00,97.53
2050.00,97.50
2049.00,97.48
2048.00,97.46
2047.00,97.42
2046.00,97.38
2045.00,97.35
2044.00,97.33
2043.00,97.32
2042.00,97.32
2041.00,97.33
2040.00,97.33
2039.00,97.29
2038.00,97.21
2037.00,97.11
2036.00,97.02
2035.00,96.97
2034.00,96.97
2033.00,97.03
2032.00,97.11
2031.00,97.19
2030.00,97.21
2029.00,97.19
2028.00,97.15
2027.00,97.15
2026.00,97.16
2025.00,97.16
2024.00,97.15
2023.00,97.15
2022.00,97.18
2021.00,97.24
2020.00,97.29
2019.00,97.34
2018.00,97.36
2017.00,97.37
2016.00,97.34
2015.00,97.31
2014.00,97.30
2013.00,97.31
2012.00,97.29
2011.00,97.26
2010.00,97.24
2009.00,97.28
2008.00,97.39
2007.00,97.50
2006.00,97.57
2005.00,97.57
2004.00,97.55
2003.00,97.54
2002.00,97.57
2001.00,97.60
2000.00,97.61
1999.00,97.61
1998.00,97.62
1997.00,97.65
1996.00,97.66
1995.00,97.65
1994.00,97.64
1993.00,97.64
1992.00,97.63
1991.00,97.62
1990.00,97.59
1989.00,97.57
1988.00,97.56
1987.00,97.54
1986.00,97.52
1985.00,97.50
1984.00,97.47
1983.00,97.42
1982.00,97.33
1981.00,97.24
1980.00,97.17
1979.00,97.15
1978.00,97.17
1977.00,97.20
1976.00,97.25
1975.00,97.30
1974.00,97.34
1973.00,97.37
1972.00,97.39
1971.00,97.40
1970.00,97.42
1969.00,97.45
1968.00,97.47
1967.00,97.50
1966.00,97.53
1965.00,97.56
1964.00,97.57
1963.00,97.60
1962.00,97.65
1961.00,97.72
1960.00,97.80
1959.00,97.85
1958.00,97.88
1957.00,97.89
1956.00,97.89
1955.00,97.87
1954.00,97.86
1953.00,97.88
1952.00,97.92
1951.00,97.98
1950.00,98.06
1949.00,98.12
1948.00,98.15
1947.00,98.15
1946.00,98.15
1945.00,98.16
1944.00,98.19
1943.00,98.21
1942.00,98.20
1941.00,98.19
1940.00,98.20
1939.00,98.22
1938.00,98.23
1937.00,98.21
1936.00,98.19
1935.00,98.17
1934.00,98.17
1933.00,98.20
1932.00,98.24
1931.00,98.27
1930.00,98.28
1929.00,98.29
1928.00,98.30
1927.00,98.32
1926.00,98.35
1925.00,98.38
1924.00,98.39
1923.00,98.39
1922.00,98.39
1921.00,98.39
1920.00,98.40
1919.00,98.42
1918.00,98.42
1917.00,98.40
1916.00,98.39
1915.00,98.40
1914.00,98.42
1913.00,98.45
1912.00,98.48
1911.00,98.50
1910.00,98.50
1909.00,98.49
1908.00,98.48
1907.00,98.49
1906.00,98.52
1905.00,98.54
1904.00,98.55
1903.00,98.53
1902.00,98.50
1901.00,98.49
1900.00,98.51
1899.00,98.56
1898.00,98.63
1897.00,98.67
1896.00,98.66
1895.00,98.63
1894.00,98.59
1893.00,98.56
1892.00,98.55
1891.00,98.57
1890.00,98.61
1889.00,98.66
1888.00,98.69
1887.00,98.69
1886.00,98.68
1885.00,98.67
1884.00,98.67
1883.00,98.67
1882.00,98.68
1881.00,98.69
1880.00,98.67
1879.00,98.66
1878.00,98.66
1877.00,98.68
1876.00,98.69
1875.00,98.69
1874.00,98.68
1873.00,98.68
1872.00,98.68
1871.00,98.71
1870.00,98.74
1869.00,98.76
1868.00,98.78
1867.00,98.78
1866.00,98.77
1865.00,98.75
1864.00,98.74
1863.00,98.73
1862.00,98.74
1861.00,98.75
1860.00,98.76
1859.00,98.76
1858.00,98.76
1857.00,98.75
1856.00,98.76
1855.00,98.78
1854.00,98.80
1853.00,98.82
1852.00,98.83
1851.00,98.82
1850.00,98.82
1849.00,98.82
1848.00,98.83
1847.00,98.84
1846.00,98.85
1845.00,98.86
1844.00,98.87
1843.00,98.89
1842.00,98.90
1841.00,98.91
1840.00,98.90
1839.00,98.89
1838.00,98.90
1837.00,98.91
1836.00,98.92
1835.00,98.93
1834.00,98.94
1833.00,98.96
1832.00,98.97
1831.00,98.96
1830.00,98.95
1829.00,98.94
1828.00,98.93
1827.00,98.93
1826.00,98.94
1825.00,98.94
1824.00,98.94
1823.00,98.94
1822.00,98.94
1821.00,98.94
1820.00,98.94
1819.00,98.95
1818.00,98.95
1817.00,98.96
1816.00,98.97
1815.00,98.97
1814.00,98.96
1813.00,98.95
1812.00,98.94
1811.00,98.93
1810.00,98.93
1809.00,98.93
1808.00,98.94
1807.00,98.94
1806.00,98.94
1805.00,98.93
1804.00,98.93
1803.00,98.93
1802.00,98.94
1801.00,98.95
1800.00,98.96
1799.00,98.97
1798.00,98.96
1797.00,98.95
1796.00,98.94
1795.00,98.93
1794.00,98.93
1793.00,98.94
1792.00,98.94
1791.00,98.95
1790.00,98.95
1789.00,98.94
1788.00,98.93
1787.00,98.93
1786.00,98.92
1785.00,98.91
1784.00,98.89
1783.00,98.87
1782.00,98.85
1781.00,98.83
1780.00,98.81
1779.00,98.80
1778.00,98.79
1777.00,98.78
1776.00,98.76
1775.00,98.73
1774.00,98.69
1773.00,98.66
1772.00,98.62
1771.00,98.59
1770.00,98.56
1769.00,98.51
1768.00,98.43
1767.00,98.34
1766.00,98.26
1765.00,98.20
1764.00,98.14
1763.00,98.06
1762.00,97.96
1761.00,97.84
1760.00,97.73
1759.00,97.62
1758.00,97.52
1757.00,97.42
1756.00,97.31
1755.00,97.21
1754.00,97.12
1753.00,97.02
1752.00,96.89
1751.00,96.73
1750.00,96.57
1749.00,96.43
1748.00,96.30
1747.00,96.18
1746.00,96.06
1745.00,95.95
1744.00,95.85
1743.00,95.75
1742.00,95.66
1741.00,95.56
1740.00,95.45
1739.00,95.34
1738.00,95.27
1737.00,95.24
1736.00,95.22
1735.00,95.21
1734.00,95.19
1733.00,95.14
1732.00,95.09
1731.00,95.07
1730.00,95.08
1729.00,95.10
1728.00,95.13
1727.00,95.16
1726.00,95.20
1725.00,95.23
1724.00,95.26
1723.00,95.31
1722.00,95.37
1721.00,95.42
1720.00,95.49
1719.00,95.59
1718.00,95.71
1717.00,95.84
1716.00,95.94
1715.00,96.00
1714.00,96.06
1713.00,96.11
1712.00,96.17
1711.00,96.23
1710.00,96.30
1709.00,96.38
1708.00,96.44
1707.00,96.49
1706.00,96.54
1705.00,96.59
1704.00,96.65
1703.00,96.71
1702.00,96.76
1701.00,96.78
1700.00,96.76
1699.00,96.75
1698.00,96.75
1697.00,96.75
1696.00,96.74
1695.00,96.73
1694.00,96.72
1693.00,96.71
1692.00,96.69
1691.00,96.67
1690.00,96.64
1689.00,96.60
1688.00,96.56
1687.00,96.53
1686.00,96.48
1685.00,96.40
1684.00,96.31
1683.00,96.25
1682.00,96.21
1681.00,96.17
1680.00,96.13
1679.00,96.09
1678.00,96.04
1677.00,95.98
1676.00,95.89
1675.00,95.80
1674.00,95.71
1673.00,95.65
1672.00,95.58
1671.00,95.51
1670.00,95.43
1669.00,95.35
1668.00,95.27
1667.00,95.20
1666.00,95.14
1665.00,95.07
1664.00,94.99
1663.00,94.90
1662.00,94.83
1661.00,94.77
1660.00,94.71
1659.00,94.67
1658.00,94.63
1657.00,94.59
1656.00,94.56
1655.00,94.53
1654.00,94.48
1653.00,94.41
1652.00,94.33
1651.00,94.27
1650.00,94.23
1649.00,94.19
1648.00,94.15
1647.00,94.12
1646.00,94.12
1645.00,94.12
1644.00,94.12
1643.00,94.12
1642.00,94.13
1641.00,94.14
1640.00,94.13
1639.00,94.12
1638.00,94.11
1637.00,94.11
1636.00,94.11
1635.00,94.11
1634.00,94.13
1633.00,94.13
1632.00,94.14
1631.00,94.15
1630.00,94.16
1629.00,94.17
1628.00,94.18
1627.00,94.20
1626.00,94.22
1625.00,94.25
1624.00,94.27
1623.00,94.27
1622.00,94.28
1621.00,94.28
1620.00,94.29
1619.00,94.31
1618.00,94.35
1617.00,94.38
1616.00,94.42
1615.00,94.46
1614.00,94.49
1613.00,94.53
1612.00,94.55
1611.00,94.56
1610.00,94.57
1609.00,94.58
1608.00,94.59
1607.00,94.61
1606.00,94.62
1605.00,94.62
1604.00,94.61
1603.00,94.60
1602.00,94.60
1601.00,94.59
1600.00,94.57
1599.00,94.54
1598.00,94.51
1597.00,94.49
1596.00,94.48
1595.00,94.48
1594.00,94.51
1593.00,94.55
1592.00,94.63
1591.00,94.72
1590.00,94.81
1589.00,94.91
1588.00,95.02
1587.00,95.14
1586.00,95.27
1585.00,95.39
1584.00,95.52
1583.00,95.63
1582.00,95.74
1581.00,95.84
1580.00,95.93
1579.00,96.02
1578.00,96.11
1577.00,96.20
1576.00,96.30
1575.00,96.38
1574.00,96.44
1573.00,96.48
1572.00,96.50
1571.00,96.52
1570.00,96.57
1569.00,96.63
1568.00,96.70
1567.00,96.74
1566.00,96.78
1565.00,96.81
1564.00,96.84
1563.00,96.86
1562.00,96.88
1561.00,96.88
1560.00,96.88
1559.00,96.90
1558.00,96.94
1557.00,96.95
1556.00,96.95
1555.00,96.94
1554.00,96.93
1553.00,96.93
1552.00,96.94
1551.00,96.95
1550.00,96.97
1549.00,96.97
1548.00,96.98
1547.00,96.99
1546.00,96.99
1545.00,96.98
1544.00,96.98
1543.00,96.99
1542.00,97.00
1541.00,97.01
1540.00,97.03
1539.00,97.03
1538.00,97.02
1537.00,96.99
1536.00,96.98
1535.00,96.99
1534.00,97.02
1533.00,97.03
1532.00,97.04
1531.00,97.04
1530.00,97.04
1529.00,97.05
1528.00,97.06
1527.00,97.06
1526.00,97.04
1525.00,97.01
1524.00,96.97
1523.00,96.93
1522.00,96.90
1521.00,96.87
1520.00,96.84
1519.00,96.80
1518.00,96.76
1517.00,96.71
1516.00,96.67
1515.00,96.63
1514.00,96.59
1513.00,96.53
1512.00,96.46
1511.00,96.40
1510.00,96.35
1509.00,96.29
1508.00,96.22
1507.00,96.18
1506.00,96.16
1505.00,96.16
1504.00,96.17
1503.00,96.20
1502.00,96.24
1501.00,96.29
1500.00,96.35
1499.00,96.43
1498.00,96.52
1497.00,96.60
1496.00,96.68
1495.00,96.76
1494.00,96.83
1493.00,96.89
1492.00,96.94
1491.00,96.99
1490.00,97.05
1489.00,97.09
1488.00,97.11
1487.00,97.12
1486.00,97.12
1485.00,97.10
1484.00,97.07
1483.00,97.03
1482.00,96.98
1481.00,96.93
1480.00,96.87
1479.00,96.81
1478.00,96.73
1477.00,96.63
1476.00,96.52
1475.00,96.39
1474.00,96.24
1473.00,96.05
1472.00,95.83
1471.00,95.65
1470.00,95.50
1469.00,95.37
1468.00,95.24
1467.00,95.11
1466.00,94.97
1465.00,94.84
1464.00,94.73
1463.00,94.66
1462.00,94.61
1461.00,94.59
1460.00,94.59
1459.00,94.58
1458.00,94.54
1457.00,94.49
1456.00,94.44
1455.00,94.42
1454.00,94.41
1453.00,94.41
1452.00,94.42
1451.00,94.45
1450.00,94.48
1449.00,94.52
1448.00,94.57
1447.00,94.60
1446.00,94.63
1445.00,94.64
1444.00,94.64
1443.00,94.64
1442.00,94.63
1441.00,94.61
1440.00,94.58
1439.00,94.56
1438.00,94.54
1437.00,94.50
1436.00,94.43
1435.00,94.34
1434.00,94.24
1433.00,94.15
1432.00,94.06
1431.00,93.99
1430.00,93.92
1429.00,93.84
1428.00,93.78
1427.00,93.72
1426.00,93.69
1425.00,93.66
1424.00,93.64
1423.00,93.64
1422.00,93.66
1421.00,93.70
1420.00,93.76
1419.00,93.85
1418.00,93.95
1417.00,94.03
1416.00,94.11
1415.00,94.20
1414.00,94.29
1413.00,94.38
1412.00,94.47
1411.00,94.55
1410.00,94.62
1409.00,94.68
1408.00,94.74
1407.00,94.79
1406.00,94.84
1405.00,94.87
1404.00,94.90
1403.00,94.91
1402.00,94.93
1401.00,94.95
1400.00,94.96
1399.00,94.97
1398.00,94.96
1397.00,94.96
1396.00,94.96
1395.00,94.97
1394.00,94.96
1393.00,94.93
1392.00,94.88
1391.00,94.82
1390.00,94.75
1389.00,94.67
1388.00,94.58
1387.00,94.47
1386.00,94.36
1385.00,94.25
1384.00,94.12
1383.00,93.98
1382.00,93.84
1381.00,93.69
1380.00,93.55
1379.00,93.42
1378.00,93.30
1377.00,93.20
1376.00,93.11
1375.00,93.02
1374.00,92.93
1373.00,92.85
1372.00,92.80
1371.00,92.78
1370.00,92.77
1369.00,92.77
1368.00,92.79
1367.00,92.81
1366.00,92.85
1365.00,92.89
1364.00,92.94
1363.00,93.01
1362.00,93.09
1361.00,93.17
1360.00,93.26
1359.00,93.35
1358.00,93.44
1357.00,93.54
1356.00,93.62
1355.00,93.70
1354.00,93.76
1353.00,93.80
1352.00,93.84
1351.00,93.87
1350.00,93.88
1349.00,93.88
1348.00,93.86
1347.00,93.84
1346.00,93.82
1345.00,93.77
1344.00,93.71
1343.00,93.64
1342.00,93.56
1341.00,93.48
1340.00,93.40
1339.00,93.31
1338.00,93.24
1337.00,93.17
1336.00,93.10
1335.00,93.04
1334.00,92.98
1333.00,92.93
1332.00,92.89
1331.00,92.88
1330.00,92.87
1329.00,92.86
1328.00,92.83
1327.00,92.79
1326.00,92.75
1325.00,92.69
1324.00,92.62
1323.00,92.55
1322.00,92.49
1321.00,92.42
1320.00,92.38
1319.00,92.34
1318.00,92.33
1317.00,92.34
1316.00,92.36
1315.00,92.41
1314.00,92.49
1313.00,92.59
1312.00,92.70
1311.00,92.83
1310.00,92.96
1309.00,93.11
1308.00,93.25
1307.00,93.40
1306.00,93.54
1305.00,93.67
1304.00,93.78
1303.00,93.89
1302.00,93.99
1301.00,94.09
1300.00,94.17
1299.00,94.26
1298.00,94.34
1297.00,94.40
1296.00,94.45
1295.00,94.49
1294.00,94.52
1293.00,94.55
1292.00,94.56
1291.00,94.56
1290.00,94.54
1289.00,94.51
1288.00,94.47
1287.00,94.43
1286.00,94.40
1285.00,94.35
1284.00,94.29
1283.00,94.22
1282.00,94.13
1281.00,94.05
1280.00,93.98
1279.00,93.92
1278.00,93.86
1277.00,93.79
1276.00,93.72
1275.00,93.63
1274.00,93.55
1273.00,93.46
1272.00,93.36
1271.00,93.26
1270.00,93.16
1269.00,93.05
1268.00,92.96
1267.00,92.87
1266.00,92.79
1265.00,92.69
1264.00,92.58
1263.00,92.46
1262.00,92.36
1261.00,92.28
1260.00,92.20
1259.00,92.12
1258.00,92.03
1257.00,91.94
1256.00,91.84
1255.00,91.75
1254.00,91.67
1253.00,91.59
1252.00,91.52
1251.00,91.44
1250.00,91.36
1249.00,91.28
1248.00,91.19
1247.00,91.11
1246.00,91.04
1245.00,90.99
1244.00,90.93
1243.00,90.89
1242.00,90.85
1241.00,90.83
1240.00,90.82
1239.00,90.82
1238.00,90.83
1237.00,90.85
1236.00,90.86
1235.00,90.87
1234.00,90.89
1233.00,90.92
1232.00,90.95
1231.00,91.00
1230.00,91.06
1229.00,91.15
1228.00,91.25
1227.00,91.35
1226.00,91.46
1225.00,91.58
1224.00,91.70
1223.00,91.83
1222.00,91.96
1221.00,92.07
1220.00,92.19
1219.00,92.33
1218.00,92.50
1217.00,92.66
1216.00,92.81
1215.00,92.94
1214.00,93.07
1213.00,93.18
1212.00,93.28
1211.00,93.37
1210.00,93.46
1209.00,93.53
1208.00,93.60
1207.00,93.65
1206.00,93.69
1205.00,93.71
1204.00,93.73
1203.00,93.78
1202.00,93.86
1201.00,93.97
1200.00,94.09
1199.00,94.22
1198.00,94.34
1197.00,94.45
1196.00,94.55
1195.00,94.65
1194.00,94.74
1193.00,94.82
1192.00,94.91
1191.00,94.99
1190.00,95.05
1189.00,95.09
1188.00,95.12
1187.00,95.13
1186.00,95.13
1185.00,95.12
1184.00,95.08
1183.00,95.03
1182.00,94.96
1181.00,94.89
1180.00,94.80
1179.00,94.68
1178.00,94.54
1177.00,94.38
1176.00,94.20
1175.00,94.00
1174.00,93.79
1173.00,93.57
1172.00,93.33
1171.00,93.07
1170.00,92.77
1169.00,92.45
1168.00,92.14
1167.00,91.86
1166.00,91.60
1165.00,91.38
1164.00,91.18
1163.00,91.00
1162.00,90.84
1161.00,90.71
1160.00,90.63
1159.00,90.62
1158.00,90.64
1157.00,90.66
1156.00,90.68
1155.00,90.70
1154.00,90.74
1153.00,90.79
1152.00,90.87
1151.00,90.94
1150.00,91.01
1149.00,91.07
1148.00,91.11
1147.00,91.16
1146.00,91.22
1145.00,91.27
1144.00,91.31
1143.00,91.34
1142.00,91.34
1141.00,91.31
1140.00,91.26
1139.00,91.21
1138.00,91.14
1137.00,91.04
1136.00,90.89
1135.00,90.69
1134.00,90.46
1133.00,90.20
1132.00,89.94
1131.00,89.68
1130.00,89.44
1129.00,89.19
1128.00,88.94
1127.00,88.69
1126.00,88.45
1125.00,88.20
1124.00,87.96
1123.00,87.74
1122.00,87.55
1121.00,87.37
1120.00,87.21
1119.00,87.04
1118.00,86.87
1117.00,86.66
1116.00,86.42
1115.00,86.16
1114.00,85.91
1113.00,85.69
1112.00,85.48
1111.00,85.29
1110.00,85.12
1109.00,84.96
1108.00,84.79
1107.00,84.62
1106.00,84.47
1105.00,84.34
1104.00,84.24
1103.00,84.15
1102.00,84.09
1101.00,84.05
1100.00,84.03
1099.00,84.04
1098.00,84.05
1097.00,84.05
1096.00,84.06
1095.00,84.07
1094.00,84.11
1093.00,84.13
1092.00,84.14
1091.00,84.14
1090.00,84.13
1089.00,84.11
1088.00,84.07
1087.00,84.02
1086.00,83.95
1085.00,83.87
1084.00,83.79
1083.00,83.69
1082.00,83.59
1081.00,83.47
1080.00,83.33
1079.00,83.20
1078.00,83.06
1077.00,82.91
1076.00,82.74
1075.00,82.57
1074.00,82.42
1073.00,82.27
1072.00,82.11
1071.00,81.94
1070.00,81.75
1069.00,81.51
1068.00,81.25
1067.00,80.98
1066.00,80.70
1065.00,80.41
1064.00,80.10
1063.00,79.78
1062.00,79.45
1061.00,79.11
1060.00,78.80
1059.00,78.52
1058.00,78.28
1057.00,78.04
1056.00,77.82
1055.00,77.62
1054.00,77.45
1053.00,77.30
1052.00,77.13
1051.00,76.95
1050.00,76.79
1049.00,76.65
1048.00,76.55
1047.00,76.49
1046.00,76.44
1045.00,76.38
1044.00,76.30
1043.00,76.21
1042.00,76.11
1041.00,75.97
1040.00,75.77
1039.00,75.53
1038.00,75.29
1037.00,75.07
1036.00,74.88
1035.00,74.71
1034.00,74.56
1033.00,74.41
1032.00,74.27
1031.00,74.16
1030.00,74.11
1029.00,74.10
1028.00,74.11
1027.00,74.15
1026.00,74.22
1025.00,74.31
1024.00,74.39
1023.00,74.48
1022.00,74.57
1021.00,74.64
1020.00,74.71
1019.00,74.78
1018.00,74.86
1017.00,74.93
1016.00,75.02
1015.00,75.12
1014.00,75.23
1013.00,75.32
1012.00,75.39
1011.00,75.45
1010.00,75.50
1009.00,75.56
1008.00,75.62
1007.00,75.67
1006.00,75.71
1005.00,75.75
1004.00,75.80
1003.00,75.90
1002.00,76.03
1001.00,76.16
1000.00,76.29
999.00,76.43
998.00,76.57
997.00,76.70
996.00,76.83
995.00,76.96
994.00,77.08
993.00,77.17
992.00,77.23
991.00,77.28
990.00,77.31
989.00,77.34
988.00,77.40
987.00,77.50
986.00,77.64
985.00,77.80
984.00,77.99
983.00,78.21
982.00,78.48
981.00,78.78
980.00,79.09
979.00,79.42
978.00,79.75
977.00,80.07
976.00,80.40
975.00,80.74
974.00,81.07
973.00,81.37
972.00,81.64
971.00,81.91
970.00,82.17
969.00,82.41
968.00,82.63
967.00,82.85
966.00,83.07
965.00,83.29
964.00,83.51
963.00,83.73
962.00,83.96
961.00,84.19
960.00,84.41
959.00,84.64
958.00,84.89
957.00,85.14
956.00,85.38
955.00,85.62
954.00,85.85
953.00,86.06
952.00,86.27
951.00,86.48
950.00,86.70
949.00,86.92
948.00,87.13
947.00,87.33
946.00,87.53
945.00,87.72
944.00,87.89
943.00,88.05
942.00,88.19
941.00,88.32
940.00,88.43
939.00,88.54
938.00,88.65
937.00,88.75
936.00,88.82
935.00,88.88
934.00,88.95
933.00,89.01
932.00,89.08
931.00,89.13
930.00,89.18
929.00,89.24
928.00,89.33
927.00,89.42
926.00,89.50
925.00,89.56
924.00,89.59
923.00,89.61
922.00,89.62
921.00,89.64
920.00,89.65
919.00,89.66
918.00,89.66
917.00,89.65
916.00,89.64
915.00,89.63
914.00,89.62
913.00,89.62
912.00,89.62
911.00,89.62
910.00,89.62
909.00,89.61
908.00,89.60
907.00,89.61
906.00,89.60
905.00,89.55
904.00,89.49
903.00,89.43
902.00,89.39
901.00,89.35
900.00,89.30
899.00,89.26
898.00,89.22
897.00,89.23
896.00,89.28
895.00,89.38
894.00,89.52
893.00,89.66
892.00,89.79
891.00,89.91
890.00,90.03
889.00,90.14
888.00,90.24
887.00,90.35
886.00,90.50
885.00,90.66
884.00,90.81
883.00,90.95
882.00,91.06
881.00,91.15
880.00,91.25
879.00,91.35
878.00,91.46
877.00,91.54
876.00,91.60
875.00,91.64
874.00,91.70
873.00,91.76
872.00,91.84
871.00,91.93
870.00,92.03
869.00,92.14
868.00,92.23
867.00,92.31
866.00,92.37
865.00,92.42
864.00,92.49
863.00,92.56
862.00,92.63
861.00,92.68
860.00,92.71
859.00,92.76
858.00,92.80
857.00,92.84
856.00,92.86
855.00,92.88
854.00,92.89
853.00,92.91
852.00,92.92
851.00,92.93
850.00,92.91
849.00,92.87
848.00,92.85
847.00,92.85
846.00,92.86
845.00,92.86
844.00,92.85
843.00,92.85
842.00,92.84
841.00,92.82
840.00,92.78
839.00,92.75
838.00,92.75
837.00,92.77
836.00,92.78
835.00,92.77
834.00,92.74
833.00,92.69
832.00,92.66
831.00,92.65
830.00,92.66
829.00,92.68
828.00,92.69
827.00,92.67
826.00,92.65
825.00,92.64
824.00,92.67
823.00,92.72
822.00,92.77
821.00,92.80
820.00,92.80
819.00,92.78
818.00,92.75
817.00,92.74
816.00,92.75
815.00,92.78
814.00,92.80
813.00,92.80
812.00,92.78
811.00,92.77
810.00,92.76
809.00,92.75
808.00,92.74
807.00,92.72
806.00,92.67
805.00,92.60
804.00,92.52
803.00,92.46
802.00,92.42
801.00,92.39
800.00,92.35
799.00,92.30
798.00,92.25
797.00,92.23
796.00,92.23
795.00,92.25
794.00,92.28
793.00,92.30
792.00,92.31
791.00,92.33
790.00,92.34
789.00,92.34
788.00,92.33
787.00,92.31
786.00,92.29
785.00,92.24
784.00,92.16
783.00,92.07
782.00,92.01
781.00,91.98
780.00,91.98
779.00,91.97
778.00,91.97
777.00,91.97
776.00,92.01
775.00,92.07
774.00,92.09
773.00,92.06
772.00,92.00
771.00,91.95
770.00,91.93
769.00,91.94
768.00,91.95
767.00,91.96
766.00,91.93
765.00,91.89
764.00,91.84
763.00,91.80
762.00,91.76
761.00,91.70
760.00,91.64
759.00,91.59
758.00,91.55
757.00,91.51
756.00,91.46
755.00,91.42
754.00,91.39
753.00,91.34
752.00,91.28
751.00,91.25
750.00,91.25
749.00,91.27
748.00,91.26
747.00,91.21
746.00,91.13
745.00,91.05
744.00,90.97
743.00,90.92
742.00,90.89
741.00,90.89
740.00,90.89
739.00,90.87
738.00,90.81
737.00,90.70
736.00,90.60
735.00,90.53
734.00,90.51
733.00,90.48
732.00,90.43
731.00,90.37
730.00,90.32
729.00,90.26
728.00,90.17
727.00,90.05
726.00,89.94
725.00,89.85
724.00,89.78
723.00,89.73
722.00,89.69
721.00,89.64
720.00,89.58
719.00,89.50
718.00,89.40
717.00,89.27
716.00,89.15
715.00,89.08
714.00,89.04
713.00,88.99
712.00,88.93
711.00,88.86
710.00,88.79
709.00,88.70
708.00,88.60
707.00,88.53
706.00,88.47
705.00,88.41
704.00,88.30
703.00,88.18
702.00,88.07
701.00,87.99
700.00,87.91
699.00,87.86
698.00,87.85
697.00,87.85
696.00,87.85
695.00,87.82
694.00,87.78
693.00,87.72
692.00,87.67
691.00,87.62
690.00,87.58
689.00,87.52
688.00,87.45
687.00,87.43
686.00,87.47
685.00,87.51
684.00,87.47
683.00,87.36
682.00,87.22
681.00,87.09
680.00,86.98
679.00,86.86
678.00,86.70
677.00,86.47
676.00,86.23
675.00,86.00
674.00,85.81
673.00,85.61
672.00,85.42
671.00,85.28
670.00,85.21
669.00,85.14
668.00,84.96
667.00,84.71
666.00,84.51
665.00,84.36
664.00,84.22
663.00,84.13
662.00,84.14
661.00,84.22
660.00,84.31
659.00,84.42
658.00,84.53
657.00,84.65
656.00,84.76
655.00,84.85
654.00,84.91
653.00,84.93
652.00,84.88
651.00,84.80
650.00,84.71
649.00,84.63
648.00,84.58
647.00,84.57
646.00,84.57
645.00,84.54
644.00,84.49
643.00,84.47
642.00,84.52
641.00,84.59
640.00,84.61
639.00,84.55
638.00,84.42
637.00,84.25
636.00,84.07
635.00,83.94
634.00,83.87
633.00,83.79
632.00,83.64
631.00,83.44
630.00,83.24
629.00,83.05
628.00,82.90
627.00,82.82
626.00,82.85
625.00,82.93
624.00,83.03
623.00,83.14
622.00,83.26
621.00,83.31
620.00,83.24
619.00,83.11
618.00,82.93
617.00,82.72
616.00,82.53
615.00,82.47
614.00,82.52
613.00,82.47
612.00,82.20
611.00,81.81
610.00,81.51
609.00,81.37
608.00,81.37
607.00,81.46
606.00,81.55
605.00,81.54
604.00,81.48
603.00,81.54
602.00,81.75
601.00,81.95
600.00,81.96
599.00,81.83
598.00,81.71
597.00,81.70
596.00,81.77
595.00,81.82
594.00,81.73
593.00,81.45
592.00,81.11
591.00,80.88
590.00,80.79
589.00,80.71
588.00,80.60
587.00,80.61
586.00,80.81
585.00,81.01
584.00,81.03
583.00,80.88
582.00,80.69
581.00,80.49
580.00,80.33
579.00,80.33
578.00,80.53
577.00,80.78
576.00,80.98
575.00,81.18
574.00,81.39
573.00,81.50
572.00,81.44
571.00,81.24
570.00,80.92
569.00,80.57
568.00,80.39
567.00,80.45
566.00,80.45
565.00,80.08
564.00,79.50
563.00,79.09
562.00,78.85
561.00,78.45
560.00,77.92
559.00,77.71
558.00,77.97
557.00,78.30
556.00,78.30
555.00,78.03
554.00,77.64
553.00,77.20
552.00,76.82
551.00,76.71
550.00,76.75
