Created as New Dataset,Bio-Couture 20/2 Linen (NC)
cm-1,%T
4000.00,100.72
3999.00,100.71
3998.00,100.71
3997.00,100.71
3996.00,100.71
3995.00,100.72
3994.00,100.73
3993.00,100.74
3992.00,100.73
3991.00,100.72
3990.00,100.70
3989.00,100.68
3988.00,100.67
3987.00,100.67
3986.00,100.66
3985.00,100.65
3984.00,100.65
3983.00,100.66
3982.00,100.67
3981.00,100.69
3980.00,100.69
3979.00,100.69
3978.00,100.68
3977.00,100.67
3976.00,100.67
3975.00,100.68
3974.00,100.70
3973.00,100.70
3972.00,100.70
3971.00,100.70
3970.00,100.71
3969.00,100.72
3968.00,100.74
3967.00,100.75
3966.00,100.74
3965.00,100.72
3964.00,100.70
3963.00,100.69
3962.00,100.69
3961.00,100.70
3960.00,100.71
3959.00,100.72
3958.00,100.72
3957.00,100.71
3956.00,100.70
3955.00,100.70
3954.00,100.70
3953.00,100.70
3952.00,100.72
3951.00,100.74
3950.00,100.77
3949.00,100.79
3948.00,100.79
3947.00,100.77
3946.00,100.74
3945.00,100.71
3944.00,100.68
3943.00,100.66
3942.00,100.65
3941.00,100.65
3940.00,100.67
3939.00,100.69
3938.00,100.70
3937.00,100.72
3936.00,100.73
3935.00,100.73
3934.00,100.73
3933.00,100.73
3932.00,100.73
3931.00,100.73
3930.00,100.74
3929.00,100.74
3928.00,100.75
3927.00,100.76
3926.00,100.75
3925.00,100.73
3924.00,100.69
3923.00,100.66
3922.00,100.64
3921.00,100.63
3920.00,100.65
3919.00,100.68
3918.00,100.71
3917.00,100.74
3916.00,100.74
3915.00,100.74
3914.00,100.73
3913.00,100.72
3912.00,100.72
3911.00,100.72
3910.00,100.72
3909.00,100.72
3908.00,100.72
3907.00,100.72
3906.00,100.70
3905.00,100.70
3904.00,100.70
3903.00,100.71
3902.00,100.72
3901.00,100.72
3900.00,100.71
3899.00,100.71
3898.00,100.72
3897.00,100.74
3896.00,100.77
3895.00,100.78
3894.00,100.77
3893.00,100.74
3892.00,100.71
3891.00,100.69
3890.00,100.68
3889.00,100.69
3888.00,100.69
3887.00,100.70
3886.00,100.69
3885.00,100.68
3884.00,100.67
3883.00,100.66
3882.00,100.66
3881.00,100.66
3880.00,100.66
3879.00,100.65
3878.00,100.65
3877.00,100.66
3876.00,100.67
3875.00,100.68
3874.00,100.69
3873.00,100.69
3872.00,100.68
3871.00,100.67
3870.00,100.66
3869.00,100.65
3868.00,100.66
3867.00,100.67
3866.00,100.68
3865.00,100.69
3864.00,100.69
3863.00,100.68
3862.00,100.67
3861.00,100.67
3860.00,100.67
3859.00,100.68
3858.00,100.69
3857.00,100.71
3856.00,100.73
3855.00,100.74
3854.00,100.74
3853.00,100.75
3852.00,100.76
3851.00,100.76
3850.00,100.76
3849.00,100.74
3848.00,100.73
3847.00,100.72
3846.00,100.73
3845.00,100.74
3844.00,100.76
3843.00,100.76
3842.00,100.76
3841.00,100.75
3840.00,100.75
3839.00,100.75
3838.00,100.74
3837.00,100.73
3836.00,100.72
3835.00,100.71
3834.00,100.70
3833.00,100.70
3832.00,100.69
3831.00,100.69
3830.00,100.68
3829.00,100.67
3828.00,100.65
3827.00,100.63
3826.00,100.63
3825.00,100.63
3824.00,100.64
3823.00,100.64
3822.00,100.63
3821.00,100.62
3820.00,100.62
3819.00,100.63
3818.00,100.65
3817.00,100.67
3816.00,100.70
3815.00,100.72
3814.00,100.71
3813.00,100.68
3812.00,100.64
3811.00,100.62
3810.00,100.61
3809.00,100.63
3808.00,100.65
3807.00,100.66
3806.00,100.67
3805.00,100.68
3804.00,100.69
3803.00,100.71
3802.00,100.72
3801.00,100.71
3800.00,100.69
3799.00,100.65
3798.00,100.62
3797.00,100.61
3796.00,100.61
3795.00,100.64
3794.00,100.67
3793.00,100.68
3792.00,100.68
3791.00,100.66
3790.00,100.64
3789.00,100.63
3788.00,100.63
3787.00,100.63
3786.00,100.63
3785.00,100.63
3784.00,100.62
3783.00,100.62
3782.00,100.62
3781.00,100.62
3780.00,100.62
3779.00,100.62
3778.00,100.62
3777.00,100.61
3776.00,100.60
3775.00,100.59
3774.00,100.59
3773.00,100.58
3772.00,100.59
3771.00,100.59
3770.00,100.58
3769.00,100.57
3768.00,100.54
3767.00,100.53
3766.00,100.53
3765.00,100.55
3764.00,100.58
3763.00,100.60
3762.00,100.60
3761.00,100.60
3760.00,100.61
3759.00,100.64
3758.00,100.66
3757.00,100.66
3756.00,100.63
3755.00,100.59
3754.00,100.55
3753.00,100.53
3752.00,100.52
3751.00,100.53
3750.00,100.55
3749.00,100.58
3748.00,100.59
3747.00,100.60
3746.00,100.60
3745.00,100.60
3744.00,100.61
3743.00,100.61
3742.00,100.61
3741.00,100.60
3740.00,100.60
3739.00,100.60
3738.00,100.61
3737.00,100.63
3736.00,100.64
3735.00,100.64
3734.00,100.63
3733.00,100.61
3732.00,100.60
3731.00,100.61
3730.00,100.63
3729.00,100.64
3728.00,100.64
3727.00,100.64
3726.00,100.62
3725.00,100.61
3724.00,100.59
3723.00,100.58
3722.00,100.58
3721.00,100.56
3720.00,100.54
3719.00,100.52
3718.00,100.50
3717.00,100.48
3716.00,100.48
3715.00,100.48
3714.00,100.49
3713.00,100.50
3712.00,100.53
3711.00,100.56
3710.00,100.58
3709.00,100.59
3708.00,100.58
3707.00,100.56
3706.00,100.53
3705.00,100.51
3704.00,100.50
3703.00,100.51
3702.00,100.52
3701.00,100.52
3700.00,100.50
3699.00,100.47
3698.00,100.43
3697.00,100.41
3696.00,100.40
3695.00,100.41
3694.00,100.44
3693.00,100.46
3692.00,100.48
3691.00,100.48
3690.00,100.49
3689.00,100.51
3688.00,100.53
3687.00,100.53
3686.00,100.51
3685.00,100.48
3684.00,100.46
3683.00,100.45
3682.00,100.44
3681.00,100.44
3680.00,100.45
3679.00,100.46
3678.00,100.47
3677.00,100.47
3676.00,100.45
3675.00,100.42
3674.00,100.39
3673.00,100.37
3672.00,100.36
3671.00,100.35
3670.00,100.34
3669.00,100.34
3668.00,100.34
3667.00,100.32
3666.00,100.30
3665.00,100.29
3664.00,100.30
3663.00,100.30
3662.00,100.30
3661.00,100.29
3660.00,100.26
3659.00,100.25
3658.00,100.25
3657.00,100.25
3656.00,100.26
3655.00,100.26
3654.00,100.26
3653.00,100.25
3652.00,100.24
3651.00,100.24
3650.00,100.23
3649.00,100.21
3648.00,100.19
3647.00,100.18
3646.00,100.17
3645.00,100.16
3644.00,100.14
3643.00,100.11
3642.00,100.09
3641.00,100.09
3640.00,100.09
3639.00,100.08
3638.00,100.07
3637.00,100.05
3636.00,100.03
3635.00,100.02
3634.00,100.02
3633.00,100.02
3632.00,100.02
3631.00,99.99
3630.00,99.94
3629.00,99.90
3628.00,99.90
3627.00,99.91
3626.00,99.92
3625.00,99.91
3624.00,99.89
3623.00,99.87
3622.00,99.86
3621.00,99.87
3620.00,99.86
3619.00,99.84
3618.00,99.81
3617.00,99.79
3616.00,99.79
3615.00,99.79
3614.00,99.78
3613.00,99.75
3612.00,99.72
3611.00,99.70
3610.00,99.68
3609.00,99.65
3608.00,99.62
3607.00,99.61
3606.00,99.60
3605.00,99.62
3604.00,99.63
3603.00,99.63
3602.00,99.61
3601.00,99.57
3600.00,99.53
3599.00,99.49
3598.00,99.46
3597.00,99.43
3596.00,99.40
3595.00,99.39
3594.00,99.37
3593.00,99.36
3592.00,99.33
3591.00,99.30
3590.00,99.26
3589.00,99.23
3588.00,99.22
3587.00,99.23
3586.00,99.25
3585.00,99.26
3584.00,99.24
3583.00,99.20
3582.00,99.15
3581.00,99.10
3580.00,99.06
3579.00,99.04
3578.00,99.04
3577.00,99.03
3576.00,99.02
3575.00,98.99
3574.00,98.95
3573.00,98.91
3572.00,98.87
3571.00,98.85
3570.00,98.84
3569.00,98.84
3568.00,98.84
3567.00,98.83
3566.00,98.81
3565.00,98.79
3564.00,98.77
3563.00,98.74
3562.00,98.70
3561.00,98.65
3560.00,98.60
3559.00,98.57
3558.00,98.54
3557.00,98.53
3556.00,98.52
3555.00,98.51
3554.00,98.51
3553.00,98.49
3552.00,98.46
3551.00,98.43
3550.00,98.41
3549.00,98.39
3548.00,98.37
3547.00,98.35
3546.00,98.32
3545.00,98.30
3544.00,98.26
3543.00,98.21
3542.00,98.15
3541.00,98.09
3540.00,98.04
3539.00,98.01
3538.00,97.99
3537.00,97.97
3536.00,97.96
3535.00,97.96
3534.00,97.94
3533.00,97.93
3532.00,97.91
3531.00,97.89
3530.00,97.87
3529.00,97.84
3528.00,97.81
3527.00,97.76
3526.00,97.71
3525.00,97.67
3524.00,97.64
3523.00,97.60
3522.00,97.56
3521.00,97.53
3520.00,97.51
3519.00,97.51
3518.00,97.51
3517.00,97.50
3516.00,97.47
3515.00,97.43
3514.00,97.39
3513.00,97.35
3512.00,97.31
3511.00,97.28
3510.00,97.25
3509.00,97.23
3508.00,97.22
3507.00,97.20
3506.00,97.16
3505.00,97.10
3504.00,97.05
3503.00,97.02
3502.00,97.00
3501.00,96.97
3500.00,96.93
3499.00,96.87
3498.00,96.82
3497.00,96.78
3496.00,96.75
3495.00,96.72
3494.00,96.68
3493.00,96.64
3492.00,96.61
3491.00,96.58
3490.00,96.56
3489.00,96.54
3488.00,96.51
3487.00,96.47
3486.00,96.43
3485.00,96.40
3484.00,96.37
3483.00,96.35
3482.00,96.32
3481.00,96.29
3480.00,96.26
3479.00,96.22
3478.00,96.18
3477.00,96.13
3476.00,96.08
3475.00,96.04
3474.00,96.00
3473.00,95.96
3472.00,95.91
3471.00,95.88
3470.00,95.86
3469.00,95.86
3468.00,95.84
3467.00,95.81
3466.00,95.75
3465.00,95.69
3464.00,95.65
3463.00,95.63
3462.00,95.60
3461.00,95.56
3460.00,95.51
3459.00,95.45
3458.00,95.40
3457.00,95.36
3456.00,95.32
3455.00,95.27
3454.00,95.22
3453.00,95.18
3452.00,95.13
3451.00,95.07
3450.00,95.01
3449.00,94.96
3448.00,94.90
3447.00,94.86
3446.00,94.83
3445.00,94.80
3444.00,94.77
3443.00,94.75
3442.00,94.73
3441.00,94.71
3440.00,94.68
3439.00,94.63
3438.00,94.58
3437.00,94.53
3436.00,94.48
3435.00,94.43
3434.00,94.39
3433.00,94.35
3432.00,94.31
3431.00,94.28
3430.00,94.24
3429.00,94.21
3428.00,94.16
3427.00,94.09
3426.00,94.02
3425.00,93.94
3424.00,93.86
3423.00,93.81
3422.00,93.77
3421.00,93.74
3420.00,93.71
3419.00,93.69
3418.00,93.64
3417.00,93.58
3416.00,93.51
3415.00,93.45
3414.00,93.40
3413.00,93.35
3412.00,93.31
3411.00,93.27
3410.00,93.25
3409.00,93.22
3408.00,93.19
3407.00,93.14
3406.00,93.10
3405.00,93.05
3404.00,93.00
3403.00,92.95
3402.00,92.91
3401.00,92.87
3400.00,92.84
3399.00,92.81
3398.00,92.78
3397.00,92.76
3396.00,92.73
3395.00,92.69
3394.00,92.66
3393.00,92.63
3392.00,92.60
3391.00,92.58
3390.00,92.56
3389.00,92.54
3388.00,92.52
3387.00,92.48
3386.00,92.43
3385.00,92.37
3384.00,92.32
3383.00,92.27
3382.00,92.24
3381.00,92.21
3380.00,92.19
3379.00,92.18
3378.00,92.16
3377.00,92.14
3376.00,92.10
3375.00,92.06
3374.00,92.01
3373.00,91.95
3372.00,91.90
3371.00,91.87
3370.00,91.83
3369.00,91.79
3368.00,91.74
3367.00,91.69
3366.00,91.65
3365.00,91.62
3364.00,91.59
3363.00,91.55
3362.00,91.50
3361.00,91.45
3360.00,91.40
3359.00,91.35
3358.00,91.30
3357.00,91.25
3356.00,91.20
3355.00,91.14
3354.00,91.09
3353.00,91.06
3352.00,91.03
3351.00,91.00
3350.00,90.95
3349.00,90.90
3348.00,90.86
3347.00,90.84
3346.00,90.82
3345.00,90.79
3344.00,90.76
3343.00,90.72
3342.00,90.69
3341.00,90.67
3340.00,90.67
3339.00,90.67
3338.00,90.67
3337.00,90.68
3336.00,90.68
3335.00,90.69
3334.00,90.69
3333.00,90.70
3332.00,90.72
3331.00,90.73
3330.00,90.74
3329.00,90.74
3328.00,90.76
3327.00,90.79
3326.00,90.84
3325.00,90.89
3324.00,90.93
3323.00,90.94
3322.00,90.95
3321.00,90.96
3320.00,90.97
3319.00,90.99
3318.00,91.00
3317.00,91.01
3316.00,91.03
3315.00,91.05
3314.00,91.08
3313.00,91.10
3312.00,91.10
3311.00,91.08
3310.00,91.06
3309.00,91.04
3308.00,91.04
3307.00,91.04
3306.00,91.03
3305.00,91.01
3304.00,90.98
3303.00,90.96
3302.00,90.95
3301.00,90.95
3300.00,90.95
3299.00,90.94
3298.00,90.94
3297.00,90.93
3296.00,90.93
3295.00,90.93
3294.00,90.94
3293.00,90.95
3292.00,90.96
3291.00,90.96
3290.00,90.96
3289.00,90.99
3288.00,91.02
3287.00,91.04
3286.00,91.04
3285.00,91.03
3284.00,91.02
3283.00,91.03
3282.00,91.06
3281.00,91.08
3280.00,91.09
3279.00,91.09
3278.00,91.12
3277.00,91.16
3276.00,91.20
3275.00,91.25
3274.00,91.29
3273.00,91.33
3272.00,91.38
3271.00,91.44
3270.00,91.50
3269.00,91.54
3268.00,91.58
3267.00,91.63
3266.00,91.68
3265.00,91.73
3264.00,91.78
3263.00,91.82
3262.00,91.86
3261.00,91.90
3260.00,91.95
3259.00,92.00
3258.00,92.05
3257.00,92.11
3256.00,92.17
3255.00,92.23
3254.00,92.29
3253.00,92.34
3252.00,92.39
3251.00,92.44
3250.00,92.50
3249.00,92.56
3248.00,92.61
3247.00,92.65
3246.00,92.68
3245.00,92.70
3244.00,92.73
3243.00,92.77
3242.00,92.81
3241.00,92.85
3240.00,92.90
3239.00,92.95
3238.00,93.00
3237.00,93.05
3236.00,93.10
3235.00,93.14
3234.00,93.18
3233.00,93.22
3232.00,93.26
3231.00,93.31
3230.00,93.35
3229.00,93.38
3228.00,93.39
3227.00,93.40
3226.00,93.42
3225.00,93.46
3224.00,93.52
3223.00,93.58
3222.00,93.64
3221.00,93.69
3220.00,93.74
3219.00,93.79
3218.00,93.83
3217.00,93.87
3216.00,93.90
3215.00,93.93
3214.00,93.98
3213.00,94.03
3212.00,94.10
3211.00,94.16
3210.00,94.22
3209.00,94.27
3208.00,94.30
3207.00,94.31
3206.00,94.33
3205.00,94.36
3204.00,94.41
3203.00,94.46
3202.00,94.51
3201.00,94.54
3200.00,94.56
3199.00,94.58
3198.00,94.62
3197.00,94.66
3196.00,94.72
3195.00,94.76
3194.00,94.79
3193.00,94.82
3192.00,94.86
3191.00,94.91
3190.00,94.95
3189.00,94.99
3188.00,95.01
3187.00,95.04
3186.00,95.06
3185.00,95.09
3184.00,95.11
3183.00,95.14
3182.00,95.17
3181.00,95.21
3180.00,95.24
3179.00,95.28
3178.00,95.31
3177.00,95.35
3176.00,95.39
3175.00,95.42
3174.00,95.45
3173.00,95.48
3172.00,95.51
3171.00,95.53
3170.00,95.55
3169.00,95.58
3168.00,95.62
3167.00,95.68
3166.00,95.75
3165.00,95.81
3164.00,95.86
3163.00,95.90
3162.00,95.92
3161.00,95.93
3160.00,95.93
3159.00,95.94
3158.00,95.96
3157.00,95.99
3156.00,96.02
3155.00,96.06
3154.00,96.10
3153.00,96.13
3152.00,96.17
3151.00,96.20
3150.00,96.22
3149.00,96.23
3148.00,96.24
3147.00,96.25
3146.00,96.27
3145.00,96.30
3144.00,96.33
3143.00,96.36
3142.00,96.38
3141.00,96.41
3140.00,96.45
3139.00,96.48
3138.00,96.51
3137.00,96.53
3136.00,96.54
3135.00,96.56
3134.00,96.58
3133.00,96.62
3132.00,96.66
3131.00,96.69
3130.00,96.70
3129.00,96.71
3128.00,96.72
3127.00,96.74
3126.00,96.78
3125.00,96.82
3124.00,96.85
3123.00,96.88
3122.00,96.89
3121.00,96.90
3120.00,96.91
3119.00,96.93
3118.00,96.96
3117.00,96.98
3116.00,96.99
3115.00,97.00
3114.00,97.02
3113.00,97.05
3112.00,97.09
3111.00,97.13
3110.00,97.16
3109.00,97.18
3108.00,97.19
3107.00,97.20
3106.00,97.22
3105.00,97.24
3104.00,97.27
3103.00,97.30
3102.00,97.32
3101.00,97.34
3100.00,97.36
3099.00,97.37
3098.00,97.38
3097.00,97.39
3096.00,97.41
3095.00,97.44
3094.00,97.48
3093.00,97.50
3092.00,97.52
3091.00,97.53
3090.00,97.55
3089.00,97.56
3088.00,97.57
3087.00,97.58
3086.00,97.59
3085.00,97.61
3084.00,97.62
3083.00,97.63
3082.00,97.64
3081.00,97.65
3080.00,97.66
3079.00,97.68
3078.00,97.71
3077.00,97.74
3076.00,97.79
3075.00,97.82
3074.00,97.85
3073.00,97.85
3072.00,97.85
3071.00,97.86
3070.00,97.89
3069.00,97.92
3068.00,97.96
3067.00,97.99
3066.00,98.00
3065.00,98.01
3064.00,98.01
3063.00,97.99
3062.00,97.97
3061.00,97.96
3060.00,97.97
3059.00,97.99
3058.00,98.01
3057.00,98.04
3056.00,98.06
3055.00,98.09
3054.00,98.11
3053.00,98.14
3052.00,98.15
3051.00,98.14
3050.00,98.13
3049.00,98.13
3048.00,98.14
3047.00,98.16
3046.00,98.19
3045.00,98.21
3044.00,98.23
3043.00,98.25
3042.00,98.27
3041.00,98.29
3040.00,98.29
3039.00,98.29
3038.00,98.28
3037.00,98.28
3036.00,98.29
3035.00,98.30
3034.00,98.31
3033.00,98.32
3032.00,98.33
3031.00,98.34
3030.00,98.36
3029.00,98.37
3028.00,98.38
3027.00,98.39
3026.00,98.40
3025.00,98.42
3024.00,98.42
3023.00,98.42
3022.00,98.42
3021.00,98.43
3020.00,98.45
3019.00,98.48
3018.00,98.50
3017.00,98.52
3016.00,98.52
3015.00,98.53
3014.00,98.54
3013.00,98.54
3012.00,98.54
3011.00,98.52
3010.00,98.50
3009.00,98.49
3008.00,98.50
3007.00,98.52
3006.00,98.54
3005.00,98.55
3004.00,98.55
3003.00,98.55
3002.00,98.55
3001.00,98.54
3000.00,98.54
2999.00,98.54
2998.00,98.55
2997.00,98.55
2996.00,98.56
2995.00,98.57
2994.00,98.56
2993.00,98.55
2992.00,98.54
2991.00,98.54
2990.00,98.55
2989.00,98.55
2988.00,98.55
2987.00,98.54
2986.00,98.54
2985.00,98.53
2984.00,98.53
2983.00,98.52
2982.00,98.51
2981.00,98.48
2980.00,98.45
2979.00,98.41
2978.00,98.38
2977.00,98.35
2976.00,98.33
2975.00,98.30
2974.00,98.26
2973.00,98.21
2972.00,98.16
2971.00,98.11
2970.00,98.08
2969.00,98.06
2968.00,98.04
2967.00,98.02
2966.00,98.00
2965.00,97.98
2964.00,97.95
2963.00,97.91
2962.00,97.87
2961.00,97.83
2960.00,97.79
2959.00,97.76
2958.00,97.72
2957.00,97.68
2956.00,97.65
2955.00,97.62
2954.00,97.59
2953.00,97.55
2952.00,97.50
2951.00,97.44
2950.00,97.37
2949.00,97.31
2948.00,97.26
2947.00,97.20
2946.00,97.15
2945.00,97.12
2944.00,97.09
2943.00,97.07
2942.00,97.05
2941.00,97.02
2940.00,96.98
2939.00,96.94
2938.00,96.90
2937.00,96.85
2936.00,96.80
2935.00,96.76
2934.00,96.73
2933.00,96.69
2932.00,96.64
2931.00,96.57
2930.00,96.49
2929.00,96.41
2928.00,96.33
2927.00,96.24
2926.00,96.14
2925.00,96.04
2924.00,95.93
2923.00,95.83
2922.00,95.73
2921.00,95.63
2920.00,95.53
2919.00,95.45
2918.00,95.39
2917.00,95.35
2916.00,95.34
2915.00,95.36
2914.00,95.39
2913.00,95.43
2912.00,95.46
2911.00,95.46
2910.00,95.44
2909.00,95.42
2908.00,95.41
2907.00,95.42
2906.00,95.41
2905.00,95.40
2904.00,95.38
2903.00,95.36
2902.00,95.34
2901.00,95.32
2900.00,95.32
2899.00,95.33
2898.00,95.35
2897.00,95.37
2896.00,95.39
2895.00,95.40
2894.00,95.41
2893.00,95.43
2892.00,95.45
2891.00,95.49
2890.00,95.53
2889.00,95.58
2888.00,95.63
2887.00,95.68
2886.00,95.73
2885.00,95.77
2884.00,95.82
2883.00,95.85
2882.00,95.89
2881.00,95.91
2880.00,95.94
2879.00,95.96
2878.00,95.97
2877.00,95.98
2876.00,95.99
2875.00,95.99
2874.00,96.00
2873.00,96.00
2872.00,96.00
2871.00,96.01
2870.00,96.02
2869.00,96.05
2868.00,96.09
2867.00,96.13
2866.00,96.17
2865.00,96.19
2864.00,96.20
2863.00,96.21
2862.00,96.22
2861.00,96.24
2860.00,96.25
2859.00,96.27
2858.00,96.27
2857.00,96.26
2856.00,96.23
2855.00,96.19
2854.00,96.15
2853.00,96.12
2852.00,96.11
2851.00,96.13
2850.00,96.18
2849.00,96.25
2848.00,96.36
2847.00,96.49
2846.00,96.63
2845.00,96.76
2844.00,96.88
2843.00,96.98
2842.00,97.06
2841.00,97.13
2840.00,97.20
2839.00,97.27
2838.00,97.35
2837.00,97.42
2836.00,97.48
2835.00,97.52
2834.00,97.56
2833.00,97.59
2832.00,97.62
2831.00,97.66
2830.00,97.69
2829.00,97.72
2828.00,97.76
2827.00,97.79
2826.00,97.81
2825.00,97.81
2824.00,97.81
2823.00,97.81
2822.00,97.83
2821.00,97.85
2820.00,97.88
2819.00,97.91
2818.00,97.94
2817.00,97.96
2816.00,97.98
2815.00,98.00
2814.00,98.03
2813.00,98.05
2812.00,98.08
2811.00,98.11
2810.00,98.12
2809.00,98.14
2808.00,98.14
2807.00,98.15
2806.00,98.15
2805.00,98.16
2804.00,98.17
2803.00,98.18
2802.00,98.20
2801.00,98.22
2800.00,98.25
2799.00,98.27
2798.00,98.28
2797.00,98.29
2796.00,98.29
2795.00,98.28
2794.00,98.28
2793.00,98.28
2792.00,98.29
2791.00,98.31
2790.00,98.32
2789.00,98.33
2788.00,98.33
2787.00,98.33
2786.00,98.33
2785.00,98.34
2784.00,98.36
2783.00,98.38
2782.00,98.39
2781.00,98.39
2780.00,98.37
2779.00,98.36
2778.00,98.35
2777.00,98.36
2776.00,98.38
2775.00,98.40
2774.00,98.42
2773.00,98.44
2772.00,98.44
2771.00,98.44
2770.00,98.45
2769.00,98.45
2768.00,98.46
2767.00,98.47
2766.00,98.48
2765.00,98.47
2764.00,98.46
2763.00,98.46
2762.00,98.47
2761.00,98.49
2760.00,98.50
2759.00,98.50
2758.00,98.49
2757.00,98.49
2756.00,98.49
2755.00,98.49
2754.00,98.49
2753.00,98.50
2752.00,98.50
2751.00,98.51
2750.00,98.51
2749.00,98.51
2748.00,98.51
2747.00,98.51
2746.00,98.51
2745.00,98.52
2744.00,98.52
2743.00,98.53
2742.00,98.53
2741.00,98.52
2740.00,98.51
2739.00,98.50
2738.00,98.50
2737.00,98.49
2736.00,98.49
2735.00,98.49
2734.00,98.49
2733.00,98.49
2732.00,98.49
2731.00,98.48
2730.00,98.47
2729.00,98.47
2728.00,98.48
2727.00,98.50
2726.00,98.52
2725.00,98.53
2724.00,98.54
2723.00,98.54
2722.00,98.54
2721.00,98.54
2720.00,98.54
2719.00,98.55
2718.00,98.56
2717.00,98.57
2716.00,98.60
2715.00,98.62
2714.00,98.62
2713.00,98.62
2712.00,98.62
2711.00,98.61
2710.00,98.61
2709.00,98.61
2708.00,98.62
2707.00,98.62
2706.00,98.63
2705.00,98.64
2704.00,98.64
2703.00,98.64
2702.00,98.64
2701.00,98.65
2700.00,98.65
2699.00,98.66
2698.00,98.66
2697.00,98.67
2696.00,98.68
2695.00,98.70
2694.00,98.71
2693.00,98.71
2692.00,98.71
2691.00,98.71
2690.00,98.70
2689.00,98.69
2688.00,98.69
2687.00,98.69
2686.00,98.69
2685.00,98.69
2684.00,98.69
2683.00,98.70
2682.00,98.71
2681.00,98.71
2680.00,98.72
2679.00,98.72
2678.00,98.73
2677.00,98.73
2676.00,98.74
2675.00,98.75
2674.00,98.76
2673.00,98.77
2672.00,98.76
2671.00,98.76
2670.00,98.75
2669.00,98.75
2668.00,98.74
2667.00,98.74
2666.00,98.74
2665.00,98.74
2664.00,98.75
2663.00,98.76
2662.00,98.76
2661.00,98.77
2660.00,98.76
2659.00,98.76
2658.00,98.75
2657.00,98.75
2656.00,98.75
2655.00,98.75
2654.00,98.74
2653.00,98.74
2652.00,98.73
2651.00,98.73
2650.00,98.71
2649.00,98.70
2648.00,98.68
2647.00,98.67
2646.00,98.66
2645.00,98.66
2644.00,98.67
2643.00,98.68
2642.00,98.69
2641.00,98.68
2640.00,98.68
2639.00,98.69
2638.00,98.70
2637.00,98.70
2636.00,98.69
2635.00,98.68
2634.00,98.67
2633.00,98.66
2632.00,98.66
2631.00,98.67
2630.00,98.68
2629.00,98.69
2628.00,98.70
2627.00,98.71
2626.00,98.70
2625.00,98.70
2624.00,98.68
2623.00,98.67
2622.00,98.67
2621.00,98.68
2620.00,98.70
2619.00,98.71
2618.00,98.71
2617.00,98.70
2616.00,98.69
2615.00,98.67
2614.00,98.66
2613.00,98.64
2612.00,98.64
2611.00,98.66
2610.00,98.69
2609.00,98.71
2608.00,98.73
2607.00,98.73
2606.00,98.72
2605.00,98.69
2604.00,98.68
2603.00,98.67
2602.00,98.67
2601.00,98.67
2600.00,98.67
2599.00,98.67
2598.00,98.67
2597.00,98.67
2596.00,98.67
2595.00,98.67
2594.00,98.67
2593.00,98.67
2592.00,98.65
2591.00,98.64
2590.00,98.63
2589.00,98.64
2588.00,98.64
2587.00,98.62
2586.00,98.61
2585.00,98.60
2584.00,98.62
2583.00,98.63
2582.00,98.63
2581.00,98.63
2580.00,98.61
2579.00,98.60
2578.00,98.58
2577.00,98.57
2576.00,98.57
2575.00,98.59
2574.00,98.63
2573.00,98.64
2572.00,98.63
2571.00,98.60
2570.00,98.57
2569.00,98.56
2568.00,98.58
2567.00,98.61
2566.00,98.63
2565.00,98.64
2564.00,98.66
2563.00,98.66
2562.00,98.67
2561.00,98.67
2560.00,98.66
2559.00,98.66
2558.00,98.66
2557.00,98.65
2556.00,98.65
2555.00,98.65
2554.00,98.65
2553.00,98.64
2552.00,98.62
2551.00,98.60
2550.00,98.60
2549.00,98.61
2548.00,98.62
2547.00,98.61
2546.00,98.60
2545.00,98.60
2544.00,98.63
2543.00,98.65
2542.00,98.66
2541.00,98.65
2540.00,98.62
2539.00,98.59
2538.00,98.57
2537.00,98.56
2536.00,98.56
2535.00,98.57
2534.00,98.58
2533.00,98.60
2532.00,98.63
2531.00,98.64
2530.00,98.63
2529.00,98.62
2528.00,98.62
2527.00,98.64
2526.00,98.66
2525.00,98.66
2524.00,98.64
2523.00,98.62
2522.00,98.61
2521.00,98.62
2520.00,98.64
2519.00,98.66
2518.00,98.68
2517.00,98.70
2516.00,98.71
2515.00,98.70
2514.00,98.69
2513.00,98.68
2512.00,98.68
2511.00,98.68
2510.00,98.68
2509.00,98.67
2508.00,98.66
2507.00,98.67
2506.00,98.68
2505.00,98.69
2504.00,98.70
2503.00,98.71
2502.00,98.71
2501.00,98.72
2500.00,98.71
2499.00,98.70
2498.00,98.70
2497.00,98.69
2496.00,98.69
2495.00,98.70
2494.00,98.71
2493.00,98.72
2492.00,98.71
2491.00,98.69
2490.00,98.68
2489.00,98.67
2488.00,98.69
2487.00,98.71
2486.00,98.73
2485.00,98.74
2484.00,98.75
2483.00,98.74
2482.00,98.73
2481.00,98.72
2480.00,98.72
2479.00,98.71
2478.00,98.71
2477.00,98.70
2476.00,98.70
2475.00,98.69
2474.00,98.69
2473.00,98.69
2472.00,98.70
2471.00,98.71
2470.00,98.70
2469.00,98.69
2468.00,98.68
2467.00,98.69
2466.00,98.70
2465.00,98.72
2464.00,98.73
2463.00,98.74
2462.00,98.74
2461.00,98.73
2460.00,98.72
2459.00,98.72
2458.00,98.73
2457.00,98.74
2456.00,98.75
2455.00,98.74
2454.00,98.72
2453.00,98.69
2452.00,98.69
2451.00,98.69
2450.00,98.70
2449.00,98.70
2448.00,98.71
2447.00,98.72
2446.00,98.73
2445.00,98.74
2444.00,98.75
2443.00,98.76
2442.00,98.76
2441.00,98.76
2440.00,98.77
2439.00,98.77
2438.00,98.79
2437.00,98.80
2436.00,98.80
2435.00,98.81
2434.00,98.82
2433.00,98.83
2432.00,98.84
2431.00,98.84
2430.00,98.83
2429.00,98.82
2428.00,98.81
2427.00,98.81
2426.00,98.81
2425.00,98.81
2424.00,98.81
2423.00,98.81
2422.00,98.82
2421.00,98.83
2420.00,98.86
2419.00,98.88
2418.00,98.88
2417.00,98.87
2416.00,98.86
2415.00,98.86
2414.00,98.85
2413.00,98.84
2412.00,98.83
2411.00,98.83
2410.00,98.84
2409.00,98.85
2408.00,98.86
2407.00,98.86
2406.00,98.88
2405.00,98.89
2404.00,98.91
2403.00,98.93
2402.00,98.93
2401.00,98.92
2400.00,98.91
2399.00,98.91
2398.00,98.93
2397.00,98.95
2396.00,98.95
2395.00,98.94
2394.00,98.93
2393.00,98.93
2392.00,98.94
2391.00,98.96
2390.00,98.98
2389.00,99.00
2388.00,99.02
2387.00,99.04
2386.00,99.05
2385.00,99.04
2384.00,99.03
2383.00,99.02
2382.00,99.02
2381.00,99.02
2380.00,99.03
2379.00,99.04
2378.00,99.06
2377.00,99.06
2376.00,99.05
2375.00,99.04
2374.00,99.05
2373.00,99.08
2372.00,99.14
2371.00,99.17
2370.00,99.17
2369.00,99.14
2368.00,99.10
2367.00,99.09
2366.00,99.07
2365.00,99.05
2364.00,99.03
2363.00,99.05
2362.00,99.09
2361.00,99.10
2360.00,99.09
2359.00,99.09
2358.00,99.14
2357.00,99.21
2356.00,99.24
2355.00,99.23
2354.00,99.19
2353.00,99.16
2352.00,99.14
2351.00,99.12
2350.00,99.11
2349.00,99.09
2348.00,99.09
2347.00,99.08
2346.00,99.07
2345.00,99.06
2344.00,99.03
2343.00,99.00
2342.00,98.98
2341.00,98.98
2340.00,99.01
2339.00,99.05
2338.00,99.08
2337.00,99.10
2336.00,99.09
2335.00,99.06
2334.00,99.02
2333.00,99.00
2332.00,99.03
2331.00,99.09
2330.00,99.11
2329.00,99.08
2328.00,99.00
2327.00,98.90
2326.00,98.84
2325.00,98.82
2324.00,98.86
2323.00,98.91
2322.00,98.95
2321.00,98.93
2320.00,98.89
2319.00,98.85
2318.00,98.82
2317.00,98.81
2316.00,98.80
2315.00,98.81
2314.00,98.83
2313.00,98.84
2312.00,98.85
2311.00,98.86
2310.00,98.86
2309.00,98.85
2308.00,98.85
2307.00,98.87
2306.00,98.89
2305.00,98.90
2304.00,98.88
2303.00,98.85
2302.00,98.81
2301.00,98.78
2300.00,98.74
2299.00,98.71
2298.00,98.69
2297.00,98.68
2296.00,98.67
2295.00,98.67
2294.00,98.67
2293.00,98.67
2292.00,98.65
2291.00,98.62
2290.00,98.59
2289.00,98.56
2288.00,98.53
2287.00,98.51
2286.00,98.50
2285.00,98.51
2284.00,98.52
2283.00,98.53
2282.00,98.53
2281.00,98.53
2280.00,98.53
2279.00,98.55
2278.00,98.55
2277.00,98.54
2276.00,98.53
2275.00,98.54
2274.00,98.55
2273.00,98.54
2272.00,98.51
2271.00,98.47
2270.00,98.45
2269.00,98.41
2268.00,98.37
2267.00,98.34
2266.00,98.33
2265.00,98.33
2264.00,98.34
2263.00,98.34
2262.00,98.32
2261.00,98.33
2260.00,98.36
2259.00,98.39
2258.00,98.40
2257.00,98.37
2256.00,98.33
2255.00,98.30
2254.00,98.27
2253.00,98.24
2252.00,98.23
2251.00,98.23
2250.00,98.24
2249.00,98.26
2248.00,98.28
2247.00,98.31
2246.00,98.34
2245.00,98.34
2244.00,98.32
2243.00,98.28
2242.00,98.23
2241.00,98.20
2240.00,98.21
2239.00,98.24
2238.00,98.27
2237.00,98.27
2236.00,98.27
2235.00,98.26
2234.00,98.25
2233.00,98.22
2232.00,98.18
2231.00,98.14
2230.00,98.09
2229.00,98.04
2228.00,98.00
2227.00,97.99
2226.00,98.02
2225.00,98.05
2224.00,98.06
2223.00,98.06
2222.00,98.04
2221.00,98.04
2220.00,98.04
2219.00,98.03
2218.00,97.99
2217.00,97.94
2216.00,97.91
2215.00,97.94
2214.00,97.99
2213.00,98.02
2212.00,97.98
2211.00,97.87
2210.00,97.77
2209.00,97.72
2208.00,97.73
2207.00,97.78
2206.00,97.83
2205.00,97.84
2204.00,97.84
2203.00,97.85
2202.00,97.87
2201.00,97.89
2200.00,97.89
2199.00,97.90
2198.00,97.92
2197.00,97.94
2196.00,97.92
2195.00,97.86
2194.00,97.79
2193.00,97.74
2192.00,97.72
2191.00,97.74
2190.00,97.77
2189.00,97.79
2188.00,97.79
2187.00,97.74
2186.00,97.68
2185.00,97.64
2184.00,97.61
2183.00,97.60
2182.00,97.59
2181.00,97.58
2180.00,97.56
2179.00,97.57
2178.00,97.60
2177.00,97.64
2176.00,97.67
2175.00,97.68
2174.00,97.67
2173.00,97.66
2172.00,97.63
2171.00,97.58
2170.00,97.50
2169.00,97.40
2168.00,97.31
2167.00,97.24
2166.00,97.20
2165.00,97.19
2164.00,97.20
2163.00,97.24
2162.00,97.30
2161.00,97.41
2160.00,97.56
2159.00,97.70
2158.00,97.77
2157.00,97.75
2156.00,97.71
2155.00,97.71
2154.00,97.76
2153.00,97.81
2152.00,97.84
2151.00,97.85
2150.00,97.86
2149.00,97.86
2148.00,97.83
2147.00,97.81
2146.00,97.83
2145.00,97.89
2144.00,97.95
2143.00,98.00
2142.00,98.03
2141.00,98.04
2140.00,98.03
2139.00,98.02
2138.00,98.03
2137.00,98.06
2136.00,98.12
2135.00,98.17
2134.00,98.19
2133.00,98.18
2132.00,98.16
2131.00,98.16
2130.00,98.19
2129.00,98.24
2128.00,98.28
2127.00,98.32
2126.00,98.33
2125.00,98.33
2124.00,98.29
2123.00,98.24
2122.00,98.20
2121.00,98.19
2120.00,98.22
2119.00,98.26
2118.00,98.28
2117.00,98.27
2116.00,98.24
2115.00,98.19
2114.00,98.14
2113.00,98.10
2112.00,98.09
2111.00,98.10
2110.00,98.11
2109.00,98.12
2108.00,98.15
2107.00,98.19
2106.00,98.22
2105.00,98.23
2104.00,98.21
2103.00,98.19
2102.00,98.16
2101.00,98.14
2100.00,98.14
2099.00,98.16
2098.00,98.19
2097.00,98.23
2096.00,98.26
2095.00,98.28
2094.00,98.29
2093.00,98.31
2092.00,98.32
2091.00,98.32
2090.00,98.31
2089.00,98.27
2088.00,98.20
2087.00,98.14
2086.00,98.12
2085.00,98.11
2084.00,98.12
2083.00,98.12
2082.00,98.11
2081.00,98.12
2080.00,98.14
2079.00,98.15
2078.00,98.14
2077.00,98.12
2076.00,98.11
2075.00,98.12
2074.00,98.13
2073.00,98.14
2072.00,98.13
2071.00,98.11
2070.00,98.10
2069.00,98.08
2068.00,98.04
2067.00,98.00
2066.00,97.99
2065.00,98.01
2064.00,98.04
2063.00,98.08
2062.00,98.12
2061.00,98.14
2060.00,98.14
2059.00,98.13
2058.00,98.10
2057.00,98.07
2056.00,98.04
2055.00,97.99
2054.00,97.94
2053.00,97.87
2052.00,97.81
2051.00,97.78
2050.00,97.80
2049.00,97.86
2048.00,97.88
2047.00,97.85
2046.00,97.80
2045.00,97.77
2044.00,97.76
2043.00,97.76
2042.00,97.74
2041.00,97.72
2040.00,97.67
2039.00,97.62
2038.00,97.58
2037.00,97.56
2036.00,97.54
2035.00,97.52
2034.00,97.50
2033.00,97.48
2032.00,97.45
2031.00,97.40
2030.00,97.38
2029.00,97.43
2028.00,97.56
2027.00,97.71
2026.00,97.82
2025.00,97.86
2024.00,97.83
2023.00,97.78
2022.00,97.75
2021.00,97.74
2020.00,97.72
2019.00,97.68
2018.00,97.63
2017.00,97.62
2016.00,97.66
2015.00,97.74
2014.00,97.81
2013.00,97.82
2012.00,97.79
2011.00,97.75
2010.00,97.73
2009.00,97.73
2008.00,97.76
2007.00,97.80
2006.00,97.84
2005.00,97.89
2004.00,97.95
2003.00,98.01
2002.00,98.04
2001.00,98.05
2000.00,98.01
1999.00,97.95
1998.00,97.89
1997.00,97.85
1996.00,97.85
1995.00,97.87
1994.00,97.87
1993.00,97.86
1992.00,97.85
1991.00,97.85
1990.00,97.85
1989.00,97.85
1988.00,97.84
1987.00,97.82
1986.00,97.78
1985.00,97.70
1984.00,97.59
1983.00,97.47
1982.00,97.39
1981.00,97.35
1980.00,97.38
1979.00,97.48
1978.00,97.62
1977.00,97.74
1976.00,97.81
1975.00,97.81
1974.00,97.77
1973.00,97.73
1972.00,97.74
1971.00,97.81
1970.00,97.89
1969.00,97.94
1968.00,97.93
1967.00,97.88
1966.00,97.84
1965.00,97.82
1964.00,97.84
1963.00,97.87
1962.00,97.93
1961.00,97.98
1960.00,98.01
1959.00,98.03
1958.00,98.05
1957.00,98.08
1956.00,98.11
1955.00,98.14
1954.00,98.15
1953.00,98.13
1952.00,98.10
1951.00,98.09
1950.00,98.11
1949.00,98.14
1948.00,98.18
1947.00,98.22
1946.00,98.26
1945.00,98.30
1944.00,98.33
1943.00,98.36
1942.00,98.38
1941.00,98.41
1940.00,98.42
1939.00,98.42
1938.00,98.41
1937.00,98.40
1936.00,98.40
1935.00,98.40
1934.00,98.41
1933.00,98.42
1932.00,98.42
1931.00,98.41
1930.00,98.41
1929.00,98.42
1928.00,98.44
1927.00,98.47
1926.00,98.50
1925.00,98.52
1924.00,98.52
1923.00,98.51
1922.00,98.51
1921.00,98.53
1920.00,98.56
1919.00,98.60
1918.00,98.62
1917.00,98.61
1916.00,98.59
1915.00,98.58
1914.00,98.56
1913.00,98.55
1912.00,98.54
1911.00,98.55
1910.00,98.58
1909.00,98.60
1908.00,98.61
1907.00,98.61
1906.00,98.61
1905.00,98.62
1904.00,98.62
1903.00,98.63
1902.00,98.64
1901.00,98.65
1900.00,98.66
1899.00,98.65
1898.00,98.64
1897.00,98.64
1896.00,98.63
1895.00,98.63
1894.00,98.61
1893.00,98.59
1892.00,98.58
1891.00,98.59
1890.00,98.61
1889.00,98.62
1888.00,98.62
1887.00,98.64
1886.00,98.67
1885.00,98.70
1884.00,98.73
1883.00,98.73
1882.00,98.72
1881.00,98.70
1880.00,98.68
1879.00,98.65
1878.00,98.64
1877.00,98.63
1876.00,98.62
1875.00,98.61
1874.00,98.60
1873.00,98.60
1872.00,98.60
1871.00,98.60
1870.00,98.61
1869.00,98.62
1868.00,98.63
1867.00,98.64
1866.00,98.65
1865.00,98.66
1864.00,98.67
1863.00,98.68
1862.00,98.70
1861.00,98.71
1860.00,98.73
1859.00,98.75
1858.00,98.77
1857.00,98.78
1856.00,98.77
1855.00,98.76
1854.00,98.73
1853.00,98.72
1852.00,98.72
1851.00,98.72
1850.00,98.72
1849.00,98.73
1848.00,98.73
1847.00,98.75
1846.00,98.77
1845.00,98.79
1844.00,98.80
1843.00,98.81
1842.00,98.82
1841.00,98.83
1840.00,98.84
1839.00,98.84
1838.00,98.82
1837.00,98.80
1836.00,98.79
1835.00,98.80
1834.00,98.80
1833.00,98.78
1832.00,98.74
1831.00,98.71
1830.00,98.70
1829.00,98.71
1828.00,98.74
1827.00,98.77
1826.00,98.79
1825.00,98.79
1824.00,98.78
1823.00,98.77
1822.00,98.77
1821.00,98.79
1820.00,98.81
1819.00,98.84
1818.00,98.85
1817.00,98.85
1816.00,98.83
1815.00,98.81
1814.00,98.80
1813.00,98.79
1812.00,98.78
1811.00,98.77
1810.00,98.78
1809.00,98.79
1808.00,98.80
1807.00,98.81
1806.00,98.81
1805.00,98.81
1804.00,98.79
1803.00,98.76
1802.00,98.75
1801.00,98.74
1800.00,98.76
1799.00,98.78
1798.00,98.79
1797.00,98.78
1796.00,98.76
1795.00,98.76
1794.00,98.77
1793.00,98.78
1792.00,98.77
1791.00,98.76
1790.00,98.75
1789.00,98.73
1788.00,98.72
1787.00,98.72
1786.00,98.74
1785.00,98.76
1784.00,98.78
1783.00,98.79
1782.00,98.79
1781.00,98.78
1780.00,98.76
1779.00,98.74
1778.00,98.74
1777.00,98.74
1776.00,98.74
1775.00,98.73
1774.00,98.72
1773.00,98.70
1772.00,98.70
1771.00,98.70
1770.00,98.70
1769.00,98.69
1768.00,98.67
1767.00,98.65
1766.00,98.64
1765.00,98.63
1764.00,98.62
1763.00,98.62
1762.00,98.61
1761.00,98.60
1760.00,98.58
1759.00,98.57
1758.00,98.56
1757.00,98.57
1756.00,98.58
1755.00,98.60
1754.00,98.60
1753.00,98.60
1752.00,98.58
1751.00,98.55
1750.00,98.53
1749.00,98.50
1748.00,98.47
1747.00,98.45
1746.00,98.41
1745.00,98.38
1744.00,98.34
1743.00,98.31
1742.00,98.29
1741.00,98.28
1740.00,98.26
1739.00,98.23
1738.00,98.20
1737.00,98.17
1736.00,98.15
1735.00,98.14
1734.00,98.13
1733.00,98.12
1732.00,98.11
1731.00,98.12
1730.00,98.12
1729.00,98.13
1728.00,98.13
1727.00,98.13
1726.00,98.13
1725.00,98.12
1724.00,98.13
1723.00,98.13
1722.00,98.15
1721.00,98.17
1720.00,98.18
1719.00,98.18
1718.00,98.17
1717.00,98.16
1716.00,98.16
1715.00,98.16
1714.00,98.15
1713.00,98.15
1712.00,98.14
1711.00,98.14
1710.00,98.15
1709.00,98.16
1708.00,98.17
1707.00,98.16
1706.00,98.16
1705.00,98.14
1704.00,98.13
1703.00,98.11
1702.00,98.10
1701.00,98.10
1700.00,98.09
1699.00,98.09
1698.00,98.08
1697.00,98.06
1696.00,98.05
1695.00,98.04
1694.00,98.04
1693.00,98.03
1692.00,98.02
1691.00,97.99
1690.00,97.96
1689.00,97.93
1688.00,97.90
1687.00,97.87
1686.00,97.86
1685.00,97.86
1684.00,97.84
1683.00,97.82
1682.00,97.80
1681.00,97.76
1680.00,97.73
1679.00,97.71
1678.00,97.70
1677.00,97.69
1676.00,97.68
1675.00,97.65
1674.00,97.61
1673.00,97.57
1672.00,97.54
1671.00,97.52
1670.00,97.50
1669.00,97.45
1668.00,97.39
1667.00,97.33
1666.00,97.28
1665.00,97.24
1664.00,97.21
1663.00,97.18
1662.00,97.17
1661.00,97.15
1660.00,97.12
1659.00,97.08
1658.00,97.04
1657.00,97.02
1656.00,97.02
1655.00,97.02
1654.00,97.02
1653.00,96.99
1652.00,96.96
1651.00,96.92
1650.00,96.88
1649.00,96.85
1648.00,96.81
1647.00,96.79
1646.00,96.79
1645.00,96.80
1644.00,96.79
1643.00,96.78
1642.00,96.78
1641.00,96.77
1640.00,96.76
1639.00,96.74
1638.00,96.72
1637.00,96.70
1636.00,96.69
1635.00,96.71
1634.00,96.75
1633.00,96.77
1632.00,96.78
1631.00,96.80
1630.00,96.82
1629.00,96.84
1628.00,96.85
1627.00,96.85
1626.00,96.85
1625.00,96.85
1624.00,96.87
1623.00,96.91
1622.00,96.96
1621.00,97.00
1620.00,97.02
1619.00,97.02
1618.00,97.02
1617.00,97.04
1616.00,97.08
1615.00,97.12
1614.00,97.14
1613.00,97.14
1612.00,97.14
1611.00,97.14
1610.00,97.16
1609.00,97.18
1608.00,97.20
1607.00,97.22
1606.00,97.24
1605.00,97.27
1604.00,97.29
1603.00,97.31
1602.00,97.33
1601.00,97.34
1600.00,97.35
1599.00,97.36
1598.00,97.36
1597.00,97.36
1596.00,97.37
1595.00,97.39
1594.00,97.42
1593.00,97.44
1592.00,97.45
1591.00,97.45
1590.00,97.46
1589.00,97.47
1588.00,97.48
1587.00,97.50
1586.00,97.50
1585.00,97.49
1584.00,97.48
1583.00,97.48
1582.00,97.48
1581.00,97.49
1580.00,97.49
1579.00,97.49
1578.00,97.48
1577.00,97.47
1576.00,97.49
1575.00,97.53
1574.00,97.58
1573.00,97.62
1572.00,97.65
1571.00,97.68
1570.00,97.69
1569.00,97.70
1568.00,97.72
1567.00,97.73
1566.00,97.75
1565.00,97.77
1564.00,97.78
1563.00,97.78
1562.00,97.79
1561.00,97.80
1560.00,97.83
1559.00,97.83
1558.00,97.82
1557.00,97.81
1556.00,97.80
1555.00,97.81
1554.00,97.84
1553.00,97.85
1552.00,97.86
1551.00,97.85
1550.00,97.83
1549.00,97.81
1548.00,97.79
1547.00,97.77
1546.00,97.76
1545.00,97.75
1544.00,97.73
1543.00,97.73
1542.00,97.72
1541.00,97.72
1540.00,97.72
1539.00,97.75
1538.00,97.78
1537.00,97.81
1536.00,97.84
1535.00,97.86
1534.00,97.88
1533.00,97.90
1532.00,97.93
1531.00,97.95
1530.00,97.97
1529.00,97.98
1528.00,97.99
1527.00,97.99
1526.00,98.00
1525.00,98.00
1524.00,98.00
1523.00,98.00
1522.00,98.02
1521.00,98.05
1520.00,98.07
1519.00,98.08
1518.00,98.06
1517.00,98.04
1516.00,98.03
1515.00,98.04
1514.00,98.06
1513.00,98.07
1512.00,98.07
1511.00,98.06
1510.00,98.05
1509.00,98.03
1508.00,98.01
1507.00,97.99
1506.00,97.98
1505.00,97.96
1504.00,97.94
1503.00,97.93
1502.00,97.93
1501.00,97.93
1500.00,97.92
1499.00,97.92
1498.00,97.91
1497.00,97.88
1496.00,97.84
1495.00,97.80
1494.00,97.78
1493.00,97.75
1492.00,97.72
1491.00,97.67
1490.00,97.60
1489.00,97.52
1488.00,97.44
1487.00,97.35
1486.00,97.25
1485.00,97.15
1484.00,97.04
1483.00,96.93
1482.00,96.83
1481.00,96.74
1480.00,96.67
1479.00,96.62
1478.00,96.57
1477.00,96.52
1476.00,96.48
1475.00,96.43
1474.00,96.36
1473.00,96.25
1472.00,96.13
1471.00,96.03
1470.00,95.94
1469.00,95.85
1468.00,95.76
1467.00,95.67
1466.00,95.57
1465.00,95.46
1464.00,95.34
1463.00,95.24
1462.00,95.16
1461.00,95.09
1460.00,95.03
1459.00,94.96
1458.00,94.88
1457.00,94.78
1456.00,94.69
1455.00,94.62
1454.00,94.58
1453.00,94.55
1452.00,94.53
1451.00,94.52
1450.00,94.52
1449.00,94.51
1448.00,94.51
1447.00,94.51
1446.00,94.51
1445.00,94.50
1444.00,94.48
1443.00,94.45
1442.00,94.41
1441.00,94.36
1440.00,94.32
1439.00,94.28
1438.00,94.23
1437.00,94.13
1436.00,94.00
1435.00,93.87
1434.00,93.75
1433.00,93.63
1432.00,93.53
1431.00,93.44
1430.00,93.38
1429.00,93.34
1428.00,93.34
1427.00,93.36
1426.00,93.40
1425.00,93.46
1424.00,93.54
1423.00,93.64
1422.00,93.73
1421.00,93.83
1420.00,93.96
1419.00,94.11
1418.00,94.24
1417.00,94.34
1416.00,94.41
1415.00,94.48
1414.00,94.55
1413.00,94.61
1412.00,94.67
1411.00,94.72
1410.00,94.76
1409.00,94.79
1408.00,94.82
1407.00,94.85
1406.00,94.87
1405.00,94.88
1404.00,94.90
1403.00,94.92
1402.00,94.95
1401.00,94.97
1400.00,94.99
1399.00,95.02
1398.00,95.05
1397.00,95.07
1396.00,95.08
1395.00,95.06
1394.00,95.03
1393.00,94.98
1392.00,94.94
1391.00,94.90
1390.00,94.86
1389.00,94.81
1388.00,94.74
1387.00,94.65
1386.00,94.54
1385.00,94.40
1384.00,94.26
1383.00,94.12
1382.00,93.97
1381.00,93.81
1380.00,93.64
1379.00,93.47
1378.00,93.29
1377.00,93.13
1376.00,92.96
1375.00,92.77
1374.00,92.58
1373.00,92.40
1372.00,92.26
1371.00,92.16
1370.00,92.10
1369.00,92.08
1368.00,92.08
1367.00,92.09
1366.00,92.09
1365.00,92.07
1364.00,92.05
1363.00,92.03
1362.00,92.04
1361.00,92.08
1360.00,92.12
1359.00,92.17
1358.00,92.23
1357.00,92.29
1356.00,92.37
1355.00,92.43
1354.00,92.50
1353.00,92.57
1352.00,92.63
1351.00,92.67
1350.00,92.69
1349.00,92.68
1348.00,92.63
1347.00,92.54
1346.00,92.42
1345.00,92.26
1344.00,92.09
1343.00,91.92
1342.00,91.76
1341.00,91.60
1340.00,91.44
1339.00,91.29
1338.00,91.15
1337.00,91.04
1336.00,90.97
1335.00,90.95
1334.00,90.96
1333.00,91.00
1332.00,91.08
1331.00,91.17
1330.00,91.27
1329.00,91.36
1328.00,91.40
1327.00,91.40
1326.00,91.35
1325.00,91.26
1324.00,91.13
1323.00,90.96
1322.00,90.76
1321.00,90.53
1320.00,90.28
1319.00,90.03
1318.00,89.81
1317.00,89.64
1316.00,89.52
1315.00,89.48
1314.00,89.50
1313.00,89.58
1312.00,89.72
1311.00,89.91
1310.00,90.12
1309.00,90.37
1308.00,90.62
1307.00,90.89
1306.00,91.15
1305.00,91.40
1304.00,91.64
1303.00,91.88
1302.00,92.11
1301.00,92.33
1300.00,92.52
1299.00,92.69
1298.00,92.83
1297.00,92.95
1296.00,93.04
1295.00,93.10
1294.00,93.14
1293.00,93.16
1292.00,93.19
1291.00,93.23
1290.00,93.28
1289.00,93.31
1288.00,93.33
1287.00,93.32
1286.00,93.29
1285.00,93.25
1284.00,93.19
1283.00,93.13
1282.00,93.07
1281.00,93.02
1280.00,93.01
1279.00,93.02
1278.00,93.04
1277.00,93.06
1276.00,93.08
1275.00,93.13
1274.00,93.19
1273.00,93.26
1272.00,93.32
1271.00,93.37
1270.00,93.42
1269.00,93.47
1268.00,93.52
1267.00,93.56
1266.00,93.59
1265.00,93.61
1264.00,93.64
1263.00,93.66
1262.00,93.68
1261.00,93.69
1260.00,93.71
1259.00,93.74
1258.00,93.77
1257.00,93.79
1256.00,93.82
1255.00,93.85
1254.00,93.85
1253.00,93.82
1252.00,93.77
1251.00,93.73
1250.00,93.70
1249.00,93.69
1248.00,93.70
1247.00,93.73
1246.00,93.76
1245.00,93.80
1244.00,93.84
1243.00,93.90
1242.00,93.97
1241.00,94.02
1240.00,94.06
1239.00,94.07
1238.00,94.08
1237.00,94.09
1236.00,94.11
1235.00,94.15
1234.00,94.20
1233.00,94.26
1232.00,94.33
1231.00,94.41
1230.00,94.50
1229.00,94.59
1228.00,94.69
1227.00,94.80
1226.00,94.89
1225.00,94.98
1224.00,95.06
1223.00,95.13
1222.00,95.20
1221.00,95.26
1220.00,95.33
1219.00,95.39
1218.00,95.43
1217.00,95.45
1216.00,95.45
1215.00,95.40
1214.00,95.33
1213.00,95.20
1212.00,95.04
1211.00,94.84
1210.00,94.62
1209.00,94.40
1208.00,94.20
1207.00,94.03
1206.00,93.90
1205.00,93.81
1204.00,93.75
1203.00,93.73
1202.00,93.75
1201.00,93.82
1200.00,93.90
1199.00,94.00
1198.00,94.11
1197.00,94.24
1196.00,94.39
1195.00,94.54
1194.00,94.68
1193.00,94.80
1192.00,94.90
1191.00,94.98
1190.00,95.05
1189.00,95.09
1188.00,95.12
1187.00,95.13
1186.00,95.10
1185.00,95.04
1184.00,94.96
1183.00,94.85
1182.00,94.74
1181.00,94.60
1180.00,94.43
1179.00,94.24
1178.00,94.02
1177.00,93.78
1176.00,93.49
1175.00,93.16
1174.00,92.79
1173.00,92.38
1172.00,91.94
1171.00,91.47
1170.00,90.98
1169.00,90.48
1168.00,89.98
1167.00,89.51
1166.00,89.09
1165.00,88.75
1164.00,88.49
1163.00,88.30
1162.00,88.20
1161.00,88.18
1160.00,88.23
1159.00,88.34
1158.00,88.49
1157.00,88.65
1156.00,88.79
1155.00,88.90
1154.00,89.02
1153.00,89.14
1152.00,89.28
1151.00,89.43
1150.00,89.57
1149.00,89.70
1148.00,89.80
1147.00,89.90
1146.00,90.04
1145.00,90.19
1144.00,90.36
1143.00,90.52
1142.00,90.68
1141.00,90.82
1140.00,90.92
1139.00,90.96
1138.00,90.93
1137.00,90.84
1136.00,90.69
1135.00,90.50
1134.00,90.29
1133.00,90.08
1132.00,89.85
1131.00,89.59
1130.00,89.28
1129.00,88.90
1128.00,88.49
1127.00,88.06
1126.00,87.64
1125.00,87.27
1124.00,86.95
1123.00,86.67
1122.00,86.41
1121.00,86.13
1120.00,85.82
1119.00,85.44
1118.00,84.98
1117.00,84.45
1116.00,83.87
1115.00,83.27
1114.00,82.68
1113.00,82.15
1112.00,81.70
1111.00,81.34
1110.00,81.08
1109.00,80.88
1108.00,80.72
1107.00,80.60
1106.00,80.49
1105.00,80.41
1104.00,80.37
1103.00,80.40
1102.00,80.49
1101.00,80.60
1100.00,80.75
1099.00,80.93
1098.00,81.13
1097.00,81.34
1096.00,81.53
1095.00,81.70
1094.00,81.86
1093.00,82.00
1092.00,82.11
1091.00,82.21
1090.00,82.28
1089.00,82.31
1088.00,82.33
1087.00,82.34
1086.00,82.34
1085.00,82.30
1084.00,82.25
1083.00,82.19
1082.00,82.12
1081.00,82.00
1080.00,81.82
1079.00,81.60
1078.00,81.35
1077.00,81.11
1076.00,80.87
1075.00,80.63
1074.00,80.38
1073.00,80.10
1072.00,79.79
1071.00,79.47
1070.00,79.13
1069.00,78.74
1068.00,78.30
1067.00,77.81
1066.00,77.26
1065.00,76.65
1064.00,75.98
1063.00,75.33
1062.00,74.71
1061.00,74.15
1060.00,73.65
1059.00,73.21
1058.00,72.81
1057.00,72.47
1056.00,72.22
1055.00,72.06
1054.00,72.00
1053.00,72.00
1052.00,72.05
1051.00,72.16
1050.00,72.30
1049.00,72.45
1048.00,72.59
1047.00,72.75
1046.00,72.91
1045.00,73.06
1044.00,73.17
1043.00,73.22
1042.00,73.22
1041.00,73.15
1040.00,73.00
1039.00,72.79
1038.00,72.53
1037.00,72.22
1036.00,71.87
1035.00,71.53
1034.00,71.22
1033.00,70.99
1032.00,70.82
1031.00,70.73
1030.00,70.69
1029.00,70.70
1028.00,70.75
1027.00,70.83
1026.00,70.93
1025.00,71.06
1024.00,71.21
1023.00,71.38
1022.00,71.58
1021.00,71.78
1020.00,71.97
1019.00,72.15
1018.00,72.32
1017.00,72.47
1016.00,72.61
1015.00,72.75
1014.00,72.89
1013.00,73.02
1012.00,73.15
1011.00,73.27
1010.00,73.36
1009.00,73.38
1008.00,73.32
1007.00,73.20
1006.00,73.06
1005.00,72.92
1004.00,72.80
1003.00,72.73
1002.00,72.70
1001.00,72.72
1000.00,72.78
999.00,72.92
998.00,73.12
997.00,73.35
996.00,73.60
995.00,73.86
994.00,74.13
993.00,74.38
992.00,74.58
991.00,74.72
990.00,74.78
989.00,74.75
988.00,74.64
987.00,74.50
986.00,74.37
985.00,74.28
984.00,74.28
983.00,74.41
982.00,74.70
981.00,75.12
980.00,75.64
979.00,76.22
978.00,76.83
977.00,77.42
976.00,77.98
975.00,78.52
974.00,79.03
973.00,79.52
972.00,79.99
971.00,80.43
970.00,80.85
969.00,81.24
968.00,81.59
967.00,81.92
966.00,82.25
965.00,82.57
964.00,82.88
963.00,83.18
962.00,83.48
961.00,83.78
960.00,84.06
959.00,84.33
958.00,84.60
957.00,84.86
956.00,85.10
955.00,85.31
954.00,85.52
953.00,85.72
952.00,85.91
951.00,86.10
950.00,86.28
949.00,86.45
948.00,86.60
947.00,86.73
946.00,86.87
945.00,87.01
944.00,87.15
943.00,87.29
942.00,87.41
941.00,87.53
940.00,87.64
939.00,87.75
938.00,87.86
937.00,87.98
936.00,88.11
935.00,88.22
934.00,88.32
933.00,88.42
932.00,88.54
931.00,88.65
930.00,88.75
929.00,88.84
928.00,88.92
927.00,89.01
926.00,89.09
925.00,89.17
924.00,89.24
923.00,89.29
922.00,89.32
921.00,89.36
920.00,89.40
919.00,89.46
918.00,89.50
917.00,89.52
916.00,89.50
915.00,89.46
914.00,89.41
913.00,89.36
912.00,89.31
911.00,89.24
910.00,89.17
909.00,89.10
908.00,89.03
907.00,88.96
906.00,88.88
905.00,88.78
904.00,88.70
903.00,88.62
902.00,88.54
901.00,88.45
900.00,88.36
899.00,88.29
898.00,88.25
897.00,88.25
896.00,88.26
895.00,88.31
894.00,88.37
893.00,88.45
892.00,88.54
891.00,88.63
890.00,88.74
889.00,88.87
888.00,89.00
887.00,89.11
886.00,89.21
885.00,89.32
884.00,89.45
883.00,89.59
882.00,89.72
881.00,89.84
880.00,89.95
879.00,90.04
878.00,90.12
877.00,90.17
876.00,90.21
875.00,90.25
874.00,90.29
873.00,90.33
872.00,90.38
871.00,90.44
870.00,90.51
869.00,90.60
868.00,90.70
867.00,90.82
866.00,90.93
865.00,91.03
864.00,91.09
863.00,91.13
862.00,91.18
861.00,91.25
860.00,91.32
859.00,91.39
858.00,91.44
857.00,91.47
856.00,91.51
855.00,91.55
854.00,91.60
853.00,91.63
852.00,91.65
851.00,91.66
850.00,91.67
849.00,91.67
848.00,91.68
847.00,91.69
846.00,91.69
845.00,91.68
844.00,91.67
843.00,91.66
842.00,91.66
841.00,91.67
840.00,91.67
839.00,91.68
838.00,91.67
837.00,91.66
836.00,91.66
835.00,91.68
834.00,91.70
833.00,91.70
832.00,91.69
831.00,91.65
830.00,91.60
829.00,91.53
828.00,91.48
827.00,91.45
826.00,91.44
825.00,91.42
824.00,91.39
823.00,91.35
822.00,91.31
821.00,91.25
820.00,91.18
819.00,91.11
818.00,91.05
817.00,90.98
816.00,90.91
815.00,90.86
814.00,90.82
813.00,90.79
812.00,90.76
811.00,90.72
810.00,90.69
809.00,90.66
808.00,90.64
807.00,90.62
806.00,90.62
805.00,90.62
804.00,90.62
803.00,90.61
802.00,90.59
801.00,90.58
800.00,90.60
799.00,90.63
798.00,90.65
797.00,90.63
796.00,90.59
795.00,90.55
794.00,90.51
793.00,90.49
792.00,90.48
791.00,90.47
790.00,90.47
789.00,90.46
788.00,90.43
787.00,90.40
786.00,90.37
785.00,90.33
784.00,90.30
783.00,90.28
782.00,90.26
781.00,90.26
780.00,90.27
779.00,90.26
778.00,90.22
777.00,90.16
776.00,90.11
775.00,90.08
774.00,90.05
773.00,90.03
772.00,89.98
771.00,89.90
770.00,89.80
769.00,89.71
768.00,89.63
767.00,89.59
766.00,89.56
765.00,89.53
764.00,89.52
763.00,89.50
762.00,89.45
761.00,89.35
760.00,89.22
759.00,89.09
758.00,88.98
757.00,88.89
756.00,88.82
755.00,88.77
754.00,88.72
753.00,88.66
752.00,88.60
751.00,88.58
750.00,88.58
749.00,88.55
748.00,88.47
747.00,88.34
746.00,88.21
745.00,88.11
744.00,88.04
743.00,87.99
742.00,87.94
741.00,87.87
740.00,87.81
739.00,87.80
738.00,87.81
737.00,87.80
736.00,87.72
735.00,87.56
734.00,87.35
733.00,87.14
732.00,86.94
731.00,86.78
730.00,86.66
729.00,86.54
728.00,86.41
727.00,86.27
726.00,86.10
725.00,85.92
724.00,85.73
723.00,85.54
722.00,85.37
721.00,85.21
720.00,85.03
719.00,84.83
718.00,84.60
717.00,84.38
716.00,84.20
715.00,84.06
714.00,83.94
713.00,83.78
712.00,83.59
711.00,83.42
710.00,83.28
709.00,83.13
708.00,82.96
707.00,82.82
706.00,82.75
705.00,82.74
704.00,82.73
703.00,82.69
702.00,82.61
701.00,82.53
700.00,82.48
699.00,82.46
698.00,82.45
697.00,82.42
696.00,82.35
695.00,82.28
694.00,82.27
693.00,82.30
692.00,82.34
691.00,82.35
690.00,82.31
689.00,82.22
688.00,82.11
687.00,82.04
686.00,82.01
685.00,81.97
684.00,81.87
683.00,81.70
682.00,81.49
681.00,81.26
680.00,81.01
679.00,80.77
678.00,80.52
677.00,80.25
676.00,79.93
675.00,79.57
674.00,79.19
673.00,78.80
672.00,78.44
671.00,78.14
670.00,77.88
669.00,77.61
668.00,77.28
667.00,76.98
666.00,76.76
665.00,76.60
664.00,76.48
663.00,76.43
662.00,76.44
661.00,76.47
660.00,76.50
659.00,76.57
658.00,76.70
657.00,76.86
656.00,77.02
655.00,77.17
654.00,77.29
653.00,77.36
652.00,77.43
651.00,77.54
650.00,77.69
649.00,77.81
648.00,77.87
647.00,77.87
646.00,77.83
645.00,77.76
644.00,77.67
643.00,77.57
642.00,77.50
641.00,77.44
640.00,77.39
639.00,77.32
638.00,77.19
637.00,76.99
636.00,76.78
635.00,76.68
634.00,76.71
633.00,76.73
632.00,76.65
631.00,76.46
630.00,76.21
629.00,76.00
628.00,75.89
627.00,75.92
626.00,75.97
625.00,75.84
624.00,75.46
623.00,74.96
622.00,74.51
621.00,74.15
620.00,73.84
619.00,73.59
618.00,73.44
617.00,73.31
616.00,73.13
615.00,72.90
614.00,72.69
613.00,72.53
612.00,72.45
611.00,72.54
610.00,72.78
609.00,73.05
608.00,73.24
607.00,73.37
606.00,73.44
605.00,73.40
604.00,73.22
603.00,73.01
602.00,72.91
601.00,72.95
600.00,73.00
599.00,72.94
598.00,72.78
597.00,72.59
596.00,72.48
595.00,72.44
594.00,72.37
593.00,72.18
592.00,71.87
591.00,71.57
590.00,71.38
589.00,71.32
588.00,71.41
587.00,71.67
586.00,72.02
585.00,72.33
584.00,72.57
583.00,72.69
582.00,72.61
581.00,72.26
580.00,71.81
579.00,71.50
578.00,71.33
577.00,71.07
576.00,70.74
575.00,70.69
574.00,71.04
573.00,71.49
572.00,71.74
571.00,71.71
570.00,71.41
569.00,70.79
568.00,69.90
567.00,69.12
566.00,68.79
565.00,68.92
564.00,69.25
563.00,69.49
562.00,69.50
561.00,69.29
560.00,68.98
559.00,68.66
558.00,68.28
557.00,67.84
556.00,67.50
555.00,67.46
554.00,67.67
553.00,67.87
552.00,68.01
551.00,68.21
550.00,68.45
