Created as New Dataset,Linen Hand supun thread
cm-1,%T
4000.00,100.65
3999.00,100.64
3998.00,100.64
3997.00,100.65
3996.00,100.66
3995.00,100.68
3994.00,100.69
3993.00,100.70
3992.00,100.70
3991.00,100.70
3990.00,100.70
3989.00,100.71
3988.00,100.70
3987.00,100.70
3986.00,100.69
3985.00,100.69
3984.00,100.68
3983.00,100.67
3982.00,100.67
3981.00,100.67
3980.00,100.68
3979.00,100.70
3978.00,100.71
3977.00,100.72
3976.00,100.72
3975.00,100.71
3974.00,100.71
3973.00,100.71
3972.00,100.71
3971.00,100.70
3970.00,100.70
3969.00,100.70
3968.00,100.71
3967.00,100.71
3966.00,100.71
3965.00,100.70
3964.00,100.71
3963.00,100.71
3962.00,100.72
3961.00,100.72
3960.00,100.72
3959.00,100.71
3958.00,100.71
3957.00,100.71
3956.00,100.71
3955.00,100.72
3954.00,100.72
3953.00,100.71
3952.00,100.70
3951.00,100.70
3950.00,100.70
3949.00,100.71
3948.00,100.72
3947.00,100.73
3946.00,100.72
3945.00,100.71
3944.00,100.71
3943.00,100.71
3942.00,100.72
3941.00,100.73
3940.00,100.74
3939.00,100.75
3938.00,100.75
3937.00,100.73
3936.00,100.71
3935.00,100.69
3934.00,100.67
3933.00,100.66
3932.00,100.67
3931.00,100.69
3930.00,100.69
3929.00,100.68
3928.00,100.66
3927.00,100.65
3926.00,100.64
3925.00,100.64
3924.00,100.63
3923.00,100.64
3922.00,100.65
3921.00,100.67
3920.00,100.69
3919.00,100.71
3918.00,100.71
3917.00,100.70
3916.00,100.69
3915.00,100.68
3914.00,100.67
3913.00,100.67
3912.00,100.67
3911.00,100.67
3910.00,100.67
3909.00,100.67
3908.00,100.68
3907.00,100.69
3906.00,100.70
3905.00,100.69
3904.00,100.68
3903.00,100.67
3902.00,100.68
3901.00,100.70
3900.00,100.72
3899.00,100.72
3898.00,100.72
3897.00,100.70
3896.00,100.68
3895.00,100.66
3894.00,100.65
3893.00,100.66
3892.00,100.67
3891.00,100.68
3890.00,100.68
3889.00,100.69
3888.00,100.69
3887.00,100.69
3886.00,100.69
3885.00,100.68
3884.00,100.69
3883.00,100.71
3882.00,100.73
3881.00,100.72
3880.00,100.68
3879.00,100.64
3878.00,100.61
3877.00,100.59
3876.00,100.58
3875.00,100.59
3874.00,100.61
3873.00,100.64
3872.00,100.66
3871.00,100.65
3870.00,100.63
3869.00,100.61
3868.00,100.59
3867.00,100.60
3866.00,100.61
3865.00,100.61
3864.00,100.62
3863.00,100.62
3862.00,100.63
3861.00,100.63
3860.00,100.63
3859.00,100.63
3858.00,100.63
3857.00,100.63
3856.00,100.65
3855.00,100.68
3854.00,100.69
3853.00,100.69
3852.00,100.69
3851.00,100.69
3850.00,100.70
3849.00,100.69
3848.00,100.67
3847.00,100.65
3846.00,100.63
3845.00,100.61
3844.00,100.60
3843.00,100.59
3842.00,100.59
3841.00,100.60
3840.00,100.62
3839.00,100.62
3838.00,100.62
3837.00,100.62
3836.00,100.63
3835.00,100.65
3834.00,100.66
3833.00,100.65
3832.00,100.63
3831.00,100.63
3830.00,100.64
3829.00,100.67
3828.00,100.68
3827.00,100.66
3826.00,100.62
3825.00,100.59
3824.00,100.58
3823.00,100.57
3822.00,100.57
3821.00,100.56
3820.00,100.55
3819.00,100.56
3818.00,100.59
3817.00,100.62
3816.00,100.65
3815.00,100.67
3814.00,100.69
3813.00,100.69
3812.00,100.69
3811.00,100.66
3810.00,100.64
3809.00,100.62
3808.00,100.60
3807.00,100.58
3806.00,100.56
3805.00,100.55
3804.00,100.57
3803.00,100.60
3802.00,100.61
3801.00,100.61
3800.00,100.62
3799.00,100.64
3798.00,100.66
3797.00,100.67
3796.00,100.67
3795.00,100.66
3794.00,100.65
3793.00,100.64
3792.00,100.64
3791.00,100.64
3790.00,100.65
3789.00,100.65
3788.00,100.64
3787.00,100.63
3786.00,100.62
3785.00,100.59
3784.00,100.57
3783.00,100.55
3782.00,100.56
3781.00,100.57
3780.00,100.59
3779.00,100.59
3778.00,100.60
3777.00,100.60
3776.00,100.60
3775.00,100.60
3774.00,100.59
3773.00,100.60
3772.00,100.61
3771.00,100.63
3770.00,100.63
3769.00,100.61
3768.00,100.59
3767.00,100.57
3766.00,100.56
3765.00,100.55
3764.00,100.54
3763.00,100.52
3762.00,100.51
3761.00,100.51
3760.00,100.51
3759.00,100.52
3758.00,100.53
3757.00,100.54
3756.00,100.53
3755.00,100.53
3754.00,100.53
3753.00,100.54
3752.00,100.54
3751.00,100.52
3750.00,100.50
3749.00,100.48
3748.00,100.48
3747.00,100.48
3746.00,100.47
3745.00,100.44
3744.00,100.43
3743.00,100.45
3742.00,100.47
3741.00,100.48
3740.00,100.48
3739.00,100.48
3738.00,100.50
3737.00,100.54
3736.00,100.57
3735.00,100.56
3734.00,100.54
3733.00,100.52
3732.00,100.51
3731.00,100.51
3730.00,100.50
3729.00,100.50
3728.00,100.49
3727.00,100.48
3726.00,100.48
3725.00,100.49
3724.00,100.51
3723.00,100.53
3722.00,100.54
3721.00,100.55
3720.00,100.56
3719.00,100.56
3718.00,100.55
3717.00,100.54
3716.00,100.52
3715.00,100.51
3714.00,100.52
3713.00,100.53
3712.00,100.55
3711.00,100.54
3710.00,100.51
3709.00,100.49
3708.00,100.47
3707.00,100.46
3706.00,100.47
3705.00,100.48
3704.00,100.50
3703.00,100.52
3702.00,100.52
3701.00,100.51
3700.00,100.49
3699.00,100.48
3698.00,100.47
3697.00,100.47
3696.00,100.48
3695.00,100.48
3694.00,100.47
3693.00,100.44
3692.00,100.41
3691.00,100.39
3690.00,100.37
3689.00,100.38
3688.00,100.41
3687.00,100.45
3686.00,100.49
3685.00,100.51
3684.00,100.51
3683.00,100.50
3682.00,100.47
3681.00,100.44
3680.00,100.40
3679.00,100.35
3678.00,100.33
3677.00,100.34
3676.00,100.36
3675.00,100.38
3674.00,100.41
3673.00,100.44
3672.00,100.47
3671.00,100.47
3670.00,100.43
3669.00,100.38
3668.00,100.36
3667.00,100.37
3666.00,100.38
3665.00,100.40
3664.00,100.41
3663.00,100.42
3662.00,100.43
3661.00,100.42
3660.00,100.41
3659.00,100.39
3658.00,100.37
3657.00,100.35
3656.00,100.33
3655.00,100.31
3654.00,100.29
3653.00,100.26
3652.00,100.24
3651.00,100.22
3650.00,100.19
3649.00,100.15
3648.00,100.14
3647.00,100.15
3646.00,100.17
3645.00,100.18
3644.00,100.19
3643.00,100.19
3642.00,100.19
3641.00,100.20
3640.00,100.20
3639.00,100.20
3638.00,100.19
3637.00,100.18
3636.00,100.16
3635.00,100.15
3634.00,100.14
3633.00,100.13
3632.00,100.13
3631.00,100.12
3630.00,100.10
3629.00,100.05
3628.00,100.02
3627.00,100.02
3626.00,100.03
3625.00,100.03
3624.00,100.02
3623.00,99.99
3622.00,99.95
3621.00,99.92
3620.00,99.89
3619.00,99.87
3618.00,99.83
3617.00,99.80
3616.00,99.79
3615.00,99.81
3614.00,99.83
3613.00,99.85
3612.00,99.84
3611.00,99.82
3610.00,99.79
3609.00,99.77
3608.00,99.75
3607.00,99.74
3606.00,99.73
3605.00,99.71
3604.00,99.69
3603.00,99.67
3602.00,99.65
3601.00,99.63
3600.00,99.61
3599.00,99.61
3598.00,99.61
3597.00,99.62
3596.00,99.62
3595.00,99.61
3594.00,99.58
3593.00,99.53
3592.00,99.48
3591.00,99.44
3590.00,99.40
3589.00,99.39
3588.00,99.38
3587.00,99.37
3586.00,99.36
3585.00,99.38
3584.00,99.40
3583.00,99.41
3582.00,99.39
3581.00,99.36
3580.00,99.33
3579.00,99.30
3578.00,99.27
3577.00,99.25
3576.00,99.22
3575.00,99.19
3574.00,99.16
3573.00,99.12
3572.00,99.08
3571.00,99.04
3570.00,99.01
3569.00,98.98
3568.00,98.98
3567.00,98.98
3566.00,98.97
3565.00,98.96
3564.00,98.94
3563.00,98.91
3562.00,98.89
3561.00,98.87
3560.00,98.87
3559.00,98.86
3558.00,98.85
3557.00,98.82
3556.00,98.78
3555.00,98.75
3554.00,98.73
3553.00,98.72
3552.00,98.70
3551.00,98.67
3550.00,98.64
3549.00,98.60
3548.00,98.55
3547.00,98.52
3546.00,98.49
3545.00,98.48
3544.00,98.48
3543.00,98.48
3542.00,98.48
3541.00,98.49
3540.00,98.49
3539.00,98.50
3538.00,98.50
3537.00,98.50
3536.00,98.47
3535.00,98.43
3534.00,98.39
3533.00,98.33
3532.00,98.28
3531.00,98.24
3530.00,98.21
3529.00,98.19
3528.00,98.16
3527.00,98.14
3526.00,98.11
3525.00,98.10
3524.00,98.10
3523.00,98.10
3522.00,98.09
3521.00,98.08
3520.00,98.06
3519.00,98.02
3518.00,97.99
3517.00,97.97
3516.00,97.95
3515.00,97.93
3514.00,97.89
3513.00,97.85
3512.00,97.80
3511.00,97.76
3510.00,97.74
3509.00,97.74
3508.00,97.74
3507.00,97.74
3506.00,97.73
3505.00,97.71
3504.00,97.68
3503.00,97.65
3502.00,97.61
3501.00,97.57
3500.00,97.55
3499.00,97.54
3498.00,97.53
3497.00,97.51
3496.00,97.48
3495.00,97.43
3494.00,97.39
3493.00,97.35
3492.00,97.31
3491.00,97.29
3490.00,97.27
3489.00,97.26
3488.00,97.23
3487.00,97.20
3486.00,97.17
3485.00,97.14
3484.00,97.10
3483.00,97.06
3482.00,97.03
3481.00,97.00
3480.00,96.97
3479.00,96.94
3478.00,96.90
3477.00,96.86
3476.00,96.83
3475.00,96.83
3474.00,96.84
3473.00,96.84
3472.00,96.81
3471.00,96.76
3470.00,96.69
3469.00,96.64
3468.00,96.60
3467.00,96.58
3466.00,96.56
3465.00,96.53
3464.00,96.49
3463.00,96.47
3462.00,96.45
3461.00,96.44
3460.00,96.42
3459.00,96.39
3458.00,96.36
3457.00,96.33
3456.00,96.32
3455.00,96.32
3454.00,96.31
3453.00,96.27
3452.00,96.20
3451.00,96.11
3450.00,96.05
3449.00,96.02
3448.00,96.01
3447.00,96.00
3446.00,95.97
3445.00,95.93
3444.00,95.87
3443.00,95.83
3442.00,95.81
3441.00,95.80
3440.00,95.80
3439.00,95.79
3438.00,95.77
3437.00,95.75
3436.00,95.72
3435.00,95.69
3434.00,95.65
3433.00,95.61
3432.00,95.58
3431.00,95.55
3430.00,95.52
3429.00,95.51
3428.00,95.48
3427.00,95.45
3426.00,95.42
3425.00,95.38
3424.00,95.35
3423.00,95.32
3422.00,95.28
3421.00,95.24
3420.00,95.20
3419.00,95.16
3418.00,95.12
3417.00,95.10
3416.00,95.07
3415.00,95.04
3414.00,94.99
3413.00,94.94
3412.00,94.90
3411.00,94.86
3410.00,94.84
3409.00,94.82
3408.00,94.80
3407.00,94.76
3406.00,94.73
3405.00,94.69
3404.00,94.66
3403.00,94.64
3402.00,94.63
3401.00,94.60
3400.00,94.57
3399.00,94.55
3398.00,94.53
3397.00,94.52
3396.00,94.49
3395.00,94.45
3394.00,94.42
3393.00,94.39
3392.00,94.37
3391.00,94.35
3390.00,94.32
3389.00,94.28
3388.00,94.25
3387.00,94.21
3386.00,94.19
3385.00,94.16
3384.00,94.13
3383.00,94.09
3382.00,94.05
3381.00,94.02
3380.00,94.01
3379.00,94.00
3378.00,94.00
3377.00,93.99
3376.00,93.95
3375.00,93.91
3374.00,93.87
3373.00,93.84
3372.00,93.81
3371.00,93.77
3370.00,93.72
3369.00,93.69
3368.00,93.67
3367.00,93.65
3366.00,93.64
3365.00,93.61
3364.00,93.59
3363.00,93.56
3362.00,93.54
3361.00,93.51
3360.00,93.47
3359.00,93.43
3358.00,93.40
3357.00,93.38
3356.00,93.36
3355.00,93.34
3354.00,93.30
3353.00,93.25
3352.00,93.20
3351.00,93.15
3350.00,93.12
3349.00,93.09
3348.00,93.07
3347.00,93.04
3346.00,93.02
3345.00,93.01
3344.00,93.00
3343.00,93.00
3342.00,92.99
3341.00,92.98
3340.00,92.95
3339.00,92.92
3338.00,92.89
3337.00,92.88
3336.00,92.86
3335.00,92.86
3334.00,92.86
3333.00,92.86
3332.00,92.86
3331.00,92.85
3330.00,92.84
3329.00,92.84
3328.00,92.85
3327.00,92.86
3326.00,92.88
3325.00,92.89
3324.00,92.90
3323.00,92.91
3322.00,92.94
3321.00,92.97
3320.00,93.00
3319.00,93.03
3318.00,93.05
3317.00,93.05
3316.00,93.05
3315.00,93.05
3314.00,93.04
3313.00,93.04
3312.00,93.05
3311.00,93.06
3310.00,93.06
3309.00,93.06
3308.00,93.05
3307.00,93.04
3306.00,93.03
3305.00,93.02
3304.00,93.02
3303.00,93.00
3302.00,92.99
3301.00,92.98
3300.00,92.97
3299.00,92.97
3298.00,92.98
3297.00,92.99
3296.00,93.00
3295.00,93.00
3294.00,92.98
3293.00,92.95
3292.00,92.93
3291.00,92.93
3290.00,92.94
3289.00,92.95
3288.00,92.96
3287.00,92.98
3286.00,93.00
3285.00,93.03
3284.00,93.05
3283.00,93.07
3282.00,93.07
3281.00,93.07
3280.00,93.06
3279.00,93.07
3278.00,93.08
3277.00,93.10
3276.00,93.11
3275.00,93.11
3274.00,93.10
3273.00,93.11
3272.00,93.14
3271.00,93.19
3270.00,93.23
3269.00,93.26
3268.00,93.27
3267.00,93.28
3266.00,93.30
3265.00,93.34
3264.00,93.37
3263.00,93.40
3262.00,93.42
3261.00,93.45
3260.00,93.48
3259.00,93.51
3258.00,93.54
3257.00,93.57
3256.00,93.61
3255.00,93.64
3254.00,93.67
3253.00,93.70
3252.00,93.72
3251.00,93.73
3250.00,93.76
3249.00,93.79
3248.00,93.83
3247.00,93.87
3246.00,93.91
3245.00,93.93
3244.00,93.94
3243.00,93.95
3242.00,93.96
3241.00,93.97
3240.00,93.99
3239.00,94.01
3238.00,94.05
3237.00,94.08
3236.00,94.10
3235.00,94.13
3234.00,94.15
3233.00,94.17
3232.00,94.19
3231.00,94.23
3230.00,94.26
3229.00,94.28
3228.00,94.31
3227.00,94.34
3226.00,94.38
3225.00,94.41
3224.00,94.44
3223.00,94.46
3222.00,94.49
3221.00,94.52
3220.00,94.56
3219.00,94.59
3218.00,94.60
3217.00,94.62
3216.00,94.65
3215.00,94.69
3214.00,94.73
3213.00,94.76
3212.00,94.79
3211.00,94.82
3210.00,94.85
3209.00,94.87
3208.00,94.89
3207.00,94.92
3206.00,94.95
3205.00,95.00
3204.00,95.04
3203.00,95.08
3202.00,95.09
3201.00,95.09
3200.00,95.10
3199.00,95.11
3198.00,95.13
3197.00,95.16
3196.00,95.19
3195.00,95.23
3194.00,95.26
3193.00,95.28
3192.00,95.29
3191.00,95.31
3190.00,95.34
3189.00,95.38
3188.00,95.42
3187.00,95.46
3186.00,95.50
3185.00,95.54
3184.00,95.58
3183.00,95.61
3182.00,95.64
3181.00,95.66
3180.00,95.68
3179.00,95.70
3178.00,95.72
3177.00,95.73
3176.00,95.75
3175.00,95.77
3174.00,95.80
3173.00,95.82
3172.00,95.84
3171.00,95.85
3170.00,95.87
3169.00,95.89
3168.00,95.92
3167.00,95.95
3166.00,95.98
3165.00,96.01
3164.00,96.04
3163.00,96.08
3162.00,96.11
3161.00,96.13
3160.00,96.14
3159.00,96.14
3158.00,96.15
3157.00,96.17
3156.00,96.19
3155.00,96.21
3154.00,96.25
3153.00,96.30
3152.00,96.35
3151.00,96.38
3150.00,96.40
3149.00,96.40
3148.00,96.40
3147.00,96.42
3146.00,96.46
3145.00,96.50
3144.00,96.55
3143.00,96.57
3142.00,96.58
3141.00,96.58
3140.00,96.58
3139.00,96.58
3138.00,96.58
3137.00,96.60
3136.00,96.62
3135.00,96.65
3134.00,96.68
3133.00,96.70
3132.00,96.71
3131.00,96.72
3130.00,96.73
3129.00,96.75
3128.00,96.77
3127.00,96.79
3126.00,96.81
3125.00,96.83
3124.00,96.85
3123.00,96.87
3122.00,96.89
3121.00,96.91
3120.00,96.93
3119.00,96.94
3118.00,96.95
3117.00,96.97
3116.00,96.99
3115.00,97.02
3114.00,97.06
3113.00,97.08
3112.00,97.10
3111.00,97.10
3110.00,97.09
3109.00,97.09
3108.00,97.09
3107.00,97.10
3106.00,97.14
3105.00,97.20
3104.00,97.24
3103.00,97.28
3102.00,97.31
3101.00,97.32
3100.00,97.34
3099.00,97.35
3098.00,97.35
3097.00,97.35
3096.00,97.37
3095.00,97.39
3094.00,97.43
3093.00,97.47
3092.00,97.50
3091.00,97.51
3090.00,97.51
3089.00,97.52
3088.00,97.52
3087.00,97.53
3086.00,97.54
3085.00,97.54
3084.00,97.55
3083.00,97.55
3082.00,97.55
3081.00,97.56
3080.00,97.57
3079.00,97.58
3078.00,97.61
3077.00,97.64
3076.00,97.68
3075.00,97.72
3074.00,97.75
3073.00,97.77
3072.00,97.77
3071.00,97.76
3070.00,97.76
3069.00,97.78
3068.00,97.80
3067.00,97.82
3066.00,97.84
3065.00,97.84
3064.00,97.85
3063.00,97.86
3062.00,97.86
3061.00,97.86
3060.00,97.86
3059.00,97.88
3058.00,97.90
3057.00,97.93
3056.00,97.95
3055.00,97.97
3054.00,97.97
3053.00,97.97
3052.00,97.97
3051.00,97.98
3050.00,98.00
3049.00,98.02
3048.00,98.04
3047.00,98.06
3046.00,98.09
3045.00,98.10
3044.00,98.11
3043.00,98.12
3042.00,98.14
3041.00,98.16
3040.00,98.18
3039.00,98.19
3038.00,98.19
3037.00,98.19
3036.00,98.18
3035.00,98.18
3034.00,98.20
3033.00,98.22
3032.00,98.23
3031.00,98.24
3030.00,98.24
3029.00,98.23
3028.00,98.23
3027.00,98.23
3026.00,98.23
3025.00,98.24
3024.00,98.25
3023.00,98.26
3022.00,98.27
3021.00,98.29
3020.00,98.32
3019.00,98.34
3018.00,98.36
3017.00,98.36
3016.00,98.35
3015.00,98.34
3014.00,98.34
3013.00,98.34
3012.00,98.36
3011.00,98.38
3010.00,98.40
3009.00,98.41
3008.00,98.41
3007.00,98.41
3006.00,98.42
3005.00,98.43
3004.00,98.44
3003.00,98.45
3002.00,98.47
3001.00,98.47
3000.00,98.46
2999.00,98.45
2998.00,98.44
2997.00,98.43
2996.00,98.44
2995.00,98.45
2994.00,98.46
2993.00,98.48
2992.00,98.49
2991.00,98.48
2990.00,98.46
2989.00,98.45
2988.00,98.44
2987.00,98.43
2986.00,98.42
2985.00,98.40
2984.00,98.40
2983.00,98.39
2982.00,98.39
2981.00,98.37
2980.00,98.34
2979.00,98.31
2978.00,98.28
2977.00,98.24
2976.00,98.21
2975.00,98.16
2974.00,98.11
2973.00,98.05
2972.00,97.99
2971.00,97.94
2970.00,97.91
2969.00,97.87
2968.00,97.83
2967.00,97.79
2966.00,97.75
2965.00,97.71
2964.00,97.68
2963.00,97.65
2962.00,97.60
2961.00,97.54
2960.00,97.48
2959.00,97.42
2958.00,97.37
2957.00,97.33
2956.00,97.28
2955.00,97.23
2954.00,97.18
2953.00,97.14
2952.00,97.12
2951.00,97.11
2950.00,97.09
2949.00,97.05
2948.00,97.00
2947.00,96.94
2946.00,96.88
2945.00,96.82
2944.00,96.75
2943.00,96.68
2942.00,96.62
2941.00,96.56
2940.00,96.50
2939.00,96.42
2938.00,96.33
2937.00,96.22
2936.00,96.12
2935.00,96.03
2934.00,95.94
2933.00,95.85
2932.00,95.73
2931.00,95.59
2930.00,95.44
2929.00,95.27
2928.00,95.08
2927.00,94.87
2926.00,94.66
2925.00,94.42
2924.00,94.15
2923.00,93.86
2922.00,93.60
2921.00,93.36
2920.00,93.15
2919.00,92.98
2918.00,92.87
2917.00,92.85
2916.00,92.92
2915.00,93.07
2914.00,93.28
2913.00,93.52
2912.00,93.76
2911.00,93.99
2910.00,94.19
2909.00,94.35
2908.00,94.48
2907.00,94.58
2906.00,94.66
2905.00,94.72
2904.00,94.78
2903.00,94.84
2902.00,94.89
2901.00,94.95
2900.00,95.00
2899.00,95.06
2898.00,95.10
2897.00,95.15
2896.00,95.20
2895.00,95.25
2894.00,95.30
2893.00,95.34
2892.00,95.39
2891.00,95.44
2890.00,95.49
2889.00,95.55
2888.00,95.62
2887.00,95.68
2886.00,95.75
2885.00,95.80
2884.00,95.85
2883.00,95.91
2882.00,95.96
2881.00,96.01
2880.00,96.05
2879.00,96.08
2878.00,96.09
2877.00,96.11
2876.00,96.12
2875.00,96.13
2874.00,96.14
2873.00,96.16
2872.00,96.17
2871.00,96.20
2870.00,96.21
2869.00,96.22
2868.00,96.20
2867.00,96.17
2866.00,96.13
2865.00,96.10
2864.00,96.06
2863.00,96.03
2862.00,96.00
2861.00,95.96
2860.00,95.90
2859.00,95.81
2858.00,95.70
2857.00,95.55
2856.00,95.36
2855.00,95.12
2854.00,94.84
2853.00,94.51
2852.00,94.19
2851.00,93.92
2850.00,93.77
2849.00,93.79
2848.00,94.00
2847.00,94.35
2846.00,94.78
2845.00,95.22
2844.00,95.61
2843.00,95.95
2842.00,96.22
2841.00,96.44
2840.00,96.64
2839.00,96.81
2838.00,96.94
2837.00,97.04
2836.00,97.11
2835.00,97.18
2834.00,97.25
2833.00,97.33
2832.00,97.39
2831.00,97.44
2830.00,97.47
2829.00,97.51
2828.00,97.54
2827.00,97.58
2826.00,97.62
2825.00,97.66
2824.00,97.70
2823.00,97.74
2822.00,97.76
2821.00,97.77
2820.00,97.79
2819.00,97.81
2818.00,97.85
2817.00,97.89
2816.00,97.93
2815.00,97.96
2814.00,97.97
2813.00,97.99
2812.00,97.99
2811.00,98.00
2810.00,98.02
2809.00,98.05
2808.00,98.08
2807.00,98.10
2806.00,98.10
2805.00,98.10
2804.00,98.10
2803.00,98.11
2802.00,98.13
2801.00,98.16
2800.00,98.18
2799.00,98.20
2798.00,98.22
2797.00,98.23
2796.00,98.24
2795.00,98.25
2794.00,98.27
2793.00,98.28
2792.00,98.29
2791.00,98.30
2790.00,98.29
2789.00,98.28
2788.00,98.28
2787.00,98.28
2786.00,98.30
2785.00,98.33
2784.00,98.35
2783.00,98.37
2782.00,98.37
2781.00,98.37
2780.00,98.37
2779.00,98.37
2778.00,98.39
2777.00,98.40
2776.00,98.41
2775.00,98.42
2774.00,98.42
2773.00,98.42
2772.00,98.43
2771.00,98.44
2770.00,98.44
2769.00,98.45
2768.00,98.46
2767.00,98.46
2766.00,98.47
2765.00,98.47
2764.00,98.47
2763.00,98.47
2762.00,98.47
2761.00,98.47
2760.00,98.47
2759.00,98.46
2758.00,98.46
2757.00,98.46
2756.00,98.46
2755.00,98.47
2754.00,98.49
2753.00,98.50
2752.00,98.50
2751.00,98.50
2750.00,98.51
2749.00,98.51
2748.00,98.52
2747.00,98.52
2746.00,98.53
2745.00,98.53
2744.00,98.53
2743.00,98.52
2742.00,98.50
2741.00,98.48
2740.00,98.48
2739.00,98.50
2738.00,98.51
2737.00,98.51
2736.00,98.50
2735.00,98.49
2734.00,98.49
2733.00,98.50
2732.00,98.51
2731.00,98.52
2730.00,98.53
2729.00,98.54
2728.00,98.55
2727.00,98.56
2726.00,98.56
2725.00,98.57
2724.00,98.58
2723.00,98.59
2722.00,98.61
2721.00,98.62
2720.00,98.63
2719.00,98.63
2718.00,98.62
2717.00,98.61
2716.00,98.61
2715.00,98.61
2714.00,98.61
2713.00,98.61
2712.00,98.61
2711.00,98.61
2710.00,98.62
2709.00,98.63
2708.00,98.64
2707.00,98.65
2706.00,98.66
2705.00,98.66
2704.00,98.65
2703.00,98.64
2702.00,98.65
2701.00,98.67
2700.00,98.69
2699.00,98.69
2698.00,98.68
2697.00,98.67
2696.00,98.67
2695.00,98.67
2694.00,98.68
2693.00,98.70
2692.00,98.70
2691.00,98.70
2690.00,98.69
2689.00,98.69
2688.00,98.69
2687.00,98.70
2686.00,98.71
2685.00,98.72
2684.00,98.72
2683.00,98.71
2682.00,98.70
2681.00,98.69
2680.00,98.69
2679.00,98.69
2678.00,98.70
2677.00,98.72
2676.00,98.74
2675.00,98.75
2674.00,98.75
2673.00,98.74
2672.00,98.74
2671.00,98.73
2670.00,98.73
2669.00,98.73
2668.00,98.74
2667.00,98.75
2666.00,98.77
2665.00,98.78
2664.00,98.78
2663.00,98.78
2662.00,98.78
2661.00,98.78
2660.00,98.78
2659.00,98.77
2658.00,98.76
2657.00,98.76
2656.00,98.76
2655.00,98.76
2654.00,98.75
2653.00,98.75
2652.00,98.74
2651.00,98.75
2650.00,98.76
2649.00,98.77
2648.00,98.76
2647.00,98.74
2646.00,98.73
2645.00,98.73
2644.00,98.74
2643.00,98.74
2642.00,98.74
2641.00,98.73
2640.00,98.72
2639.00,98.71
2638.00,98.71
2637.00,98.72
2636.00,98.74
2635.00,98.75
2634.00,98.76
2633.00,98.77
2632.00,98.76
2631.00,98.75
2630.00,98.74
2629.00,98.74
2628.00,98.75
2627.00,98.77
2626.00,98.78
2625.00,98.77
2624.00,98.75
2623.00,98.74
2622.00,98.75
2621.00,98.76
2620.00,98.77
2619.00,98.77
2618.00,98.76
2617.00,98.76
2616.00,98.77
2615.00,98.77
2614.00,98.77
2613.00,98.76
2612.00,98.77
2611.00,98.78
2610.00,98.78
2609.00,98.79
2608.00,98.79
2607.00,98.79
2606.00,98.79
2605.00,98.79
2604.00,98.78
2603.00,98.77
2602.00,98.77
2601.00,98.79
2600.00,98.80
2599.00,98.81
2598.00,98.80
2597.00,98.78
2596.00,98.76
2595.00,98.75
2594.00,98.74
2593.00,98.74
2592.00,98.74
2591.00,98.74
2590.00,98.75
2589.00,98.77
2588.00,98.79
2587.00,98.80
2586.00,98.80
2585.00,98.80
2584.00,98.80
2583.00,98.81
2582.00,98.81
2581.00,98.79
2580.00,98.76
2579.00,98.74
2578.00,98.74
2577.00,98.73
2576.00,98.73
2575.00,98.72
2574.00,98.72
2573.00,98.73
2572.00,98.76
2571.00,98.78
2570.00,98.81
2569.00,98.83
2568.00,98.85
2567.00,98.85
2566.00,98.82
2565.00,98.78
2564.00,98.74
2563.00,98.73
2562.00,98.74
2561.00,98.77
2560.00,98.80
2559.00,98.81
2558.00,98.82
2557.00,98.82
2556.00,98.82
2555.00,98.81
2554.00,98.80
2553.00,98.78
2552.00,98.78
2551.00,98.79
2550.00,98.81
2549.00,98.82
2548.00,98.84
2547.00,98.86
2546.00,98.86
2545.00,98.85
2544.00,98.82
2543.00,98.79
2542.00,98.78
2541.00,98.78
2540.00,98.79
2539.00,98.80
2538.00,98.80
2537.00,98.77
2536.00,98.75
2535.00,98.75
2534.00,98.75
2533.00,98.77
2532.00,98.77
2531.00,98.77
2530.00,98.76
2529.00,98.75
2528.00,98.74
2527.00,98.74
2526.00,98.75
2525.00,98.78
2524.00,98.81
2523.00,98.81
2522.00,98.80
2521.00,98.78
2520.00,98.76
2519.00,98.76
2518.00,98.77
2517.00,98.78
2516.00,98.80
2515.00,98.82
2514.00,98.85
2513.00,98.87
2512.00,98.89
2511.00,98.89
2510.00,98.89
2509.00,98.87
2508.00,98.85
2507.00,98.83
2506.00,98.81
2505.00,98.80
2504.00,98.81
2503.00,98.82
2502.00,98.83
2501.00,98.83
2500.00,98.83
2499.00,98.82
2498.00,98.84
2497.00,98.85
2496.00,98.85
2495.00,98.83
2494.00,98.81
2493.00,98.80
2492.00,98.82
2491.00,98.83
2490.00,98.84
2489.00,98.83
2488.00,98.82
2487.00,98.82
2486.00,98.82
2485.00,98.83
2484.00,98.83
2483.00,98.82
2482.00,98.82
2481.00,98.82
2480.00,98.83
2479.00,98.84
2478.00,98.86
2477.00,98.86
2476.00,98.86
2475.00,98.86
2474.00,98.86
2473.00,98.87
2472.00,98.88
2471.00,98.88
2470.00,98.88
2469.00,98.87
2468.00,98.86
2467.00,98.86
2466.00,98.86
2465.00,98.86
2464.00,98.86
2463.00,98.87
2462.00,98.88
2461.00,98.87
2460.00,98.86
2459.00,98.86
2458.00,98.86
2457.00,98.88
2456.00,98.91
2455.00,98.93
2454.00,98.94
2453.00,98.92
2452.00,98.89
2451.00,98.87
2450.00,98.87
2449.00,98.89
2448.00,98.92
2447.00,98.95
2446.00,98.94
2445.00,98.92
2444.00,98.91
2443.00,98.92
2442.00,98.94
2441.00,98.96
2440.00,98.97
2439.00,98.95
2438.00,98.93
2437.00,98.91
2436.00,98.90
2435.00,98.90
2434.00,98.90
2433.00,98.90
2432.00,98.91
2431.00,98.95
2430.00,98.98
2429.00,99.01
2428.00,99.01
2427.00,99.00
2426.00,98.99
2425.00,98.98
2424.00,98.97
2423.00,98.95
2422.00,98.94
2421.00,98.93
2420.00,98.93
2419.00,98.95
2418.00,98.96
2417.00,98.98
2416.00,98.99
2415.00,98.99
2414.00,98.99
2413.00,98.98
2412.00,98.98
2411.00,98.97
2410.00,98.97
2409.00,98.97
2408.00,98.99
2407.00,99.01
2406.00,99.04
2405.00,99.05
2404.00,99.03
2403.00,99.01
2402.00,99.00
2401.00,99.01
2400.00,99.05
2399.00,99.09
2398.00,99.12
2397.00,99.13
2396.00,99.12
2395.00,99.10
2394.00,99.08
2393.00,99.07
2392.00,99.08
2391.00,99.09
2390.00,99.10
2389.00,99.10
2388.00,99.09
2387.00,99.08
2386.00,99.08
2385.00,99.09
2384.00,99.09
2383.00,99.10
2382.00,99.11
2381.00,99.13
2380.00,99.15
2379.00,99.16
2378.00,99.16
2377.00,99.15
2376.00,99.14
2375.00,99.14
2374.00,99.16
2373.00,99.18
2372.00,99.18
2371.00,99.17
2370.00,99.15
2369.00,99.12
2368.00,99.11
2367.00,99.14
2366.00,99.18
2365.00,99.21
2364.00,99.22
2363.00,99.19
2362.00,99.15
2361.00,99.11
2360.00,99.10
2359.00,99.13
2358.00,99.15
2357.00,99.15
2356.00,99.14
2355.00,99.12
2354.00,99.12
2353.00,99.13
2352.00,99.15
2351.00,99.15
2350.00,99.15
2349.00,99.15
2348.00,99.15
2347.00,99.17
2346.00,99.21
2345.00,99.23
2344.00,99.23
2343.00,99.21
2342.00,99.18
2341.00,99.17
2340.00,99.15
2339.00,99.13
2338.00,99.11
2337.00,99.09
2336.00,99.07
2335.00,99.05
2334.00,99.05
2333.00,99.07
2332.00,99.09
2331.00,99.11
2330.00,99.12
2329.00,99.11
2328.00,99.08
2327.00,99.03
2326.00,98.98
2325.00,98.96
2324.00,98.96
2323.00,98.97
2322.00,98.98
2321.00,98.97
2320.00,98.95
2319.00,98.94
2318.00,98.95
2317.00,98.96
2316.00,98.97
2315.00,98.97
2314.00,98.97
2313.00,98.98
2312.00,98.99
2311.00,98.99
2310.00,98.99
2309.00,99.00
2308.00,99.00
2307.00,98.99
2306.00,98.97
2305.00,98.96
2304.00,98.94
2303.00,98.95
2302.00,98.96
2301.00,98.96
2300.00,98.95
2299.00,98.94
2298.00,98.91
2297.00,98.88
2296.00,98.85
2295.00,98.84
2294.00,98.83
2293.00,98.82
2292.00,98.80
2291.00,98.79
2290.00,98.78
2289.00,98.78
2288.00,98.77
2287.00,98.77
2286.00,98.75
2285.00,98.73
2284.00,98.71
2283.00,98.71
2282.00,98.72
2281.00,98.73
2280.00,98.73
2279.00,98.70
2278.00,98.68
2277.00,98.67
2276.00,98.68
2275.00,98.69
2274.00,98.69
2273.00,98.68
2272.00,98.67
2271.00,98.65
2270.00,98.63
2269.00,98.62
2268.00,98.62
2267.00,98.64
2266.00,98.66
2265.00,98.65
2264.00,98.63
2263.00,98.60
2262.00,98.58
2261.00,98.55
2260.00,98.52
2259.00,98.50
2258.00,98.50
2257.00,98.52
2256.00,98.55
2255.00,98.57
2254.00,98.57
2253.00,98.57
2252.00,98.56
2251.00,98.57
2250.00,98.59
2249.00,98.59
2248.00,98.56
2247.00,98.52
2246.00,98.49
2245.00,98.50
2244.00,98.52
2243.00,98.54
2242.00,98.54
2241.00,98.54
2240.00,98.54
2239.00,98.56
2238.00,98.57
2237.00,98.56
2236.00,98.53
2235.00,98.49
2234.00,98.47
2233.00,98.47
2232.00,98.48
2231.00,98.51
2230.00,98.53
2229.00,98.55
2228.00,98.53
2227.00,98.50
2226.00,98.47
2225.00,98.47
2224.00,98.49
2223.00,98.52
2222.00,98.53
2221.00,98.52
2220.00,98.51
2219.00,98.48
2218.00,98.44
2217.00,98.38
2216.00,98.32
2215.00,98.30
2214.00,98.31
2213.00,98.32
2212.00,98.30
2211.00,98.27
2210.00,98.26
2209.00,98.28
2208.00,98.33
2207.00,98.37
2206.00,98.40
2205.00,98.40
2204.00,98.37
2203.00,98.34
2202.00,98.32
2201.00,98.30
2200.00,98.29
2199.00,98.27
2198.00,98.25
2197.00,98.24
2196.00,98.22
2195.00,98.21
2194.00,98.20
2193.00,98.19
2192.00,98.19
2191.00,98.21
2190.00,98.23
2189.00,98.23
2188.00,98.21
2187.00,98.17
2186.00,98.13
2185.00,98.11
2184.00,98.12
2183.00,98.15
2182.00,98.19
2181.00,98.22
2180.00,98.23
2179.00,98.21
2178.00,98.20
2177.00,98.20
2176.00,98.22
2175.00,98.23
2174.00,98.23
2173.00,98.23
2172.00,98.22
2171.00,98.21
2170.00,98.18
2169.00,98.13
2168.00,98.06
2167.00,97.99
2166.00,97.91
2165.00,97.84
2164.00,97.78
2163.00,97.73
2162.00,97.72
2161.00,97.75
2160.00,97.85
2159.00,98.00
2158.00,98.17
2157.00,98.28
2156.00,98.33
2155.00,98.33
2154.00,98.32
2153.00,98.32
2152.00,98.33
2151.00,98.34
2150.00,98.33
2149.00,98.31
2148.00,98.29
2147.00,98.29
2146.00,98.30
2145.00,98.33
2144.00,98.36
2143.00,98.37
2142.00,98.38
2141.00,98.39
2140.00,98.41
2139.00,98.43
2138.00,98.45
2137.00,98.48
2136.00,98.50
2135.00,98.51
2134.00,98.49
2133.00,98.48
2132.00,98.50
2131.00,98.55
2130.00,98.62
2129.00,98.67
2128.00,98.69
2127.00,98.69
2126.00,98.67
2125.00,98.64
2124.00,98.61
2123.00,98.61
2122.00,98.61
2121.00,98.60
2120.00,98.57
2119.00,98.55
2118.00,98.54
2117.00,98.55
2116.00,98.56
2115.00,98.58
2114.00,98.60
2113.00,98.61
2112.00,98.61
2111.00,98.62
2110.00,98.63
2109.00,98.64
2108.00,98.63
2107.00,98.61
2106.00,98.59
2105.00,98.58
2104.00,98.58
2103.00,98.58
2102.00,98.58
2101.00,98.58
2100.00,98.58
2099.00,98.57
2098.00,98.57
2097.00,98.57
2096.00,98.55
2095.00,98.54
2094.00,98.53
2093.00,98.53
2092.00,98.53
2091.00,98.53
2090.00,98.53
2089.00,98.54
2088.00,98.56
2087.00,98.57
2086.00,98.57
2085.00,98.56
2084.00,98.54
2083.00,98.51
2082.00,98.48
2081.00,98.46
2080.00,98.46
2079.00,98.47
2078.00,98.47
2077.00,98.48
2076.00,98.48
2075.00,98.49
2074.00,98.50
2073.00,98.50
2072.00,98.49
2071.00,98.48
2070.00,98.46
2069.00,98.44
2068.00,98.42
2067.00,98.40
2066.00,98.39
2065.00,98.39
2064.00,98.39
2063.00,98.39
2062.00,98.41
2061.00,98.43
2060.00,98.41
2059.00,98.34
2058.00,98.27
2057.00,98.23
2056.00,98.23
2055.00,98.27
2054.00,98.29
2053.00,98.30
2052.00,98.28
2051.00,98.24
2050.00,98.21
2049.00,98.20
2048.00,98.22
2047.00,98.23
2046.00,98.24
2045.00,98.24
2044.00,98.23
2043.00,98.20
2042.00,98.17
2041.00,98.13
2040.00,98.10
2039.00,98.08
2038.00,98.06
2037.00,98.06
2036.00,98.06
2035.00,98.06
2034.00,98.04
2033.00,98.01
2032.00,98.00
2031.00,98.00
2030.00,98.02
2029.00,98.08
2028.00,98.18
2027.00,98.27
2026.00,98.29
2025.00,98.23
2024.00,98.12
2023.00,98.03
2022.00,97.99
2021.00,98.00
2020.00,98.03
2019.00,98.06
2018.00,98.09
2017.00,98.12
2016.00,98.17
2015.00,98.24
2014.00,98.30
2013.00,98.31
2012.00,98.28
2011.00,98.24
2010.00,98.20
2009.00,98.17
2008.00,98.16
2007.00,98.16
2006.00,98.19
2005.00,98.22
2004.00,98.27
2003.00,98.33
2002.00,98.40
2001.00,98.45
2000.00,98.47
1999.00,98.47
1998.00,98.45
1997.00,98.43
1996.00,98.40
1995.00,98.38
1994.00,98.38
1993.00,98.39
1992.00,98.40
1991.00,98.40
1990.00,98.40
1989.00,98.39
1988.00,98.37
1987.00,98.36
1986.00,98.34
1985.00,98.31
1984.00,98.29
1983.00,98.28
1982.00,98.27
1981.00,98.24
1980.00,98.18
1979.00,98.15
1978.00,98.15
1977.00,98.20
1976.00,98.24
1975.00,98.27
1974.00,98.27
1973.00,98.27
1972.00,98.27
1971.00,98.28
1970.00,98.30
1969.00,98.33
1968.00,98.36
1967.00,98.37
1966.00,98.36
1965.00,98.34
1964.00,98.33
1963.00,98.36
1962.00,98.42
1961.00,98.50
1960.00,98.55
1959.00,98.57
1958.00,98.55
1957.00,98.53
1956.00,98.52
1955.00,98.53
1954.00,98.55
1953.00,98.56
1952.00,98.56
1951.00,98.56
1950.00,98.57
1949.00,98.59
1948.00,98.62
1947.00,98.64
1946.00,98.65
1945.00,98.64
1944.00,98.63
1943.00,98.61
1942.00,98.60
1941.00,98.60
1940.00,98.63
1939.00,98.66
1938.00,98.71
1937.00,98.73
1936.00,98.73
1935.00,98.71
1934.00,98.69
1933.00,98.67
1932.00,98.66
1931.00,98.67
1930.00,98.70
1929.00,98.74
1928.00,98.77
1927.00,98.79
1926.00,98.81
1925.00,98.83
1924.00,98.84
1923.00,98.81
1922.00,98.76
1921.00,98.73
1920.00,98.76
1919.00,98.82
1918.00,98.87
1917.00,98.89
1916.00,98.87
1915.00,98.83
1914.00,98.80
1913.00,98.79
1912.00,98.79
1911.00,98.81
1910.00,98.81
1909.00,98.81
1908.00,98.81
1907.00,98.85
1906.00,98.90
1905.00,98.93
1904.00,98.92
1903.00,98.90
1902.00,98.88
1901.00,98.87
1900.00,98.86
1899.00,98.84
1898.00,98.84
1897.00,98.84
1896.00,98.86
1895.00,98.88
1894.00,98.88
1893.00,98.88
1892.00,98.88
1891.00,98.88
1890.00,98.88
1889.00,98.88
1888.00,98.88
1887.00,98.87
1886.00,98.86
1885.00,98.85
1884.00,98.85
1883.00,98.86
1882.00,98.88
1881.00,98.92
1880.00,98.95
1879.00,98.98
1878.00,99.00
1877.00,99.00
1876.00,99.00
1875.00,98.99
1874.00,98.98
1873.00,98.97
1872.00,98.96
1871.00,98.95
1870.00,98.95
1869.00,98.95
1868.00,98.95
1867.00,98.95
1866.00,98.95
1865.00,98.93
1864.00,98.91
1863.00,98.88
1862.00,98.87
1861.00,98.87
1860.00,98.90
1859.00,98.92
1858.00,98.95
1857.00,98.98
1856.00,99.00
1855.00,99.01
1854.00,99.01
1853.00,99.01
1852.00,99.01
1851.00,99.02
1850.00,99.04
1849.00,99.06
1848.00,99.06
1847.00,99.05
1846.00,99.03
1845.00,99.01
1844.00,98.99
1843.00,99.00
1842.00,99.02
1841.00,99.04
1840.00,99.06
1839.00,99.06
1838.00,99.05
1837.00,99.03
1836.00,99.03
1835.00,99.03
1834.00,99.02
1833.00,98.99
1832.00,98.97
1831.00,98.96
1830.00,98.97
1829.00,98.99
1828.00,99.00
1827.00,98.99
1826.00,98.98
1825.00,98.98
1824.00,98.98
1823.00,98.99
1822.00,99.00
1821.00,99.00
1820.00,99.01
1819.00,99.02
1818.00,99.04
1817.00,99.05
1816.00,99.05
1815.00,99.04
1814.00,99.02
1813.00,99.00
1812.00,98.99
1811.00,98.98
1810.00,98.97
1809.00,98.97
1808.00,98.98
1807.00,99.00
1806.00,99.01
1805.00,99.01
1804.00,98.99
1803.00,98.99
1802.00,99.00
1801.00,99.02
1800.00,99.02
1799.00,99.02
1798.00,99.01
1797.00,98.99
1796.00,98.97
1795.00,98.97
1794.00,98.97
1793.00,98.98
1792.00,98.97
1791.00,98.96
1790.00,98.95
1789.00,98.95
1788.00,98.95
1787.00,98.95
1786.00,98.94
1785.00,98.93
1784.00,98.92
1783.00,98.91
1782.00,98.91
1781.00,98.92
1780.00,98.92
1779.00,98.92
1778.00,98.93
1777.00,98.93
1776.00,98.94
1775.00,98.94
1774.00,98.95
1773.00,98.94
1772.00,98.89
1771.00,98.84
1770.00,98.80
1769.00,98.80
1768.00,98.81
1767.00,98.83
1766.00,98.83
1765.00,98.83
1764.00,98.82
1763.00,98.80
1762.00,98.77
1761.00,98.74
1760.00,98.72
1759.00,98.71
1758.00,98.71
1757.00,98.69
1756.00,98.66
1755.00,98.62
1754.00,98.59
1753.00,98.56
1752.00,98.51
1751.00,98.44
1750.00,98.36
1749.00,98.29
1748.00,98.23
1747.00,98.17
1746.00,98.09
1745.00,97.99
1744.00,97.87
1743.00,97.75
1742.00,97.63
1741.00,97.49
1740.00,97.33
1739.00,97.15
1738.00,97.01
1737.00,96.90
1736.00,96.81
1735.00,96.73
1734.00,96.68
1733.00,96.66
1732.00,96.67
1731.00,96.71
1730.00,96.76
1729.00,96.82
1728.00,96.87
1727.00,96.91
1726.00,96.95
1725.00,96.98
1724.00,97.01
1723.00,97.04
1722.00,97.08
1721.00,97.11
1720.00,97.14
1719.00,97.18
1718.00,97.21
1717.00,97.23
1716.00,97.23
1715.00,97.24
1714.00,97.25
1713.00,97.27
1712.00,97.29
1711.00,97.32
1710.00,97.33
1709.00,97.34
1708.00,97.34
1707.00,97.35
1706.00,97.37
1705.00,97.38
1704.00,97.39
1703.00,97.39
1702.00,97.40
1701.00,97.43
1700.00,97.46
1699.00,97.49
1698.00,97.50
1697.00,97.51
1696.00,97.50
1695.00,97.50
1694.00,97.51
1693.00,97.53
1692.00,97.54
1691.00,97.55
1690.00,97.55
1689.00,97.54
1688.00,97.50
1687.00,97.47
1686.00,97.43
1685.00,97.39
1684.00,97.34
1683.00,97.31
1682.00,97.31
1681.00,97.30
1680.00,97.30
1679.00,97.30
1678.00,97.29
1677.00,97.25
1676.00,97.18
1675.00,97.11
1674.00,97.06
1673.00,97.03
1672.00,97.01
1671.00,96.98
1670.00,96.94
1669.00,96.89
1668.00,96.83
1667.00,96.79
1666.00,96.75
1665.00,96.71
1664.00,96.68
1663.00,96.64
1662.00,96.60
1661.00,96.56
1660.00,96.51
1659.00,96.46
1658.00,96.42
1657.00,96.37
1656.00,96.33
1655.00,96.31
1654.00,96.32
1653.00,96.29
1652.00,96.25
1651.00,96.21
1650.00,96.18
1649.00,96.15
1648.00,96.14
1647.00,96.13
1646.00,96.13
1645.00,96.11
1644.00,96.09
1643.00,96.06
1642.00,96.06
1641.00,96.05
1640.00,96.04
1639.00,96.02
1638.00,96.01
1637.00,96.00
1636.00,96.00
1635.00,96.00
1634.00,96.00
1633.00,96.01
1632.00,96.01
1631.00,96.01
1630.00,96.01
1629.00,96.03
1628.00,96.04
1627.00,96.04
1626.00,96.04
1625.00,96.04
1624.00,96.04
1623.00,96.06
1622.00,96.08
1621.00,96.09
1620.00,96.08
1619.00,96.08
1618.00,96.09
1617.00,96.13
1616.00,96.17
1615.00,96.21
1614.00,96.22
1613.00,96.23
1612.00,96.23
1611.00,96.23
1610.00,96.25
1609.00,96.28
1608.00,96.31
1607.00,96.33
1606.00,96.33
1605.00,96.33
1604.00,96.33
1603.00,96.34
1602.00,96.36
1601.00,96.37
1600.00,96.37
1599.00,96.38
1598.00,96.41
1597.00,96.43
1596.00,96.46
1595.00,96.49
1594.00,96.52
1593.00,96.54
1592.00,96.57
1591.00,96.61
1590.00,96.65
1589.00,96.69
1588.00,96.72
1587.00,96.75
1586.00,96.78
1585.00,96.81
1584.00,96.84
1583.00,96.86
1582.00,96.89
1581.00,96.91
1580.00,96.93
1579.00,96.95
1578.00,96.98
1577.00,97.02
1576.00,97.07
1575.00,97.09
1574.00,97.11
1573.00,97.12
1572.00,97.13
1571.00,97.16
1570.00,97.21
1569.00,97.26
1568.00,97.28
1567.00,97.30
1566.00,97.31
1565.00,97.31
1564.00,97.31
1563.00,97.29
1562.00,97.27
1561.00,97.26
1560.00,97.28
1559.00,97.33
1558.00,97.37
1557.00,97.39
1556.00,97.39
1555.00,97.39
1554.00,97.39
1553.00,97.37
1552.00,97.36
1551.00,97.37
1550.00,97.39
1549.00,97.41
1548.00,97.42
1547.00,97.42
1546.00,97.43
1545.00,97.43
1544.00,97.43
1543.00,97.43
1542.00,97.44
1541.00,97.46
1540.00,97.49
1539.00,97.52
1538.00,97.55
1537.00,97.56
1536.00,97.57
1535.00,97.58
1534.00,97.59
1533.00,97.62
1532.00,97.64
1531.00,97.66
1530.00,97.67
1529.00,97.67
1528.00,97.68
1527.00,97.69
1526.00,97.70
1525.00,97.70
1524.00,97.69
1523.00,97.69
1522.00,97.72
1521.00,97.75
1520.00,97.76
1519.00,97.75
1518.00,97.74
1517.00,97.74
1516.00,97.74
1515.00,97.75
1514.00,97.75
1513.00,97.76
1512.00,97.75
1511.00,97.74
1510.00,97.72
1509.00,97.72
1508.00,97.76
1507.00,97.83
1506.00,97.87
1505.00,97.87
1504.00,97.86
1503.00,97.86
1502.00,97.86
1501.00,97.87
1500.00,97.87
1499.00,97.87
1498.00,97.88
1497.00,97.89
1496.00,97.90
1495.00,97.89
1494.00,97.86
1493.00,97.82
1492.00,97.77
1491.00,97.73
1490.00,97.72
1489.00,97.72
1488.00,97.70
1487.00,97.67
1486.00,97.63
1485.00,97.58
1484.00,97.52
1483.00,97.45
1482.00,97.39
1481.00,97.33
1480.00,97.26
1479.00,97.19
1478.00,97.09
1477.00,96.95
1476.00,96.77
1475.00,96.55
1474.00,96.34
1473.00,96.18
1472.00,96.13
1471.00,96.16
1470.00,96.18
1469.00,96.15
1468.00,96.08
1467.00,95.96
1466.00,95.81
1465.00,95.61
1464.00,95.44
1463.00,95.36
1462.00,95.36
1461.00,95.40
1460.00,95.44
1459.00,95.47
1458.00,95.48
1457.00,95.47
1456.00,95.47
1455.00,95.46
1454.00,95.45
1453.00,95.44
1452.00,95.43
1451.00,95.42
1450.00,95.42
1449.00,95.42
1448.00,95.40
1447.00,95.39
1446.00,95.37
1445.00,95.36
1444.00,95.34
1443.00,95.32
1442.00,95.29
1441.00,95.25
1440.00,95.19
1439.00,95.12
1438.00,95.06
1437.00,94.99
1436.00,94.91
1435.00,94.83
1434.00,94.75
1433.00,94.67
1432.00,94.59
1431.00,94.51
1430.00,94.44
1429.00,94.38
1428.00,94.33
1427.00,94.30
1426.00,94.29
1425.00,94.29
1424.00,94.31
1423.00,94.33
1422.00,94.34
1421.00,94.34
1420.00,94.38
1419.00,94.45
1418.00,94.56
1417.00,94.66
1416.00,94.75
1415.00,94.82
1414.00,94.88
1413.00,94.93
1412.00,94.98
1411.00,95.04
1410.00,95.10
1409.00,95.15
1408.00,95.19
1407.00,95.23
1406.00,95.27
1405.00,95.32
1404.00,95.36
1403.00,95.39
1402.00,95.39
1401.00,95.38
1400.00,95.36
1399.00,95.36
1398.00,95.37
1397.00,95.40
1396.00,95.43
1395.00,95.46
1394.00,95.48
1393.00,95.48
1392.00,95.47
1391.00,95.44
1390.00,95.41
1389.00,95.36
1388.00,95.32
1387.00,95.27
1386.00,95.21
1385.00,95.13
1384.00,95.03
1383.00,94.91
1382.00,94.79
1381.00,94.65
1380.00,94.50
1379.00,94.36
1378.00,94.22
1377.00,94.09
1376.00,93.97
1375.00,93.85
1374.00,93.75
1373.00,93.66
1372.00,93.57
1371.00,93.51
1370.00,93.46
1369.00,93.45
1368.00,93.46
1367.00,93.47
1366.00,93.48
1365.00,93.48
1364.00,93.47
1363.00,93.47
1362.00,93.49
1361.00,93.52
1360.00,93.56
1359.00,93.60
1358.00,93.64
1357.00,93.68
1356.00,93.73
1355.00,93.77
1354.00,93.81
1353.00,93.86
1352.00,93.92
1351.00,93.96
1350.00,93.99
1349.00,94.01
1348.00,94.01
1347.00,94.00
1346.00,93.96
1345.00,93.90
1344.00,93.81
1343.00,93.72
1342.00,93.63
1341.00,93.54
1340.00,93.46
1339.00,93.40
1338.00,93.36
1337.00,93.32
1336.00,93.29
1335.00,93.26
1334.00,93.25
1333.00,93.26
1332.00,93.30
1331.00,93.34
1330.00,93.38
1329.00,93.40
1328.00,93.42
1327.00,93.42
1326.00,93.41
1325.00,93.37
1324.00,93.31
1323.00,93.24
1322.00,93.15
1321.00,93.04
1320.00,92.92
1319.00,92.81
1318.00,92.71
1317.00,92.63
1316.00,92.55
1315.00,92.49
1314.00,92.47
1313.00,92.50
1312.00,92.57
1311.00,92.69
1310.00,92.82
1309.00,92.95
1308.00,93.07
1307.00,93.19
1306.00,93.32
1305.00,93.45
1304.00,93.59
1303.00,93.72
1302.00,93.85
1301.00,93.97
1300.00,94.08
1299.00,94.17
1298.00,94.24
1297.00,94.30
1296.00,94.35
1295.00,94.40
1294.00,94.43
1293.00,94.45
1292.00,94.47
1291.00,94.49
1290.00,94.50
1289.00,94.51
1288.00,94.51
1287.00,94.50
1286.00,94.48
1285.00,94.43
1284.00,94.37
1283.00,94.31
1282.00,94.25
1281.00,94.21
1280.00,94.19
1279.00,94.20
1278.00,94.21
1277.00,94.23
1276.00,94.24
1275.00,94.26
1274.00,94.29
1273.00,94.31
1272.00,94.34
1271.00,94.37
1270.00,94.39
1269.00,94.39
1268.00,94.39
1267.00,94.39
1266.00,94.39
1265.00,94.40
1264.00,94.42
1263.00,94.43
1262.00,94.44
1261.00,94.45
1260.00,94.46
1259.00,94.47
1258.00,94.48
1257.00,94.48
1256.00,94.47
1255.00,94.47
1254.00,94.46
1253.00,94.46
1252.00,94.45
1251.00,94.44
1250.00,94.41
1249.00,94.39
1248.00,94.37
1247.00,94.36
1246.00,94.37
1245.00,94.38
1244.00,94.40
1243.00,94.43
1242.00,94.48
1241.00,94.52
1240.00,94.55
1239.00,94.57
1238.00,94.58
1237.00,94.57
1236.00,94.56
1235.00,94.56
1234.00,94.58
1233.00,94.64
1232.00,94.71
1231.00,94.79
1230.00,94.86
1229.00,94.92
1228.00,94.98
1227.00,95.06
1226.00,95.15
1225.00,95.23
1224.00,95.30
1223.00,95.36
1222.00,95.42
1221.00,95.48
1220.00,95.53
1219.00,95.58
1218.00,95.61
1217.00,95.64
1216.00,95.65
1215.00,95.64
1214.00,95.61
1213.00,95.58
1212.00,95.54
1211.00,95.48
1210.00,95.40
1209.00,95.31
1208.00,95.20
1207.00,95.11
1206.00,95.03
1205.00,94.97
1204.00,94.93
1203.00,94.92
1202.00,94.92
1201.00,94.93
1200.00,94.95
1199.00,94.99
1198.00,95.05
1197.00,95.12
1196.00,95.18
1195.00,95.24
1194.00,95.29
1193.00,95.36
1192.00,95.43
1191.00,95.50
1190.00,95.57
1189.00,95.61
1188.00,95.62
1187.00,95.62
1186.00,95.61
1185.00,95.58
1184.00,95.54
1183.00,95.47
1182.00,95.37
1181.00,95.25
1180.00,95.11
1179.00,94.98
1178.00,94.83
1177.00,94.66
1176.00,94.47
1175.00,94.26
1174.00,94.06
1173.00,93.85
1172.00,93.62
1171.00,93.38
1170.00,93.11
1169.00,92.83
1168.00,92.54
1167.00,92.25
1166.00,91.98
1165.00,91.72
1164.00,91.48
1163.00,91.27
1162.00,91.11
1161.00,90.97
1160.00,90.87
1159.00,90.82
1158.00,90.81
1157.00,90.81
1156.00,90.82
1155.00,90.83
1154.00,90.86
1153.00,90.91
1152.00,90.98
1151.00,91.08
1150.00,91.19
1149.00,91.28
1148.00,91.36
1147.00,91.44
1146.00,91.55
1145.00,91.68
1144.00,91.81
1143.00,91.94
1142.00,92.07
1141.00,92.19
1140.00,92.30
1139.00,92.37
1138.00,92.40
1137.00,92.39
1136.00,92.35
1135.00,92.29
1134.00,92.21
1133.00,92.12
1132.00,92.04
1131.00,91.95
1130.00,91.82
1129.00,91.64
1128.00,91.43
1127.00,91.19
1126.00,90.94
1125.00,90.68
1124.00,90.43
1123.00,90.20
1122.00,90.02
1121.00,89.84
1120.00,89.66
1119.00,89.43
1118.00,89.17
1117.00,88.86
1116.00,88.51
1115.00,88.14
1114.00,87.76
1113.00,87.39
1112.00,87.05
1111.00,86.75
1110.00,86.51
1109.00,86.34
1108.00,86.22
1107.00,86.14
1106.00,86.07
1105.00,86.02
1104.00,86.00
1103.00,86.00
1102.00,86.04
1101.00,86.08
1100.00,86.12
1099.00,86.18
1098.00,86.27
1097.00,86.40
1096.00,86.54
1095.00,86.68
1094.00,86.80
1093.00,86.89
1092.00,86.98
1091.00,87.05
1090.00,87.11
1089.00,87.14
1088.00,87.13
1087.00,87.12
1086.00,87.12
1085.00,87.14
1084.00,87.14
1083.00,87.14
1082.00,87.10
1081.00,87.01
1080.00,86.89
1079.00,86.75
1078.00,86.61
1077.00,86.46
1076.00,86.28
1075.00,86.08
1074.00,85.88
1073.00,85.71
1072.00,85.54
1071.00,85.36
1070.00,85.15
1069.00,84.90
1068.00,84.62
1067.00,84.32
1066.00,84.00
1065.00,83.65
1064.00,83.27
1063.00,82.88
1062.00,82.49
1061.00,82.09
1060.00,81.70
1059.00,81.34
1058.00,81.02
1057.00,80.73
1056.00,80.48
1055.00,80.29
1054.00,80.16
1053.00,80.06
1052.00,79.98
1051.00,79.93
1050.00,79.93
1049.00,79.98
1048.00,80.05
1047.00,80.14
1046.00,80.21
1045.00,80.28
1044.00,80.34
1043.00,80.40
1042.00,80.45
1041.00,80.44
1040.00,80.36
1039.00,80.24
1038.00,80.08
1037.00,79.90
1036.00,79.69
1035.00,79.47
1034.00,79.26
1033.00,79.07
1032.00,78.90
1031.00,78.76
1030.00,78.67
1029.00,78.61
1028.00,78.56
1027.00,78.55
1026.00,78.56
1025.00,78.57
1024.00,78.59
1023.00,78.64
1022.00,78.70
1021.00,78.78
1020.00,78.85
1019.00,78.93
1018.00,79.00
1017.00,79.06
1016.00,79.11
1015.00,79.15
1014.00,79.19
1013.00,79.21
1012.00,79.23
1011.00,79.24
1010.00,79.27
1009.00,79.28
1008.00,79.27
1007.00,79.25
1006.00,79.24
1005.00,79.23
1004.00,79.23
1003.00,79.24
1002.00,79.27
1001.00,79.31
1000.00,79.37
999.00,79.44
998.00,79.54
997.00,79.65
996.00,79.75
995.00,79.86
994.00,79.96
993.00,80.04
992.00,80.10
991.00,80.15
990.00,80.20
989.00,80.24
988.00,80.25
987.00,80.24
986.00,80.23
985.00,80.23
984.00,80.29
983.00,80.41
982.00,80.59
981.00,80.82
980.00,81.09
979.00,81.39
978.00,81.72
977.00,82.06
976.00,82.38
975.00,82.68
974.00,82.97
973.00,83.23
972.00,83.48
971.00,83.74
970.00,84.00
969.00,84.24
968.00,84.46
967.00,84.65
966.00,84.82
965.00,84.98
964.00,85.14
963.00,85.30
962.00,85.45
961.00,85.58
960.00,85.71
959.00,85.86
958.00,86.02
957.00,86.19
956.00,86.35
955.00,86.50
954.00,86.64
953.00,86.78
952.00,86.93
951.00,87.10
950.00,87.28
949.00,87.45
948.00,87.60
947.00,87.72
946.00,87.82
945.00,87.92
944.00,88.03
943.00,88.17
942.00,88.32
941.00,88.46
940.00,88.57
939.00,88.66
938.00,88.75
937.00,88.85
936.00,88.94
935.00,89.04
934.00,89.13
933.00,89.21
932.00,89.29
931.00,89.36
930.00,89.45
929.00,89.54
928.00,89.62
927.00,89.70
926.00,89.77
925.00,89.84
924.00,89.89
923.00,89.94
922.00,90.00
921.00,90.04
920.00,90.10
919.00,90.16
918.00,90.21
917.00,90.24
916.00,90.25
915.00,90.25
914.00,90.26
913.00,90.27
912.00,90.29
911.00,90.34
910.00,90.38
909.00,90.40
908.00,90.39
907.00,90.35
906.00,90.30
905.00,90.23
904.00,90.15
903.00,90.06
902.00,89.98
901.00,89.93
900.00,89.87
899.00,89.83
898.00,89.80
897.00,89.78
896.00,89.77
895.00,89.77
894.00,89.81
893.00,89.86
892.00,89.92
891.00,89.96
890.00,90.00
889.00,90.07
888.00,90.15
887.00,90.26
886.00,90.36
885.00,90.45
884.00,90.53
883.00,90.60
882.00,90.67
881.00,90.73
880.00,90.81
879.00,90.89
878.00,90.99
877.00,91.07
876.00,91.15
875.00,91.21
874.00,91.26
873.00,91.32
872.00,91.37
871.00,91.43
870.00,91.48
869.00,91.53
868.00,91.56
867.00,91.59
866.00,91.64
865.00,91.71
864.00,91.77
863.00,91.82
862.00,91.87
861.00,91.91
860.00,91.94
859.00,91.99
858.00,92.05
857.00,92.12
856.00,92.17
855.00,92.20
854.00,92.22
853.00,92.25
852.00,92.28
851.00,92.32
850.00,92.35
849.00,92.36
848.00,92.36
847.00,92.35
846.00,92.35
845.00,92.37
844.00,92.40
843.00,92.44
842.00,92.47
841.00,92.49
840.00,92.48
839.00,92.46
838.00,92.43
837.00,92.43
836.00,92.43
835.00,92.43
834.00,92.41
833.00,92.38
832.00,92.33
831.00,92.29
830.00,92.26
829.00,92.24
828.00,92.25
827.00,92.25
826.00,92.27
825.00,92.27
824.00,92.28
823.00,92.28
822.00,92.29
821.00,92.29
820.00,92.25
819.00,92.18
818.00,92.12
817.00,92.08
816.00,92.05
815.00,92.02
814.00,91.98
813.00,91.95
812.00,91.93
811.00,91.91
810.00,91.90
809.00,91.88
808.00,91.88
807.00,91.88
806.00,91.88
805.00,91.87
804.00,91.85
803.00,91.84
802.00,91.83
801.00,91.82
800.00,91.82
799.00,91.82
798.00,91.83
797.00,91.83
796.00,91.81
795.00,91.78
794.00,91.77
793.00,91.76
792.00,91.75
791.00,91.73
790.00,91.73
789.00,91.72
788.00,91.71
787.00,91.70
786.00,91.68
785.00,91.65
784.00,91.63
783.00,91.60
782.00,91.58
781.00,91.55
780.00,91.51
779.00,91.48
778.00,91.46
777.00,91.45
776.00,91.44
775.00,91.43
774.00,91.41
773.00,91.39
772.00,91.37
771.00,91.35
770.00,91.34
769.00,91.32
768.00,91.29
767.00,91.23
766.00,91.17
765.00,91.11
764.00,91.06
763.00,91.04
762.00,91.02
761.00,90.97
760.00,90.90
759.00,90.82
758.00,90.76
757.00,90.72
756.00,90.70
755.00,90.69
754.00,90.68
753.00,90.67
752.00,90.65
751.00,90.62
750.00,90.59
749.00,90.54
748.00,90.49
747.00,90.44
746.00,90.40
745.00,90.36
744.00,90.31
743.00,90.24
742.00,90.17
741.00,90.10
740.00,90.05
739.00,90.01
738.00,89.98
737.00,89.93
736.00,89.86
735.00,89.77
734.00,89.70
733.00,89.64
732.00,89.57
731.00,89.46
730.00,89.30
729.00,89.13
728.00,88.98
727.00,88.88
726.00,88.81
725.00,88.73
724.00,88.61
723.00,88.43
722.00,88.20
721.00,87.95
720.00,87.76
719.00,87.68
718.00,87.70
717.00,87.74
716.00,87.74
715.00,87.69
714.00,87.63
713.00,87.56
712.00,87.49
711.00,87.42
710.00,87.35
709.00,87.27
708.00,87.19
707.00,87.13
706.00,87.11
705.00,87.10
704.00,87.09
703.00,87.08
702.00,87.07
701.00,87.03
700.00,86.96
699.00,86.89
698.00,86.86
697.00,86.84
696.00,86.80
695.00,86.76
694.00,86.73
693.00,86.70
692.00,86.65
691.00,86.62
690.00,86.64
689.00,86.71
688.00,86.76
687.00,86.76
686.00,86.72
685.00,86.63
684.00,86.48
683.00,86.30
682.00,86.15
681.00,86.05
680.00,85.99
679.00,85.91
678.00,85.76
677.00,85.55
676.00,85.33
675.00,85.14
674.00,85.00
673.00,84.84
672.00,84.67
671.00,84.51
670.00,84.35
669.00,84.12
668.00,83.83
667.00,83.63
666.00,83.55
665.00,83.50
664.00,83.45
663.00,83.38
662.00,83.33
661.00,83.32
660.00,83.35
659.00,83.41
658.00,83.48
657.00,83.54
656.00,83.58
655.00,83.65
654.00,83.76
653.00,83.84
652.00,83.87
651.00,83.88
650.00,83.95
649.00,84.07
648.00,84.16
647.00,84.16
646.00,84.07
645.00,83.97
644.00,83.87
643.00,83.79
642.00,83.72
641.00,83.65
640.00,83.59
639.00,83.54
638.00,83.48
637.00,83.35
636.00,83.15
635.00,82.97
634.00,82.86
633.00,82.82
632.00,82.82
631.00,82.87
630.00,82.97
629.00,83.03
628.00,82.95
627.00,82.71
626.00,82.39
625.00,82.10
624.00,81.90
623.00,81.80
622.00,81.70
621.00,81.53
620.00,81.29
619.00,81.07
618.00,80.84
617.00,80.56
616.00,80.29
615.00,80.20
614.00,80.32
613.00,80.41
612.00,80.28
611.00,80.07
610.00,80.00
609.00,80.11
608.00,80.30
607.00,80.45
606.00,80.51
605.00,80.44
604.00,80.18
603.00,79.73
602.00,79.20
601.00,78.80
600.00,78.78
599.00,79.23
598.00,79.90
597.00,80.40
596.00,80.54
595.00,80.36
594.00,80.04
593.00,79.69
592.00,79.47
591.00,79.46
590.00,79.54
589.00,79.43
588.00,79.14
587.00,78.97
586.00,79.13
585.00,79.42
584.00,79.55
583.00,79.46
582.00,79.26
581.00,79.00
580.00,78.70
579.00,78.44
578.00,78.23
577.00,78.03
576.00,78.06
575.00,78.59
574.00,79.45
573.00,80.05
572.00,80.08
571.00,79.74
570.00,79.35
569.00,78.97
568.00,78.60
567.00,78.35
566.00,78.19
565.00,77.93
564.00,77.61
563.00,77.44
562.00,77.38
561.00,77.21
560.00,77.12
559.00,77.50
558.00,78.21
557.00,78.43
556.00,77.74
555.00,76.66
554.00,75.93
553.00,75.74
552.00,76.06
551.00,77.06
550.00,78.37
