Created as New Dataset,Linen/SS (NC)
cm-1,%T
4000.00,96.91
3999.00,96.90
3998.00,96.89
3997.00,96.86
3996.00,96.84
3995.00,96.84
3994.00,96.85
3993.00,96.87
3992.00,96.89
3991.00,96.90
3990.00,96.91
3989.00,96.91
3988.00,96.90
3987.00,96.89
3986.00,96.88
3985.00,96.87
3984.00,96.87
3983.00,96.88
3982.00,96.89
3981.00,96.89
3980.00,96.89
3979.00,96.88
3978.00,96.88
3977.00,96.87
3976.00,96.87
3975.00,96.87
3974.00,96.88
3973.00,96.89
3972.00,96.91
3971.00,96.92
3970.00,96.93
3969.00,96.94
3968.00,96.95
3967.00,96.95
3966.00,96.94
3965.00,96.93
3964.00,96.90
3963.00,96.88
3962.00,96.88
3961.00,96.88
3960.00,96.89
3959.00,96.89
3958.00,96.88
3957.00,96.88
3956.00,96.88
3955.00,96.89
3954.00,96.91
3953.00,96.92
3952.00,96.95
3951.00,96.97
3950.00,96.99
3949.00,97.00
3948.00,96.99
3947.00,96.96
3946.00,96.93
3945.00,96.92
3944.00,96.93
3943.00,96.94
3942.00,96.94
3941.00,96.93
3940.00,96.91
3939.00,96.91
3938.00,96.93
3937.00,96.94
3936.00,96.95
3935.00,96.94
3934.00,96.93
3933.00,96.91
3932.00,96.91
3931.00,96.91
3930.00,96.91
3929.00,96.91
3928.00,96.90
3927.00,96.89
3926.00,96.89
3925.00,96.90
3924.00,96.91
3923.00,96.93
3922.00,96.95
3921.00,96.96
3920.00,96.97
3919.00,96.96
3918.00,96.94
3917.00,96.92
3916.00,96.92
3915.00,96.93
3914.00,96.94
3913.00,96.95
3912.00,96.95
3911.00,96.95
3910.00,96.95
3909.00,96.95
3908.00,96.94
3907.00,96.93
3906.00,96.93
3905.00,96.93
3904.00,96.94
3903.00,96.96
3902.00,96.98
3901.00,96.98
3900.00,96.96
3899.00,96.94
3898.00,96.91
3897.00,96.90
3896.00,96.90
3895.00,96.93
3894.00,96.96
3893.00,97.00
3892.00,97.02
3891.00,97.01
3890.00,96.99
3889.00,96.96
3888.00,96.93
3887.00,96.93
3886.00,96.94
3885.00,96.94
3884.00,96.92
3883.00,96.91
3882.00,96.90
3881.00,96.92
3880.00,96.94
3879.00,96.95
3878.00,96.94
3877.00,96.93
3876.00,96.93
3875.00,96.94
3874.00,96.93
3873.00,96.91
3872.00,96.90
3871.00,96.90
3870.00,96.91
3869.00,96.91
3868.00,96.91
3867.00,96.91
3866.00,96.94
3865.00,96.97
3864.00,96.99
3863.00,96.97
3862.00,96.95
3861.00,96.93
3860.00,96.92
3859.00,96.93
3858.00,96.94
3857.00,96.95
3856.00,96.96
3855.00,96.96
3854.00,96.95
3853.00,96.91
3852.00,96.87
3851.00,96.87
3850.00,96.88
3849.00,96.90
3848.00,96.92
3847.00,96.93
3846.00,96.93
3845.00,96.93
3844.00,96.92
3843.00,96.90
3842.00,96.88
3841.00,96.87
3840.00,96.87
3839.00,96.90
3838.00,96.92
3837.00,96.94
3836.00,96.94
3835.00,96.94
3834.00,96.93
3833.00,96.91
3832.00,96.89
3831.00,96.87
3830.00,96.86
3829.00,96.86
3828.00,96.87
3827.00,96.88
3826.00,96.88
3825.00,96.87
3824.00,96.86
3823.00,96.88
3822.00,96.91
3821.00,96.93
3820.00,96.92
3819.00,96.89
3818.00,96.87
3817.00,96.87
3816.00,96.88
3815.00,96.87
3814.00,96.86
3813.00,96.84
3812.00,96.85
3811.00,96.86
3810.00,96.88
3809.00,96.90
3808.00,96.91
3807.00,96.91
3806.00,96.90
3805.00,96.88
3804.00,96.89
3803.00,96.91
3802.00,96.93
3801.00,96.93
3800.00,96.90
3799.00,96.90
3798.00,96.92
3797.00,96.94
3796.00,96.93
3795.00,96.90
3794.00,96.87
3793.00,96.86
3792.00,96.89
3791.00,96.92
3790.00,96.94
3789.00,96.94
3788.00,96.93
3787.00,96.91
3786.00,96.90
3785.00,96.89
3784.00,96.87
3783.00,96.85
3782.00,96.83
3781.00,96.83
3780.00,96.84
3779.00,96.86
3778.00,96.87
3777.00,96.88
3776.00,96.88
3775.00,96.89
3774.00,96.89
3773.00,96.89
3772.00,96.89
3771.00,96.88
3770.00,96.87
3769.00,96.85
3768.00,96.85
3767.00,96.84
3766.00,96.83
3765.00,96.81
3764.00,96.79
3763.00,96.76
3762.00,96.75
3761.00,96.77
3760.00,96.80
3759.00,96.81
3758.00,96.82
3757.00,96.80
3756.00,96.77
3755.00,96.74
3754.00,96.72
3753.00,96.72
3752.00,96.74
3751.00,96.76
3750.00,96.76
3749.00,96.75
3748.00,96.71
3747.00,96.67
3746.00,96.65
3745.00,96.64
3744.00,96.63
3743.00,96.62
3742.00,96.64
3741.00,96.67
3740.00,96.70
3739.00,96.70
3738.00,96.68
3737.00,96.66
3736.00,96.66
3735.00,96.67
3734.00,96.69
3733.00,96.71
3732.00,96.73
3731.00,96.74
3730.00,96.75
3729.00,96.76
3728.00,96.77
3727.00,96.77
3726.00,96.76
3725.00,96.73
3724.00,96.70
3723.00,96.68
3722.00,96.65
3721.00,96.64
3720.00,96.63
3719.00,96.63
3718.00,96.63
3717.00,96.63
3716.00,96.63
3715.00,96.64
3714.00,96.65
3713.00,96.66
3712.00,96.67
3711.00,96.66
3710.00,96.65
3709.00,96.64
3708.00,96.65
3707.00,96.66
3706.00,96.68
3705.00,96.69
3704.00,96.69
3703.00,96.69
3702.00,96.67
3701.00,96.65
3700.00,96.63
3699.00,96.64
3698.00,96.66
3697.00,96.69
3696.00,96.71
3695.00,96.70
3694.00,96.67
3693.00,96.63
3692.00,96.59
3691.00,96.55
3690.00,96.52
3689.00,96.49
3688.00,96.48
3687.00,96.47
3686.00,96.47
3685.00,96.48
3684.00,96.48
3683.00,96.49
3682.00,96.50
3681.00,96.51
3680.00,96.49
3679.00,96.46
3678.00,96.43
3677.00,96.41
3676.00,96.40
3675.00,96.37
3674.00,96.33
3673.00,96.30
3672.00,96.31
3671.00,96.34
3670.00,96.35
3669.00,96.33
3668.00,96.30
3667.00,96.28
3666.00,96.28
3665.00,96.29
3664.00,96.30
3663.00,96.30
3662.00,96.29
3661.00,96.27
3660.00,96.24
3659.00,96.22
3658.00,96.19
3657.00,96.17
3656.00,96.14
3655.00,96.11
3654.00,96.07
3653.00,96.03
3652.00,95.99
3651.00,95.97
3650.00,95.94
3649.00,95.91
3648.00,95.88
3647.00,95.85
3646.00,95.83
3645.00,95.82
3644.00,95.80
3643.00,95.79
3642.00,95.76
3641.00,95.74
3640.00,95.73
3639.00,95.70
3638.00,95.67
3637.00,95.63
3636.00,95.59
3635.00,95.54
3634.00,95.50
3633.00,95.45
3632.00,95.39
3631.00,95.34
3630.00,95.30
3629.00,95.27
3628.00,95.23
3627.00,95.19
3626.00,95.17
3625.00,95.16
3624.00,95.14
3623.00,95.11
3622.00,95.06
3621.00,95.00
3620.00,94.94
3619.00,94.88
3618.00,94.82
3617.00,94.77
3616.00,94.73
3615.00,94.69
3614.00,94.66
3613.00,94.62
3612.00,94.58
3611.00,94.56
3610.00,94.53
3609.00,94.50
3608.00,94.45
3607.00,94.37
3606.00,94.30
3605.00,94.24
3604.00,94.20
3603.00,94.18
3602.00,94.15
3601.00,94.11
3600.00,94.06
3599.00,94.00
3598.00,93.94
3597.00,93.88
3596.00,93.84
3595.00,93.80
3594.00,93.75
3593.00,93.69
3592.00,93.63
3591.00,93.57
3590.00,93.51
3589.00,93.46
3588.00,93.40
3587.00,93.32
3586.00,93.24
3585.00,93.17
3584.00,93.12
3583.00,93.07
3582.00,93.01
3581.00,92.96
3580.00,92.90
3579.00,92.86
3578.00,92.83
3577.00,92.79
3576.00,92.74
3575.00,92.69
3574.00,92.62
3573.00,92.53
3572.00,92.44
3571.00,92.35
3570.00,92.27
3569.00,92.20
3568.00,92.12
3567.00,92.03
3566.00,91.93
3565.00,91.85
3564.00,91.78
3563.00,91.74
3562.00,91.71
3561.00,91.68
3560.00,91.64
3559.00,91.57
3558.00,91.49
3557.00,91.41
3556.00,91.36
3555.00,91.32
3554.00,91.28
3553.00,91.22
3552.00,91.14
3551.00,91.05
3550.00,90.96
3549.00,90.88
3548.00,90.81
3547.00,90.74
3546.00,90.66
3545.00,90.56
3544.00,90.46
3543.00,90.37
3542.00,90.30
3541.00,90.25
3540.00,90.20
3539.00,90.14
3538.00,90.09
3537.00,90.02
3536.00,89.95
3535.00,89.87
3534.00,89.79
3533.00,89.72
3532.00,89.66
3531.00,89.60
3530.00,89.53
3529.00,89.45
3528.00,89.37
3527.00,89.27
3526.00,89.18
3525.00,89.09
3524.00,89.01
3523.00,88.94
3522.00,88.87
3521.00,88.81
3520.00,88.75
3519.00,88.69
3518.00,88.62
3517.00,88.54
3516.00,88.46
3515.00,88.36
3514.00,88.27
3513.00,88.18
3512.00,88.09
3511.00,88.01
3510.00,87.94
3509.00,87.86
3508.00,87.79
3507.00,87.71
3506.00,87.63
3505.00,87.55
3504.00,87.47
3503.00,87.38
3502.00,87.29
3501.00,87.20
3500.00,87.09
3499.00,86.99
3498.00,86.89
3497.00,86.80
3496.00,86.72
3495.00,86.64
3494.00,86.55
3493.00,86.45
3492.00,86.35
3491.00,86.25
3490.00,86.15
3489.00,86.05
3488.00,85.95
3487.00,85.84
3486.00,85.73
3485.00,85.62
3484.00,85.52
3483.00,85.44
3482.00,85.37
3481.00,85.29
3480.00,85.19
3479.00,85.09
3478.00,84.98
3477.00,84.87
3476.00,84.75
3475.00,84.65
3474.00,84.54
3473.00,84.45
3472.00,84.37
3471.00,84.28
3470.00,84.18
3469.00,84.07
3468.00,83.96
3467.00,83.85
3466.00,83.73
3465.00,83.62
3464.00,83.50
3463.00,83.39
3462.00,83.28
3461.00,83.17
3460.00,83.08
3459.00,82.99
3458.00,82.89
3457.00,82.79
3456.00,82.67
3455.00,82.55
3454.00,82.44
3453.00,82.34
3452.00,82.24
3451.00,82.14
3450.00,82.02
3449.00,81.89
3448.00,81.77
3447.00,81.67
3446.00,81.58
3445.00,81.49
3444.00,81.41
3443.00,81.31
3442.00,81.21
3441.00,81.09
3440.00,80.98
3439.00,80.87
3438.00,80.77
3437.00,80.67
3436.00,80.57
3435.00,80.48
3434.00,80.38
3433.00,80.27
3432.00,80.15
3431.00,80.04
3430.00,79.93
3429.00,79.82
3428.00,79.73
3427.00,79.63
3426.00,79.52
3425.00,79.40
3424.00,79.27
3423.00,79.14
3422.00,79.03
3421.00,78.92
3420.00,78.82
3419.00,78.71
3418.00,78.58
3417.00,78.44
3416.00,78.30
3415.00,78.16
3414.00,78.04
3413.00,77.94
3412.00,77.84
3411.00,77.75
3410.00,77.64
3409.00,77.53
3408.00,77.43
3407.00,77.32
3406.00,77.22
3405.00,77.11
3404.00,77.01
3403.00,76.91
3402.00,76.81
3401.00,76.73
3400.00,76.64
3399.00,76.56
3398.00,76.49
3397.00,76.41
3396.00,76.34
3395.00,76.27
3394.00,76.19
3393.00,76.11
3392.00,76.03
3391.00,75.95
3390.00,75.88
3389.00,75.79
3388.00,75.70
3387.00,75.62
3386.00,75.53
3385.00,75.44
3384.00,75.34
3383.00,75.22
3382.00,75.11
3381.00,75.01
3380.00,74.91
3379.00,74.82
3378.00,74.73
3377.00,74.63
3376.00,74.52
3375.00,74.40
3374.00,74.28
3373.00,74.17
3372.00,74.07
3371.00,73.97
3370.00,73.86
3369.00,73.74
3368.00,73.61
3367.00,73.49
3366.00,73.38
3365.00,73.28
3364.00,73.18
3363.00,73.08
3362.00,72.97
3361.00,72.84
3360.00,72.71
3359.00,72.58
3358.00,72.44
3357.00,72.31
3356.00,72.17
3355.00,72.04
3354.00,71.91
3353.00,71.79
3352.00,71.67
3351.00,71.57
3350.00,71.46
3349.00,71.35
3348.00,71.23
3347.00,71.10
3346.00,70.96
3345.00,70.83
3344.00,70.71
3343.00,70.61
3342.00,70.52
3341.00,70.45
3340.00,70.39
3339.00,70.34
3338.00,70.30
3337.00,70.24
3336.00,70.19
3335.00,70.14
3334.00,70.12
3333.00,70.12
3332.00,70.13
3331.00,70.15
3330.00,70.16
3329.00,70.18
3328.00,70.23
3327.00,70.29
3326.00,70.35
3325.00,70.42
3324.00,70.47
3323.00,70.51
3322.00,70.56
3321.00,70.62
3320.00,70.69
3319.00,70.77
3318.00,70.83
3317.00,70.89
3316.00,70.94
3315.00,71.00
3314.00,71.05
3313.00,71.08
3312.00,71.11
3311.00,71.14
3310.00,71.16
3309.00,71.19
3308.00,71.21
3307.00,71.22
3306.00,71.21
3305.00,71.20
3304.00,71.20
3303.00,71.21
3302.00,71.22
3301.00,71.21
3300.00,71.20
3299.00,71.20
3298.00,71.22
3297.00,71.24
3296.00,71.27
3295.00,71.28
3294.00,71.28
3293.00,71.29
3292.00,71.30
3291.00,71.31
3290.00,71.32
3289.00,71.33
3288.00,71.34
3287.00,71.36
3286.00,71.37
3285.00,71.39
3284.00,71.43
3283.00,71.47
3282.00,71.51
3281.00,71.54
3280.00,71.57
3279.00,71.61
3278.00,71.66
3277.00,71.71
3276.00,71.76
3275.00,71.81
3274.00,71.86
3273.00,71.92
3272.00,71.98
3271.00,72.05
3270.00,72.14
3269.00,72.23
3268.00,72.33
3267.00,72.43
3266.00,72.54
3265.00,72.64
3264.00,72.74
3263.00,72.84
3262.00,72.96
3261.00,73.08
3260.00,73.22
3259.00,73.36
3258.00,73.50
3257.00,73.63
3256.00,73.75
3255.00,73.87
3254.00,74.00
3253.00,74.13
3252.00,74.26
3251.00,74.39
3250.00,74.52
3249.00,74.64
3248.00,74.77
3247.00,74.91
3246.00,75.04
3245.00,75.18
3244.00,75.31
3243.00,75.42
3242.00,75.52
3241.00,75.61
3240.00,75.71
3239.00,75.82
3238.00,75.93
3237.00,76.04
3236.00,76.16
3235.00,76.28
3234.00,76.40
3233.00,76.52
3232.00,76.64
3231.00,76.76
3230.00,76.86
3229.00,76.95
3228.00,77.03
3227.00,77.11
3226.00,77.21
3225.00,77.33
3224.00,77.45
3223.00,77.58
3222.00,77.70
3221.00,77.82
3220.00,77.94
3219.00,78.05
3218.00,78.17
3217.00,78.29
3216.00,78.41
3215.00,78.53
3214.00,78.64
3213.00,78.75
3212.00,78.86
3211.00,78.97
3210.00,79.08
3209.00,79.19
3208.00,79.31
3207.00,79.44
3206.00,79.56
3205.00,79.67
3204.00,79.78
3203.00,79.90
3202.00,80.01
3201.00,80.11
3200.00,80.20
3199.00,80.30
3198.00,80.40
3197.00,80.50
3196.00,80.61
3195.00,80.72
3194.00,80.81
3193.00,80.90
3192.00,80.98
3191.00,81.07
3190.00,81.17
3189.00,81.28
3188.00,81.40
3187.00,81.50
3186.00,81.59
3185.00,81.67
3184.00,81.76
3183.00,81.86
3182.00,81.96
3181.00,82.06
3180.00,82.15
3179.00,82.25
3178.00,82.35
3177.00,82.44
3176.00,82.52
3175.00,82.61
3174.00,82.70
3173.00,82.78
3172.00,82.87
3171.00,82.95
3170.00,83.01
3169.00,83.08
3168.00,83.15
3167.00,83.23
3166.00,83.32
3165.00,83.42
3164.00,83.52
3163.00,83.62
3162.00,83.72
3161.00,83.82
3160.00,83.91
3159.00,83.99
3158.00,84.06
3157.00,84.14
3156.00,84.21
3155.00,84.28
3154.00,84.35
3153.00,84.42
3152.00,84.51
3151.00,84.60
3150.00,84.69
3149.00,84.77
3148.00,84.83
3147.00,84.90
3146.00,84.97
3145.00,85.05
3144.00,85.13
3143.00,85.20
3142.00,85.27
3141.00,85.34
3140.00,85.41
3139.00,85.49
3138.00,85.55
3137.00,85.61
3136.00,85.66
3135.00,85.73
3134.00,85.80
3133.00,85.89
3132.00,85.99
3131.00,86.07
3130.00,86.15
3129.00,86.22
3128.00,86.28
3127.00,86.33
3126.00,86.40
3125.00,86.46
3124.00,86.53
3123.00,86.59
3122.00,86.65
3121.00,86.72
3120.00,86.79
3119.00,86.86
3118.00,86.94
3117.00,87.00
3116.00,87.06
3115.00,87.11
3114.00,87.17
3113.00,87.23
3112.00,87.29
3111.00,87.35
3110.00,87.42
3109.00,87.48
3108.00,87.54
3107.00,87.59
3106.00,87.63
3105.00,87.68
3104.00,87.74
3103.00,87.81
3102.00,87.89
3101.00,87.96
3100.00,88.02
3099.00,88.08
3098.00,88.12
3097.00,88.16
3096.00,88.21
3095.00,88.27
3094.00,88.34
3093.00,88.41
3092.00,88.47
3091.00,88.52
3090.00,88.56
3089.00,88.60
3088.00,88.64
3087.00,88.69
3086.00,88.75
3085.00,88.79
3084.00,88.84
3083.00,88.88
3082.00,88.93
3081.00,88.98
3080.00,89.03
3079.00,89.08
3078.00,89.13
3077.00,89.18
3076.00,89.24
3075.00,89.30
3074.00,89.36
3073.00,89.42
3072.00,89.47
3071.00,89.52
3070.00,89.56
3069.00,89.60
3068.00,89.63
3067.00,89.67
3066.00,89.71
3065.00,89.76
3064.00,89.81
3063.00,89.86
3062.00,89.90
3061.00,89.95
3060.00,89.99
3059.00,90.04
3058.00,90.08
3057.00,90.13
3056.00,90.18
3055.00,90.24
3054.00,90.29
3053.00,90.34
3052.00,90.38
3051.00,90.41
3050.00,90.44
3049.00,90.46
3048.00,90.50
3047.00,90.54
3046.00,90.58
3045.00,90.62
3044.00,90.67
3043.00,90.72
3042.00,90.76
3041.00,90.79
3040.00,90.81
3039.00,90.84
3038.00,90.88
3037.00,90.92
3036.00,90.96
3035.00,90.99
3034.00,91.02
3033.00,91.05
3032.00,91.09
3031.00,91.13
3030.00,91.16
3029.00,91.19
3028.00,91.20
3027.00,91.22
3026.00,91.25
3025.00,91.28
3024.00,91.32
3023.00,91.36
3022.00,91.39
3021.00,91.42
3020.00,91.43
3019.00,91.43
3018.00,91.43
3017.00,91.45
3016.00,91.48
3015.00,91.52
3014.00,91.54
3013.00,91.56
3012.00,91.58
3011.00,91.59
3010.00,91.61
3009.00,91.63
3008.00,91.65
3007.00,91.66
3006.00,91.68
3005.00,91.69
3004.00,91.71
3003.00,91.72
3002.00,91.73
3001.00,91.75
3000.00,91.78
2999.00,91.81
2998.00,91.82
2997.00,91.83
2996.00,91.83
2995.00,91.83
2994.00,91.81
2993.00,91.80
2992.00,91.79
2991.00,91.78
2990.00,91.78
2989.00,91.77
2988.00,91.76
2987.00,91.73
2986.00,91.70
2985.00,91.66
2984.00,91.62
2983.00,91.58
2982.00,91.54
2981.00,91.50
2980.00,91.45
2979.00,91.39
2978.00,91.30
2977.00,91.18
2976.00,91.06
2975.00,90.93
2974.00,90.81
2973.00,90.68
2972.00,90.56
2971.00,90.44
2970.00,90.34
2969.00,90.24
2968.00,90.17
2967.00,90.11
2966.00,90.06
2965.00,90.02
2964.00,89.98
2963.00,89.93
2962.00,89.86
2961.00,89.79
2960.00,89.70
2959.00,89.59
2958.00,89.47
2957.00,89.37
2956.00,89.26
2955.00,89.15
2954.00,89.01
2953.00,88.86
2952.00,88.70
2951.00,88.54
2950.00,88.39
2949.00,88.25
2948.00,88.13
2947.00,88.01
2946.00,87.90
2945.00,87.80
2944.00,87.70
2943.00,87.59
2942.00,87.48
2941.00,87.37
2940.00,87.27
2939.00,87.16
2938.00,87.05
2937.00,86.94
2936.00,86.81
2935.00,86.68
2934.00,86.55
2933.00,86.40
2932.00,86.25
2931.00,86.08
2930.00,85.89
2929.00,85.72
2928.00,85.55
2927.00,85.38
2926.00,85.21
2925.00,85.03
2924.00,84.87
2923.00,84.71
2922.00,84.57
2921.00,84.43
2920.00,84.31
2919.00,84.22
2918.00,84.16
2917.00,84.14
2916.00,84.14
2915.00,84.15
2914.00,84.17
2913.00,84.20
2912.00,84.24
2911.00,84.27
2910.00,84.29
2909.00,84.30
2908.00,84.29
2907.00,84.26
2906.00,84.24
2905.00,84.21
2904.00,84.20
2903.00,84.18
2902.00,84.17
2901.00,84.16
2900.00,84.16
2899.00,84.19
2898.00,84.24
2897.00,84.30
2896.00,84.36
2895.00,84.43
2894.00,84.51
2893.00,84.60
2892.00,84.70
2891.00,84.80
2890.00,84.89
2889.00,84.98
2888.00,85.08
2887.00,85.17
2886.00,85.27
2885.00,85.36
2884.00,85.44
2883.00,85.51
2882.00,85.57
2881.00,85.63
2880.00,85.70
2879.00,85.76
2878.00,85.80
2877.00,85.84
2876.00,85.86
2875.00,85.87
2874.00,85.88
2873.00,85.88
2872.00,85.89
2871.00,85.90
2870.00,85.91
2869.00,85.93
2868.00,85.96
2867.00,85.99
2866.00,86.01
2865.00,86.04
2864.00,86.06
2863.00,86.08
2862.00,86.09
2861.00,86.08
2860.00,86.05
2859.00,86.02
2858.00,86.00
2857.00,85.99
2856.00,85.98
2855.00,85.96
2854.00,85.95
2853.00,85.95
2852.00,86.00
2851.00,86.12
2850.00,86.30
2849.00,86.55
2848.00,86.83
2847.00,87.12
2846.00,87.42
2845.00,87.71
2844.00,87.98
2843.00,88.21
2842.00,88.43
2841.00,88.63
2840.00,88.82
2839.00,89.00
2838.00,89.17
2837.00,89.33
2836.00,89.47
2835.00,89.59
2834.00,89.68
2833.00,89.77
2832.00,89.85
2831.00,89.94
2830.00,90.03
2829.00,90.12
2828.00,90.19
2827.00,90.26
2826.00,90.31
2825.00,90.37
2824.00,90.42
2823.00,90.49
2822.00,90.55
2821.00,90.61
2820.00,90.67
2819.00,90.72
2818.00,90.77
2817.00,90.82
2816.00,90.86
2815.00,90.91
2814.00,90.96
2813.00,91.01
2812.00,91.05
2811.00,91.09
2810.00,91.14
2809.00,91.18
2808.00,91.22
2807.00,91.27
2806.00,91.31
2805.00,91.35
2804.00,91.38
2803.00,91.42
2802.00,91.46
2801.00,91.50
2800.00,91.53
2799.00,91.54
2798.00,91.56
2797.00,91.59
2796.00,91.63
2795.00,91.67
2794.00,91.70
2793.00,91.74
2792.00,91.76
2791.00,91.79
2790.00,91.81
2789.00,91.84
2788.00,91.87
2787.00,91.90
2786.00,91.92
2785.00,91.95
2784.00,91.97
2783.00,91.98
2782.00,91.98
2781.00,91.97
2780.00,91.97
2779.00,91.98
2778.00,92.01
2777.00,92.04
2776.00,92.07
2775.00,92.09
2774.00,92.10
2773.00,92.11
2772.00,92.12
2771.00,92.14
2770.00,92.17
2769.00,92.19
2768.00,92.20
2767.00,92.20
2766.00,92.20
2765.00,92.19
2764.00,92.19
2763.00,92.21
2762.00,92.23
2761.00,92.24
2760.00,92.25
2759.00,92.26
2758.00,92.28
2757.00,92.29
2756.00,92.29
2755.00,92.29
2754.00,92.28
2753.00,92.28
2752.00,92.27
2751.00,92.28
2750.00,92.30
2749.00,92.32
2748.00,92.33
2747.00,92.34
2746.00,92.34
2745.00,92.33
2744.00,92.33
2743.00,92.33
2742.00,92.33
2741.00,92.35
2740.00,92.36
2739.00,92.38
2738.00,92.38
2737.00,92.37
2736.00,92.36
2735.00,92.36
2734.00,92.37
2733.00,92.39
2732.00,92.40
2731.00,92.41
2730.00,92.43
2729.00,92.46
2728.00,92.48
2727.00,92.50
2726.00,92.50
2725.00,92.50
2724.00,92.50
2723.00,92.50
2722.00,92.51
2721.00,92.51
2720.00,92.51
2719.00,92.51
2718.00,92.51
2717.00,92.52
2716.00,92.54
2715.00,92.56
2714.00,92.58
2713.00,92.60
2712.00,92.63
2711.00,92.65
2710.00,92.67
2709.00,92.68
2708.00,92.68
2707.00,92.69
2706.00,92.69
2705.00,92.69
2704.00,92.70
2703.00,92.72
2702.00,92.75
2701.00,92.77
2700.00,92.79
2699.00,92.81
2698.00,92.83
2697.00,92.85
2696.00,92.87
2695.00,92.88
2694.00,92.90
2693.00,92.92
2692.00,92.93
2691.00,92.95
2690.00,92.95
2689.00,92.96
2688.00,92.96
2687.00,92.98
2686.00,93.00
2685.00,93.02
2684.00,93.04
2683.00,93.05
2682.00,93.06
2681.00,93.06
2680.00,93.07
2679.00,93.08
2678.00,93.09
2677.00,93.10
2676.00,93.11
2675.00,93.12
2674.00,93.14
2673.00,93.16
2672.00,93.19
2671.00,93.20
2670.00,93.21
2669.00,93.22
2668.00,93.21
2667.00,93.20
2666.00,93.18
2665.00,93.17
2664.00,93.18
2663.00,93.19
2662.00,93.20
2661.00,93.20
2660.00,93.20
2659.00,93.21
2658.00,93.22
2657.00,93.23
2656.00,93.25
2655.00,93.26
2654.00,93.26
2653.00,93.25
2652.00,93.23
2651.00,93.22
2650.00,93.21
2649.00,93.21
2648.00,93.22
2647.00,93.23
2646.00,93.24
2645.00,93.24
2644.00,93.23
2643.00,93.21
2642.00,93.20
2641.00,93.21
2640.00,93.22
2639.00,93.23
2638.00,93.23
2637.00,93.22
2636.00,93.22
2635.00,93.22
2634.00,93.22
2633.00,93.22
2632.00,93.22
2631.00,93.22
2630.00,93.23
2629.00,93.23
2628.00,93.22
2627.00,93.22
2626.00,93.23
2625.00,93.23
2624.00,93.23
2623.00,93.24
2622.00,93.24
2621.00,93.25
2620.00,93.25
2619.00,93.25
2618.00,93.26
2617.00,93.28
2616.00,93.28
2615.00,93.28
2614.00,93.27
2613.00,93.28
2612.00,93.30
2611.00,93.31
2610.00,93.31
2609.00,93.29
2608.00,93.27
2607.00,93.25
2606.00,93.23
2605.00,93.23
2604.00,93.24
2603.00,93.24
2602.00,93.23
2601.00,93.23
2600.00,93.23
2599.00,93.26
2598.00,93.28
2597.00,93.30
2596.00,93.31
2595.00,93.31
2594.00,93.30
2593.00,93.28
2592.00,93.27
2591.00,93.27
2590.00,93.29
2589.00,93.29
2588.00,93.29
2587.00,93.29
2586.00,93.30
2585.00,93.31
2584.00,93.32
2583.00,93.32
2582.00,93.31
2581.00,93.32
2580.00,93.33
2579.00,93.34
2578.00,93.35
2577.00,93.34
2576.00,93.34
2575.00,93.35
2574.00,93.34
2573.00,93.32
2572.00,93.29
2571.00,93.26
2570.00,93.25
2569.00,93.25
2568.00,93.24
2567.00,93.24
2566.00,93.23
2565.00,93.24
2564.00,93.26
2563.00,93.28
2562.00,93.30
2561.00,93.32
2560.00,93.34
2559.00,93.35
2558.00,93.36
2557.00,93.35
2556.00,93.34
2555.00,93.31
2554.00,93.30
2553.00,93.29
2552.00,93.29
2551.00,93.30
2550.00,93.31
2549.00,93.32
2548.00,93.33
2547.00,93.32
2546.00,93.30
2545.00,93.28
2544.00,93.28
2543.00,93.29
2542.00,93.31
2541.00,93.31
2540.00,93.31
2539.00,93.31
2538.00,93.31
2537.00,93.30
2536.00,93.28
2535.00,93.26
2534.00,93.25
2533.00,93.23
2532.00,93.23
2531.00,93.22
2530.00,93.21
2529.00,93.21
2528.00,93.21
2527.00,93.23
2526.00,93.26
2525.00,93.30
2524.00,93.32
2523.00,93.33
2522.00,93.33
2521.00,93.32
2520.00,93.32
2519.00,93.34
2518.00,93.35
2517.00,93.36
2516.00,93.36
2515.00,93.37
2514.00,93.38
2513.00,93.39
2512.00,93.40
2511.00,93.40
2510.00,93.40
2509.00,93.40
2508.00,93.41
2507.00,93.42
2506.00,93.43
2505.00,93.44
2504.00,93.46
2503.00,93.48
2502.00,93.50
2501.00,93.50
2500.00,93.49
2499.00,93.49
2498.00,93.51
2497.00,93.53
2496.00,93.54
2495.00,93.54
2494.00,93.54
2493.00,93.55
2492.00,93.57
2491.00,93.58
2490.00,93.58
2489.00,93.58
2488.00,93.58
2487.00,93.59
2486.00,93.59
2485.00,93.58
2484.00,93.57
2483.00,93.57
2482.00,93.57
2481.00,93.58
2480.00,93.59
2479.00,93.62
2478.00,93.65
2477.00,93.66
2476.00,93.67
2475.00,93.67
2474.00,93.67
2473.00,93.66
2472.00,93.66
2471.00,93.65
2470.00,93.65
2469.00,93.65
2468.00,93.67
2467.00,93.69
2466.00,93.71
2465.00,93.72
2464.00,93.73
2463.00,93.74
2462.00,93.73
2461.00,93.71
2460.00,93.69
2459.00,93.68
2458.00,93.69
2457.00,93.69
2456.00,93.70
2455.00,93.69
2454.00,93.69
2453.00,93.69
2452.00,93.70
2451.00,93.72
2450.00,93.73
2449.00,93.73
2448.00,93.73
2447.00,93.74
2446.00,93.76
2445.00,93.76
2444.00,93.75
2443.00,93.76
2442.00,93.77
2441.00,93.77
2440.00,93.76
2439.00,93.76
2438.00,93.77
2437.00,93.79
2436.00,93.83
2435.00,93.87
2434.00,93.88
2433.00,93.88
2432.00,93.87
2431.00,93.86
2430.00,93.87
2429.00,93.88
2428.00,93.89
2427.00,93.90
2426.00,93.90
2425.00,93.90
2424.00,93.91
2423.00,93.93
2422.00,93.95
2421.00,93.97
2420.00,93.99
2419.00,93.99
2418.00,93.98
2417.00,93.98
2416.00,93.98
2415.00,93.99
2414.00,93.99
2413.00,93.99
2412.00,93.99
2411.00,94.01
2410.00,94.04
2409.00,94.08
2408.00,94.12
2407.00,94.15
2406.00,94.17
2405.00,94.16
2404.00,94.13
2403.00,94.11
2402.00,94.11
2401.00,94.13
2400.00,94.17
2399.00,94.21
2398.00,94.23
2397.00,94.24
2396.00,94.23
2395.00,94.23
2394.00,94.22
2393.00,94.22
2392.00,94.22
2391.00,94.23
2390.00,94.24
2389.00,94.25
2388.00,94.27
2387.00,94.29
2386.00,94.31
2385.00,94.34
2384.00,94.36
2383.00,94.38
2382.00,94.40
2381.00,94.41
2380.00,94.41
2379.00,94.41
2378.00,94.42
2377.00,94.45
2376.00,94.48
2375.00,94.51
2374.00,94.52
2373.00,94.51
2372.00,94.47
2371.00,94.45
2370.00,94.46
2369.00,94.51
2368.00,94.56
2367.00,94.60
2366.00,94.62
2365.00,94.63
2364.00,94.62
2363.00,94.60
2362.00,94.58
2361.00,94.57
2360.00,94.57
2359.00,94.57
2358.00,94.56
2357.00,94.56
2356.00,94.58
2355.00,94.62
2354.00,94.64
2353.00,94.64
2352.00,94.63
2351.00,94.64
2350.00,94.68
2349.00,94.74
2348.00,94.80
2347.00,94.83
2346.00,94.80
2345.00,94.74
2344.00,94.70
2343.00,94.69
2342.00,94.68
2341.00,94.63
2340.00,94.55
2339.00,94.50
2338.00,94.50
2337.00,94.53
2336.00,94.57
2335.00,94.62
2334.00,94.66
2333.00,94.68
2332.00,94.68
2331.00,94.65
2330.00,94.61
2329.00,94.57
2328.00,94.54
2327.00,94.49
2326.00,94.41
2325.00,94.33
2324.00,94.25
2323.00,94.19
2322.00,94.17
2321.00,94.17
2320.00,94.20
2319.00,94.26
2318.00,94.31
2317.00,94.35
2316.00,94.35
2315.00,94.33
2314.00,94.29
2313.00,94.26
2312.00,94.25
2311.00,94.26
2310.00,94.28
2309.00,94.28
2308.00,94.27
2307.00,94.24
2306.00,94.21
2305.00,94.18
2304.00,94.16
2303.00,94.13
2302.00,94.10
2301.00,94.07
2300.00,94.06
2299.00,94.05
2298.00,94.06
2297.00,94.06
2296.00,94.06
2295.00,94.05
2294.00,94.03
2293.00,94.00
2292.00,93.97
2291.00,93.94
2290.00,93.90
2289.00,93.85
2288.00,93.80
2287.00,93.76
2286.00,93.73
2285.00,93.71
2284.00,93.70
2283.00,93.69
2282.00,93.67
2281.00,93.64
2280.00,93.62
2279.00,93.61
2278.00,93.60
2277.00,93.58
2276.00,93.55
2275.00,93.53
2274.00,93.53
2273.00,93.55
2272.00,93.57
2271.00,93.58
2270.00,93.58
2269.00,93.59
2268.00,93.60
2267.00,93.59
2266.00,93.56
2265.00,93.51
2264.00,93.45
2263.00,93.40
2262.00,93.36
2261.00,93.34
2260.00,93.34
2259.00,93.34
2258.00,93.34
2257.00,93.32
2256.00,93.30
2255.00,93.31
2254.00,93.33
2253.00,93.33
2252.00,93.32
2251.00,93.27
2250.00,93.22
2249.00,93.18
2248.00,93.17
2247.00,93.18
2246.00,93.20
2245.00,93.21
2244.00,93.20
2243.00,93.17
2242.00,93.12
2241.00,93.07
2240.00,93.04
2239.00,93.03
2238.00,93.01
2237.00,92.96
2236.00,92.91
2235.00,92.87
2234.00,92.87
2233.00,92.89
2232.00,92.90
2231.00,92.91
2230.00,92.92
2229.00,92.95
2228.00,92.97
2227.00,92.97
2226.00,92.95
2225.00,92.91
2224.00,92.87
2223.00,92.84
2222.00,92.81
2221.00,92.78
2220.00,92.76
2219.00,92.75
2218.00,92.74
2217.00,92.71
2216.00,92.69
2215.00,92.69
2214.00,92.72
2213.00,92.76
2212.00,92.79
2211.00,92.80
2210.00,92.80
2209.00,92.79
2208.00,92.78
2207.00,92.77
2206.00,92.76
2205.00,92.78
2204.00,92.79
2203.00,92.79
2202.00,92.75
2201.00,92.68
2200.00,92.61
2199.00,92.58
2198.00,92.60
2197.00,92.63
2196.00,92.67
2195.00,92.67
2194.00,92.64
2193.00,92.60
2192.00,92.55
2191.00,92.53
2190.00,92.51
2189.00,92.48
2188.00,92.43
2187.00,92.39
2186.00,92.35
2185.00,92.33
2184.00,92.32
2183.00,92.30
2182.00,92.30
2181.00,92.32
2180.00,92.35
2179.00,92.39
2178.00,92.41
2177.00,92.42
2176.00,92.41
2175.00,92.38
2174.00,92.33
2173.00,92.28
2172.00,92.25
2171.00,92.24
2170.00,92.20
2169.00,92.13
2168.00,92.04
2167.00,91.97
2166.00,91.89
2165.00,91.81
2164.00,91.74
2163.00,91.70
2162.00,91.73
2161.00,91.83
2160.00,91.99
2159.00,92.16
2158.00,92.29
2157.00,92.35
2156.00,92.37
2155.00,92.38
2154.00,92.40
2153.00,92.43
2152.00,92.45
2151.00,92.50
2150.00,92.55
2149.00,92.58
2148.00,92.57
2147.00,92.56
2146.00,92.57
2145.00,92.62
2144.00,92.70
2143.00,92.77
2142.00,92.83
2141.00,92.88
2140.00,92.90
2139.00,92.89
2138.00,92.88
2137.00,92.90
2136.00,92.97
2135.00,93.07
2134.00,93.16
2133.00,93.21
2132.00,93.22
2131.00,93.21
2130.00,93.21
2129.00,93.20
2128.00,93.20
2127.00,93.20
2126.00,93.19
2125.00,93.18
2124.00,93.16
2123.00,93.13
2122.00,93.13
2121.00,93.14
2120.00,93.16
2119.00,93.19
2118.00,93.22
2117.00,93.25
2116.00,93.26
2115.00,93.25
2114.00,93.23
2113.00,93.20
2112.00,93.18
2111.00,93.17
2110.00,93.16
2109.00,93.15
2108.00,93.14
2107.00,93.14
2106.00,93.13
2105.00,93.10
2104.00,93.07
2103.00,93.06
2102.00,93.06
2101.00,93.08
2100.00,93.10
2099.00,93.10
2098.00,93.10
2097.00,93.10
2096.00,93.14
2095.00,93.21
2094.00,93.26
2093.00,93.29
2092.00,93.28
2091.00,93.27
2090.00,93.27
2089.00,93.27
2088.00,93.27
2087.00,93.28
2086.00,93.28
2085.00,93.23
2084.00,93.15
2083.00,93.09
2082.00,93.08
2081.00,93.12
2080.00,93.17
2079.00,93.20
2078.00,93.19
2077.00,93.16
2076.00,93.14
2075.00,93.12
2074.00,93.11
2073.00,93.07
2072.00,93.03
2071.00,93.00
2070.00,93.00
2069.00,93.03
2068.00,93.07
2067.00,93.11
2066.00,93.11
2065.00,93.09
2064.00,93.04
2063.00,93.00
2062.00,92.99
2061.00,93.00
2060.00,93.01
2059.00,92.99
2058.00,92.95
2057.00,92.91
2056.00,92.91
2055.00,92.96
2054.00,92.99
2053.00,92.96
2052.00,92.86
2051.00,92.73
2050.00,92.63
2049.00,92.56
2048.00,92.53
2047.00,92.51
2046.00,92.51
2045.00,92.50
2044.00,92.50
2043.00,92.53
2042.00,92.56
2041.00,92.57
2040.00,92.54
2039.00,92.51
2038.00,92.48
2037.00,92.46
2036.00,92.45
2035.00,92.46
2034.00,92.48
2033.00,92.48
2032.00,92.47
2031.00,92.44
2030.00,92.43
2029.00,92.43
2028.00,92.45
2027.00,92.48
2026.00,92.51
2025.00,92.53
2024.00,92.53
2023.00,92.53
2022.00,92.53
2021.00,92.53
2020.00,92.53
2019.00,92.55
2018.00,92.60
2017.00,92.64
2016.00,92.65
2015.00,92.63
2014.00,92.60
2013.00,92.60
2012.00,92.64
2011.00,92.70
2010.00,92.76
2009.00,92.79
2008.00,92.80
2007.00,92.81
2006.00,92.84
2005.00,92.86
2004.00,92.89
2003.00,92.93
2002.00,92.99
2001.00,93.05
2000.00,93.10
1999.00,93.12
1998.00,93.12
1997.00,93.12
1996.00,93.11
1995.00,93.08
1994.00,93.03
1993.00,92.97
1992.00,92.91
1991.00,92.86
1990.00,92.85
1989.00,92.87
1988.00,92.89
1987.00,92.89
1986.00,92.86
1985.00,92.84
1984.00,92.81
1983.00,92.76
1982.00,92.66
1981.00,92.53
1980.00,92.43
1979.00,92.44
1978.00,92.58
1977.00,92.75
1976.00,92.85
1975.00,92.86
1974.00,92.84
1973.00,92.85
1972.00,92.89
1971.00,92.94
1970.00,92.98
1969.00,93.01
1968.00,93.04
1967.00,93.08
1966.00,93.10
1965.00,93.10
1964.00,93.11
1963.00,93.14
1962.00,93.19
1961.00,93.27
1960.00,93.37
1959.00,93.46
1958.00,93.51
1957.00,93.51
1956.00,93.47
1955.00,93.45
1954.00,93.46
1953.00,93.51
1952.00,93.57
1951.00,93.61
1950.00,93.63
1949.00,93.65
1948.00,93.67
1947.00,93.70
1946.00,93.73
1945.00,93.74
1944.00,93.72
1943.00,93.69
1942.00,93.68
1941.00,93.70
1940.00,93.75
1939.00,93.81
1938.00,93.86
1937.00,93.88
1936.00,93.87
1935.00,93.85
1934.00,93.86
1933.00,93.90
1932.00,93.95
1931.00,93.99
1930.00,94.00
1929.00,94.00
1928.00,93.99
1927.00,93.99
1926.00,94.00
1925.00,94.01
1924.00,94.02
1923.00,94.01
1922.00,94.01
1921.00,94.01
1920.00,94.02
1919.00,94.05
1918.00,94.08
1917.00,94.10
1916.00,94.11
1915.00,94.13
1914.00,94.16
1913.00,94.18
1912.00,94.21
1911.00,94.23
1910.00,94.25
1909.00,94.24
1908.00,94.22
1907.00,94.20
1906.00,94.19
1905.00,94.19
1904.00,94.19
1903.00,94.21
1902.00,94.23
1901.00,94.26
1900.00,94.30
1899.00,94.34
1898.00,94.36
1897.00,94.35
1896.00,94.33
1895.00,94.32
1894.00,94.34
1893.00,94.37
1892.00,94.39
1891.00,94.40
1890.00,94.42
1889.00,94.43
1888.00,94.42
1887.00,94.40
1886.00,94.38
1885.00,94.35
1884.00,94.33
1883.00,94.34
1882.00,94.36
1881.00,94.38
1880.00,94.39
1879.00,94.39
1878.00,94.40
1877.00,94.41
1876.00,94.44
1875.00,94.46
1874.00,94.48
1873.00,94.48
1872.00,94.48
1871.00,94.49
1870.00,94.50
1869.00,94.51
1868.00,94.50
1867.00,94.49
1866.00,94.49
1865.00,94.49
1864.00,94.49
1863.00,94.49
1862.00,94.49
1861.00,94.50
1860.00,94.51
1859.00,94.53
1858.00,94.53
1857.00,94.52
1856.00,94.51
1855.00,94.51
1854.00,94.52
1853.00,94.55
1852.00,94.59
1851.00,94.63
1850.00,94.64
1849.00,94.64
1848.00,94.63
1847.00,94.61
1846.00,94.60
1845.00,94.58
1844.00,94.57
1843.00,94.58
1842.00,94.60
1841.00,94.61
1840.00,94.62
1839.00,94.62
1838.00,94.64
1837.00,94.66
1836.00,94.68
1835.00,94.69
1834.00,94.69
1833.00,94.68
1832.00,94.68
1831.00,94.69
1830.00,94.70
1829.00,94.70
1828.00,94.69
1827.00,94.67
1826.00,94.65
1825.00,94.64
1824.00,94.64
1823.00,94.65
1822.00,94.68
1821.00,94.71
1820.00,94.73
1819.00,94.75
1818.00,94.76
1817.00,94.77
1816.00,94.77
1815.00,94.76
1814.00,94.76
1813.00,94.76
1812.00,94.77
1811.00,94.77
1810.00,94.76
1809.00,94.74
1808.00,94.72
1807.00,94.71
1806.00,94.71
1805.00,94.70
1804.00,94.69
1803.00,94.70
1802.00,94.71
1801.00,94.72
1800.00,94.73
1799.00,94.74
1798.00,94.74
1797.00,94.74
1796.00,94.73
1795.00,94.74
1794.00,94.74
1793.00,94.74
1792.00,94.74
1791.00,94.72
1790.00,94.72
1789.00,94.72
1788.00,94.72
1787.00,94.73
1786.00,94.73
1785.00,94.72
1784.00,94.71
1783.00,94.71
1782.00,94.71
1781.00,94.70
1780.00,94.68
1779.00,94.68
1778.00,94.68
1777.00,94.68
1776.00,94.68
1775.00,94.67
1774.00,94.66
1773.00,94.66
1772.00,94.65
1771.00,94.63
1770.00,94.62
1769.00,94.62
1768.00,94.62
1767.00,94.61
1766.00,94.61
1765.00,94.60
1764.00,94.58
1763.00,94.56
1762.00,94.53
1761.00,94.51
1760.00,94.48
1759.00,94.46
1758.00,94.45
1757.00,94.44
1756.00,94.41
1755.00,94.39
1754.00,94.36
1753.00,94.33
1752.00,94.29
1751.00,94.23
1750.00,94.15
1749.00,94.07
1748.00,93.99
1747.00,93.91
1746.00,93.83
1745.00,93.74
1744.00,93.63
1743.00,93.52
1742.00,93.41
1741.00,93.27
1740.00,93.12
1739.00,92.97
1738.00,92.85
1737.00,92.74
1736.00,92.63
1735.00,92.49
1734.00,92.37
1733.00,92.30
1732.00,92.29
1731.00,92.29
1730.00,92.30
1729.00,92.33
1728.00,92.37
1727.00,92.43
1726.00,92.51
1725.00,92.58
1724.00,92.65
1723.00,92.73
1722.00,92.79
1721.00,92.83
1720.00,92.86
1719.00,92.89
1718.00,92.94
1717.00,92.97
1716.00,92.98
1715.00,93.00
1714.00,93.02
1713.00,93.04
1712.00,93.06
1711.00,93.08
1710.00,93.10
1709.00,93.13
1708.00,93.15
1707.00,93.16
1706.00,93.16
1705.00,93.16
1704.00,93.16
1703.00,93.17
1702.00,93.18
1701.00,93.16
1700.00,93.13
1699.00,93.10
1698.00,93.09
1697.00,93.08
1696.00,93.04
1695.00,93.01
1694.00,93.00
1693.00,93.00
1692.00,92.99
1691.00,92.97
1690.00,92.93
1689.00,92.89
1688.00,92.85
1687.00,92.81
1686.00,92.77
1685.00,92.71
1684.00,92.61
1683.00,92.52
1682.00,92.46
1681.00,92.42
1680.00,92.38
1679.00,92.34
1678.00,92.30
1677.00,92.24
1676.00,92.15
1675.00,92.05
1674.00,91.95
1673.00,91.88
1672.00,91.81
1671.00,91.72
1670.00,91.63
1669.00,91.53
1668.00,91.44
1667.00,91.37
1666.00,91.31
1665.00,91.23
1664.00,91.15
1663.00,91.06
1662.00,90.98
1661.00,90.90
1660.00,90.83
1659.00,90.77
1658.00,90.72
1657.00,90.68
1656.00,90.63
1655.00,90.57
1654.00,90.50
1653.00,90.37
1652.00,90.27
1651.00,90.23
1650.00,90.23
1649.00,90.23
1648.00,90.22
1647.00,90.18
1646.00,90.12
1645.00,90.05
1644.00,89.98
1643.00,89.94
1642.00,89.91
1641.00,89.89
1640.00,89.87
1639.00,89.86
1638.00,89.85
1637.00,89.82
1636.00,89.78
1635.00,89.75
1634.00,89.76
1633.00,89.78
1632.00,89.82
1631.00,89.87
1630.00,89.92
1629.00,89.97
1628.00,90.03
1627.00,90.08
1626.00,90.13
1625.00,90.16
1624.00,90.20
1623.00,90.25
1622.00,90.33
1621.00,90.40
1620.00,90.45
1619.00,90.50
1618.00,90.53
1617.00,90.56
1616.00,90.60
1615.00,90.65
1614.00,90.70
1613.00,90.75
1612.00,90.79
1611.00,90.82
1610.00,90.87
1609.00,90.92
1608.00,90.98
1607.00,91.03
1606.00,91.09
1605.00,91.13
1604.00,91.17
1603.00,91.20
1602.00,91.21
1601.00,91.22
1600.00,91.22
1599.00,91.23
1598.00,91.24
1597.00,91.27
1596.00,91.29
1595.00,91.31
1594.00,91.33
1593.00,91.34
1592.00,91.37
1591.00,91.42
1590.00,91.48
1589.00,91.54
1588.00,91.60
1587.00,91.65
1586.00,91.71
1585.00,91.75
1584.00,91.79
1583.00,91.82
1582.00,91.85
1581.00,91.87
1580.00,91.89
1579.00,91.92
1578.00,91.95
1577.00,91.99
1576.00,92.03
1575.00,92.06
1574.00,92.10
1573.00,92.14
1572.00,92.18
1571.00,92.24
1570.00,92.30
1569.00,92.35
1568.00,92.39
1567.00,92.42
1566.00,92.45
1565.00,92.47
1564.00,92.48
1563.00,92.48
1562.00,92.49
1561.00,92.49
1560.00,92.49
1559.00,92.49
1558.00,92.48
1557.00,92.48
1556.00,92.51
1555.00,92.53
1554.00,92.55
1553.00,92.55
1552.00,92.56
1551.00,92.57
1550.00,92.59
1549.00,92.61
1548.00,92.61
1547.00,92.61
1546.00,92.62
1545.00,92.62
1544.00,92.62
1543.00,92.62
1542.00,92.62
1541.00,92.62
1540.00,92.64
1539.00,92.68
1538.00,92.75
1537.00,92.81
1536.00,92.85
1535.00,92.89
1534.00,92.93
1533.00,92.96
1532.00,92.98
1531.00,93.01
1530.00,93.05
1529.00,93.08
1528.00,93.09
1527.00,93.09
1526.00,93.12
1525.00,93.14
1524.00,93.15
1523.00,93.16
1522.00,93.17
1521.00,93.19
1520.00,93.19
1519.00,93.20
1518.00,93.19
1517.00,93.18
1516.00,93.17
1515.00,93.17
1514.00,93.18
1513.00,93.18
1512.00,93.18
1511.00,93.18
1510.00,93.18
1509.00,93.17
1508.00,93.14
1507.00,93.09
1506.00,93.02
1505.00,92.97
1504.00,92.96
1503.00,92.95
1502.00,92.94
1501.00,92.91
1500.00,92.86
1499.00,92.80
1498.00,92.73
1497.00,92.66
1496.00,92.60
1495.00,92.55
1494.00,92.50
1493.00,92.44
1492.00,92.35
1491.00,92.23
1490.00,92.11
1489.00,91.96
1488.00,91.81
1487.00,91.64
1486.00,91.47
1485.00,91.29
1484.00,91.12
1483.00,90.96
1482.00,90.83
1481.00,90.70
1480.00,90.59
1479.00,90.48
1478.00,90.37
1477.00,90.25
1476.00,90.10
1475.00,89.93
1474.00,89.73
1473.00,89.48
1472.00,89.23
1471.00,89.02
1470.00,88.85
1469.00,88.69
1468.00,88.53
1467.00,88.38
1466.00,88.21
1465.00,88.04
1464.00,87.87
1463.00,87.74
1462.00,87.64
1461.00,87.53
1460.00,87.41
1459.00,87.28
1458.00,87.12
1457.00,86.95
1456.00,86.80
1455.00,86.71
1454.00,86.65
1453.00,86.60
1452.00,86.56
1451.00,86.53
1450.00,86.51
1449.00,86.49
1448.00,86.45
1447.00,86.41
1446.00,86.37
1445.00,86.32
1444.00,86.26
1443.00,86.19
1442.00,86.11
1441.00,86.01
1440.00,85.89
1439.00,85.75
1438.00,85.54
1437.00,85.25
1436.00,84.92
1435.00,84.64
1434.00,84.40
1433.00,84.18
1432.00,83.96
1431.00,83.74
1430.00,83.55
1429.00,83.40
1428.00,83.31
1427.00,83.28
1426.00,83.30
1425.00,83.35
1424.00,83.43
1423.00,83.56
1422.00,83.71
1421.00,83.89
1420.00,84.12
1419.00,84.41
1418.00,84.70
1417.00,84.95
1416.00,85.18
1415.00,85.41
1414.00,85.62
1413.00,85.80
1412.00,85.97
1411.00,86.11
1410.00,86.23
1409.00,86.33
1408.00,86.40
1407.00,86.46
1406.00,86.51
1405.00,86.55
1404.00,86.60
1403.00,86.66
1402.00,86.71
1401.00,86.74
1400.00,86.77
1399.00,86.81
1398.00,86.84
1397.00,86.88
1396.00,86.91
1395.00,86.94
1394.00,86.94
1393.00,86.93
1392.00,86.91
1391.00,86.87
1390.00,86.81
1389.00,86.71
1388.00,86.57
1387.00,86.39
1386.00,86.17
1385.00,85.93
1384.00,85.66
1383.00,85.36
1382.00,85.03
1381.00,84.67
1380.00,84.29
1379.00,83.91
1378.00,83.53
1377.00,83.16
1376.00,82.80
1375.00,82.41
1374.00,82.02
1373.00,81.67
1372.00,81.41
1371.00,81.23
1370.00,81.13
1369.00,81.09
1368.00,81.09
1367.00,81.13
1366.00,81.17
1365.00,81.19
1364.00,81.17
1363.00,81.13
1362.00,81.11
1361.00,81.13
1360.00,81.17
1359.00,81.24
1358.00,81.31
1357.00,81.38
1356.00,81.46
1355.00,81.56
1354.00,81.70
1353.00,81.85
1352.00,82.02
1351.00,82.17
1350.00,82.29
1349.00,82.35
1348.00,82.35
1347.00,82.29
1346.00,82.17
1345.00,82.00
1344.00,81.79
1343.00,81.57
1342.00,81.34
1341.00,81.10
1340.00,80.86
1339.00,80.64
1338.00,80.45
1337.00,80.31
1336.00,80.22
1335.00,80.19
1334.00,80.22
1333.00,80.31
1332.00,80.45
1331.00,80.61
1330.00,80.76
1329.00,80.88
1328.00,80.93
1327.00,80.92
1326.00,80.83
1325.00,80.68
1324.00,80.49
1323.00,80.26
1322.00,80.00
1321.00,79.71
1320.00,79.41
1319.00,79.11
1318.00,78.84
1317.00,78.63
1316.00,78.50
1315.00,78.47
1314.00,78.54
1313.00,78.71
1312.00,78.98
1311.00,79.33
1310.00,79.70
1309.00,80.10
1308.00,80.50
1307.00,80.90
1306.00,81.30
1305.00,81.68
1304.00,82.07
1303.00,82.44
1302.00,82.80
1301.00,83.11
1300.00,83.39
1299.00,83.64
1298.00,83.84
1297.00,84.00
1296.00,84.12
1295.00,84.21
1294.00,84.28
1293.00,84.32
1292.00,84.36
1291.00,84.39
1290.00,84.40
1289.00,84.40
1288.00,84.37
1287.00,84.31
1286.00,84.21
1285.00,84.09
1284.00,83.94
1283.00,83.78
1282.00,83.63
1281.00,83.53
1280.00,83.51
1279.00,83.56
1278.00,83.67
1277.00,83.81
1276.00,83.95
1275.00,84.11
1274.00,84.26
1273.00,84.41
1272.00,84.56
1271.00,84.70
1270.00,84.83
1269.00,84.94
1268.00,85.04
1267.00,85.12
1266.00,85.19
1265.00,85.24
1264.00,85.28
1263.00,85.33
1262.00,85.37
1261.00,85.42
1260.00,85.47
1259.00,85.53
1258.00,85.58
1257.00,85.62
1256.00,85.64
1255.00,85.64
1254.00,85.62
1253.00,85.58
1252.00,85.53
1251.00,85.49
1250.00,85.44
1249.00,85.42
1248.00,85.43
1247.00,85.48
1246.00,85.55
1245.00,85.62
1244.00,85.69
1243.00,85.75
1242.00,85.81
1241.00,85.85
1240.00,85.87
1239.00,85.87
1238.00,85.85
1237.00,85.80
1236.00,85.77
1235.00,85.77
1234.00,85.83
1233.00,85.93
1232.00,86.07
1231.00,86.22
1230.00,86.38
1229.00,86.54
1228.00,86.71
1227.00,86.88
1226.00,87.06
1225.00,87.24
1224.00,87.43
1223.00,87.60
1222.00,87.75
1221.00,87.87
1220.00,87.98
1219.00,88.08
1218.00,88.16
1217.00,88.20
1216.00,88.21
1215.00,88.19
1214.00,88.11
1213.00,87.96
1212.00,87.73
1211.00,87.42
1210.00,87.07
1209.00,86.70
1208.00,86.36
1207.00,86.08
1206.00,85.86
1205.00,85.70
1204.00,85.62
1203.00,85.59
1202.00,85.62
1201.00,85.70
1200.00,85.81
1199.00,85.94
1198.00,86.09
1197.00,86.25
1196.00,86.44
1195.00,86.63
1194.00,86.83
1193.00,87.02
1192.00,87.19
1191.00,87.33
1190.00,87.45
1189.00,87.53
1188.00,87.58
1187.00,87.60
1186.00,87.58
1185.00,87.52
1184.00,87.42
1183.00,87.27
1182.00,87.09
1181.00,86.87
1180.00,86.64
1179.00,86.36
1178.00,86.04
1177.00,85.67
1176.00,85.25
1175.00,84.78
1174.00,84.26
1173.00,83.69
1172.00,83.05
1171.00,82.36
1170.00,81.60
1169.00,80.78
1168.00,79.91
1167.00,79.02
1166.00,78.14
1165.00,77.29
1164.00,76.51
1163.00,75.82
1162.00,75.22
1161.00,74.72
1160.00,74.34
1159.00,74.11
1158.00,74.00
1157.00,73.99
1156.00,74.02
1155.00,74.09
1154.00,74.20
1153.00,74.34
1152.00,74.51
1151.00,74.70
1150.00,74.94
1149.00,75.21
1148.00,75.52
1147.00,75.89
1146.00,76.28
1145.00,76.69
1144.00,77.10
1143.00,77.52
1142.00,77.94
1141.00,78.33
1140.00,78.66
1139.00,78.90
1138.00,79.02
1137.00,79.02
1136.00,78.92
1135.00,78.74
1134.00,78.51
1133.00,78.20
1132.00,77.84
1131.00,77.42
1130.00,76.96
1129.00,76.45
1128.00,75.88
1127.00,75.26
1126.00,74.61
1125.00,73.96
1124.00,73.34
1123.00,72.76
1122.00,72.19
1121.00,71.59
1120.00,70.92
1119.00,70.21
1118.00,69.45
1117.00,68.62
1116.00,67.70
1115.00,66.72
1114.00,65.75
1113.00,64.83
1112.00,64.03
1111.00,63.40
1110.00,62.95
1109.00,62.64
1108.00,62.43
1107.00,62.30
1106.00,62.24
1105.00,62.25
1104.00,62.32
1103.00,62.48
1102.00,62.70
1101.00,62.96
1100.00,63.26
1099.00,63.60
1098.00,63.96
1097.00,64.33
1096.00,64.68
1095.00,65.01
1094.00,65.33
1093.00,65.62
1092.00,65.89
1091.00,66.14
1090.00,66.33
1089.00,66.47
1088.00,66.56
1087.00,66.64
1086.00,66.72
1085.00,66.76
1084.00,66.76
1083.00,66.69
1082.00,66.55
1081.00,66.33
1080.00,66.03
1079.00,65.69
1078.00,65.31
1077.00,64.89
1076.00,64.46
1075.00,64.03
1074.00,63.62
1073.00,63.20
1072.00,62.75
1071.00,62.24
1070.00,61.67
1069.00,61.02
1068.00,60.28
1067.00,59.45
1066.00,58.54
1065.00,57.53
1064.00,56.43
1063.00,55.29
1062.00,54.14
1061.00,52.99
1060.00,51.88
1059.00,50.87
1058.00,49.99
1057.00,49.23
1056.00,48.59
1055.00,48.06
1054.00,47.65
1053.00,47.33
1052.00,47.12
1051.00,47.03
1050.00,47.06
1049.00,47.20
1048.00,47.43
1047.00,47.76
1046.00,48.15
1045.00,48.55
1044.00,48.90
1043.00,49.18
1042.00,49.38
1041.00,49.43
1040.00,49.31
1039.00,49.04
1038.00,48.64
1037.00,48.14
1036.00,47.57
1035.00,46.98
1034.00,46.41
1033.00,45.87
1032.00,45.40
1031.00,45.04
1030.00,44.79
1029.00,44.62
1028.00,44.54
1027.00,44.54
1026.00,44.62
1025.00,44.73
1024.00,44.88
1023.00,45.07
1022.00,45.28
1021.00,45.49
1020.00,45.70
1019.00,45.90
1018.00,46.10
1017.00,46.28
1016.00,46.44
1015.00,46.58
1014.00,46.69
1013.00,46.73
1012.00,46.71
1011.00,46.66
1010.00,46.60
1009.00,46.52
1008.00,46.44
1007.00,46.36
1006.00,46.30
1005.00,46.26
1004.00,46.23
1003.00,46.25
1002.00,46.31
1001.00,46.41
1000.00,46.54
999.00,46.71
998.00,46.92
997.00,47.16
996.00,47.40
995.00,47.63
994.00,47.86
993.00,48.06
992.00,48.21
991.00,48.32
990.00,48.39
989.00,48.39
988.00,48.35
987.00,48.29
986.00,48.26
985.00,48.31
984.00,48.49
983.00,48.84
982.00,49.37
981.00,50.04
980.00,50.84
979.00,51.72
978.00,52.66
977.00,53.60
976.00,54.51
975.00,55.38
974.00,56.22
973.00,57.03
972.00,57.78
971.00,58.48
970.00,59.13
969.00,59.73
968.00,60.31
967.00,60.88
966.00,61.43
965.00,61.95
964.00,62.45
963.00,62.94
962.00,63.42
961.00,63.89
960.00,64.35
959.00,64.80
958.00,65.24
957.00,65.68
956.00,66.11
955.00,66.53
954.00,66.94
953.00,67.31
952.00,67.67
951.00,68.01
950.00,68.35
949.00,68.67
948.00,69.00
947.00,69.34
946.00,69.66
945.00,69.96
944.00,70.24
943.00,70.51
942.00,70.78
941.00,71.05
940.00,71.30
939.00,71.54
938.00,71.78
937.00,72.01
936.00,72.23
935.00,72.43
934.00,72.65
933.00,72.87
932.00,73.11
931.00,73.35
930.00,73.59
929.00,73.80
928.00,73.99
927.00,74.19
926.00,74.39
925.00,74.59
924.00,74.76
923.00,74.92
922.00,75.06
921.00,75.20
920.00,75.31
919.00,75.41
918.00,75.50
917.00,75.57
916.00,75.61
915.00,75.63
914.00,75.63
913.00,75.62
912.00,75.60
911.00,75.57
910.00,75.53
909.00,75.47
908.00,75.40
907.00,75.31
906.00,75.19
905.00,75.02
904.00,74.83
903.00,74.63
902.00,74.46
901.00,74.31
900.00,74.21
899.00,74.14
898.00,74.10
897.00,74.08
896.00,74.07
895.00,74.09
894.00,74.14
893.00,74.22
892.00,74.35
891.00,74.51
890.00,74.70
889.00,74.92
888.00,75.17
887.00,75.43
886.00,75.69
885.00,75.94
884.00,76.19
883.00,76.44
882.00,76.67
881.00,76.87
880.00,77.05
879.00,77.24
878.00,77.44
877.00,77.64
876.00,77.82
875.00,77.98
874.00,78.13
873.00,78.27
872.00,78.40
871.00,78.55
870.00,78.73
869.00,78.94
868.00,79.13
867.00,79.29
866.00,79.41
865.00,79.53
864.00,79.67
863.00,79.82
862.00,79.97
861.00,80.09
860.00,80.22
859.00,80.33
858.00,80.44
857.00,80.52
856.00,80.61
855.00,80.71
854.00,80.81
853.00,80.88
852.00,80.94
851.00,81.00
850.00,81.04
849.00,81.06
848.00,81.07
847.00,81.10
846.00,81.14
845.00,81.17
844.00,81.18
843.00,81.19
842.00,81.20
841.00,81.22
840.00,81.24
839.00,81.24
838.00,81.24
837.00,81.24
836.00,81.25
835.00,81.26
834.00,81.26
833.00,81.26
832.00,81.27
831.00,81.30
830.00,81.32
829.00,81.32
828.00,81.31
827.00,81.29
826.00,81.24
825.00,81.17
824.00,81.07
823.00,80.96
822.00,80.84
821.00,80.73
820.00,80.66
819.00,80.60
818.00,80.56
817.00,80.49
816.00,80.42
815.00,80.35
814.00,80.29
813.00,80.21
812.00,80.15
811.00,80.12
810.00,80.13
809.00,80.16
808.00,80.18
807.00,80.17
806.00,80.14
805.00,80.11
804.00,80.09
803.00,80.08
802.00,80.10
801.00,80.12
800.00,80.15
799.00,80.18
798.00,80.22
797.00,80.25
796.00,80.27
795.00,80.28
794.00,80.28
793.00,80.27
792.00,80.24
791.00,80.21
790.00,80.17
789.00,80.15
788.00,80.14
787.00,80.13
786.00,80.09
785.00,80.03
784.00,79.98
783.00,79.95
782.00,79.92
781.00,79.88
780.00,79.83
779.00,79.79
778.00,79.75
777.00,79.71
776.00,79.66
775.00,79.62
774.00,79.59
773.00,79.56
772.00,79.52
771.00,79.48
770.00,79.41
769.00,79.33
768.00,79.23
767.00,79.13
766.00,79.03
765.00,78.94
764.00,78.85
763.00,78.76
762.00,78.65
761.00,78.53
760.00,78.42
759.00,78.33
758.00,78.25
757.00,78.14
756.00,78.02
755.00,77.89
754.00,77.77
753.00,77.67
752.00,77.57
751.00,77.49
750.00,77.41
749.00,77.31
748.00,77.21
747.00,77.12
746.00,77.04
745.00,76.94
744.00,76.81
743.00,76.69
742.00,76.59
741.00,76.49
740.00,76.39
739.00,76.30
738.00,76.23
737.00,76.13
736.00,75.96
735.00,75.75
734.00,75.55
733.00,75.38
732.00,75.25
731.00,75.11
730.00,74.94
729.00,74.72
728.00,74.45
727.00,74.17
726.00,73.89
725.00,73.60
724.00,73.30
723.00,73.01
722.00,72.75
721.00,72.48
720.00,72.21
719.00,71.93
718.00,71.66
717.00,71.39
716.00,71.13
715.00,70.90
714.00,70.68
713.00,70.45
712.00,70.21
711.00,69.98
710.00,69.79
709.00,69.65
708.00,69.55
707.00,69.49
706.00,69.45
705.00,69.37
704.00,69.26
703.00,69.13
702.00,69.03
701.00,68.96
700.00,68.89
699.00,68.84
698.00,68.79
697.00,68.73
696.00,68.67
695.00,68.63
694.00,68.63
693.00,68.65
692.00,68.65
691.00,68.62
690.00,68.55
689.00,68.44
688.00,68.32
687.00,68.23
686.00,68.18
685.00,68.13
684.00,68.02
683.00,67.85
682.00,67.66
681.00,67.43
680.00,67.20
679.00,66.95
678.00,66.67
677.00,66.29
676.00,65.82
675.00,65.30
674.00,64.79
673.00,64.31
672.00,63.90
671.00,63.56
670.00,63.23
669.00,62.76
668.00,62.13
667.00,61.71
666.00,61.62
665.00,61.60
664.00,61.49
663.00,61.33
662.00,61.24
661.00,61.27
660.00,61.41
659.00,61.61
658.00,61.82
657.00,62.03
656.00,62.25
655.00,62.49
654.00,62.75
653.00,62.97
652.00,63.12
651.00,63.21
650.00,63.27
649.00,63.31
648.00,63.32
647.00,63.25
646.00,63.12
645.00,63.00
644.00,62.94
643.00,62.92
642.00,62.85
641.00,62.69
640.00,62.51
639.00,62.38
638.00,62.28
637.00,62.15
636.00,61.97
635.00,61.76
634.00,61.52
633.00,61.25
632.00,60.95
631.00,60.67
630.00,60.37
629.00,60.04
628.00,59.71
627.00,59.49
626.00,59.41
625.00,59.41
624.00,59.45
623.00,59.46
622.00,59.28
621.00,58.73
620.00,57.90
619.00,57.11
618.00,56.55
617.00,56.13
616.00,55.74
615.00,55.43
614.00,55.22
613.00,55.03
612.00,54.88
611.00,54.86
610.00,55.01
609.00,55.21
608.00,55.37
607.00,55.50
606.00,55.59
605.00,55.61
604.00,55.61
603.00,55.66
602.00,55.71
601.00,55.61
600.00,55.35
599.00,55.09
598.00,54.94
597.00,54.85
596.00,54.76
595.00,54.71
594.00,54.69
593.00,54.64
592.00,54.56
591.00,54.55
590.00,54.61
589.00,54.65
588.00,54.72
587.00,54.96
586.00,55.32
585.00,55.59
584.00,55.65
583.00,55.54
582.00,55.24
581.00,54.65
580.00,53.97
579.00,53.69
578.00,54.03
577.00,54.65
576.00,55.26
575.00,55.88
574.00,56.49
573.00,56.91
572.00,57.06
571.00,57.03
570.00,56.75
569.00,56.10
568.00,55.27
567.00,54.62
566.00,54.13
565.00,53.45
564.00,52.57
563.00,51.93
562.00,51.59
561.00,51.13
560.00,50.39
559.00,49.91
558.00,50.15
557.00,50.86
556.00,51.59
555.00,52.16
554.00,52.45
553.00,52.27
552.00,51.65
551.00,51.18
550.00,51.17
