Created as New Dataset,Shoemaker's thread
cm-1,%T
4000.00,99.87
3999.00,99.89
3998.00,99.89
3997.00,99.90
3996.00,99.89
3995.00,99.88
3994.00,99.86
3993.00,99.85
3992.00,99.84
3991.00,99.82
3990.00,99.82
3989.00,99.82
3988.00,99.82
3987.00,99.82
3986.00,99.82
3985.00,99.82
3984.00,99.83
3983.00,99.83
3982.00,99.82
3981.00,99.81
3980.00,99.80
3979.00,99.79
3978.00,99.78
3977.00,99.78
3976.00,99.78
3975.00,99.78
3974.00,99.79
3973.00,99.80
3972.00,99.82
3971.00,99.83
3970.00,99.84
3969.00,99.84
3968.00,99.84
3967.00,99.83
3966.00,99.83
3965.00,99.82
3964.00,99.82
3963.00,99.82
3962.00,99.82
3961.00,99.83
3960.00,99.85
3959.00,99.87
3958.00,99.89
3957.00,99.90
3956.00,99.90
3955.00,99.89
3954.00,99.87
3953.00,99.86
3952.00,99.86
3951.00,99.85
3950.00,99.84
3949.00,99.83
3948.00,99.82
3947.00,99.81
3946.00,99.81
3945.00,99.81
3944.00,99.81
3943.00,99.82
3942.00,99.83
3941.00,99.84
3940.00,99.85
3939.00,99.84
3938.00,99.83
3937.00,99.81
3936.00,99.81
3935.00,99.81
3934.00,99.82
3933.00,99.83
3932.00,99.83
3931.00,99.82
3930.00,99.80
3929.00,99.78
3928.00,99.77
3927.00,99.76
3926.00,99.76
3925.00,99.77
3924.00,99.79
3923.00,99.80
3922.00,99.81
3921.00,99.82
3920.00,99.83
3919.00,99.82
3918.00,99.81
3917.00,99.80
3916.00,99.78
3915.00,99.78
3914.00,99.78
3913.00,99.79
3912.00,99.80
3911.00,99.82
3910.00,99.83
3909.00,99.84
3908.00,99.84
3907.00,99.84
3906.00,99.84
3905.00,99.83
3904.00,99.82
3903.00,99.81
3902.00,99.80
3901.00,99.80
3900.00,99.81
3899.00,99.81
3898.00,99.81
3897.00,99.79
3896.00,99.78
3895.00,99.77
3894.00,99.76
3893.00,99.76
3892.00,99.78
3891.00,99.79
3890.00,99.78
3889.00,99.77
3888.00,99.75
3887.00,99.74
3886.00,99.75
3885.00,99.77
3884.00,99.78
3883.00,99.78
3882.00,99.78
3881.00,99.78
3880.00,99.77
3879.00,99.75
3878.00,99.74
3877.00,99.74
3876.00,99.74
3875.00,99.74
3874.00,99.74
3873.00,99.73
3872.00,99.73
3871.00,99.74
3870.00,99.76
3869.00,99.76
3868.00,99.74
3867.00,99.73
3866.00,99.73
3865.00,99.74
3864.00,99.75
3863.00,99.75
3862.00,99.74
3861.00,99.73
3860.00,99.73
3859.00,99.74
3858.00,99.73
3857.00,99.72
3856.00,99.70
3855.00,99.69
3854.00,99.70
3853.00,99.70
3852.00,99.70
3851.00,99.72
3850.00,99.75
3849.00,99.79
3848.00,99.82
3847.00,99.83
3846.00,99.83
3845.00,99.81
3844.00,99.80
3843.00,99.78
3842.00,99.74
3841.00,99.71
3840.00,99.68
3839.00,99.68
3838.00,99.69
3837.00,99.71
3836.00,99.71
3835.00,99.72
3834.00,99.72
3833.00,99.73
3832.00,99.74
3831.00,99.73
3830.00,99.72
3829.00,99.72
3828.00,99.74
3827.00,99.76
3826.00,99.78
3825.00,99.77
3824.00,99.74
3823.00,99.70
3822.00,99.67
3821.00,99.66
3820.00,99.64
3819.00,99.63
3818.00,99.63
3817.00,99.65
3816.00,99.68
3815.00,99.70
3814.00,99.71
3813.00,99.71
3812.00,99.72
3811.00,99.72
3810.00,99.69
3809.00,99.66
3808.00,99.65
3807.00,99.66
3806.00,99.66
3805.00,99.65
3804.00,99.62
3803.00,99.62
3802.00,99.64
3801.00,99.68
3800.00,99.69
3799.00,99.69
3798.00,99.69
3797.00,99.71
3796.00,99.72
3795.00,99.73
3794.00,99.73
3793.00,99.73
3792.00,99.73
3791.00,99.72
3790.00,99.71
3789.00,99.70
3788.00,99.69
3787.00,99.69
3786.00,99.69
3785.00,99.70
3784.00,99.70
3783.00,99.69
3782.00,99.66
3781.00,99.64
3780.00,99.63
3779.00,99.64
3778.00,99.66
3777.00,99.67
3776.00,99.67
3775.00,99.67
3774.00,99.66
3773.00,99.64
3772.00,99.61
3771.00,99.60
3770.00,99.60
3769.00,99.61
3768.00,99.61
3767.00,99.61
3766.00,99.62
3765.00,99.62
3764.00,99.63
3763.00,99.63
3762.00,99.63
3761.00,99.63
3760.00,99.63
3759.00,99.61
3758.00,99.60
3757.00,99.58
3756.00,99.56
3755.00,99.55
3754.00,99.54
3753.00,99.53
3752.00,99.51
3751.00,99.49
3750.00,99.49
3749.00,99.50
3748.00,99.51
3747.00,99.50
3746.00,99.50
3745.00,99.51
3744.00,99.53
3743.00,99.54
3742.00,99.54
3741.00,99.53
3740.00,99.53
3739.00,99.51
3738.00,99.51
3737.00,99.51
3736.00,99.52
3735.00,99.52
3734.00,99.51
3733.00,99.51
3732.00,99.52
3731.00,99.54
3730.00,99.56
3729.00,99.57
3728.00,99.58
3727.00,99.60
3726.00,99.60
3725.00,99.58
3724.00,99.55
3723.00,99.53
3722.00,99.51
3721.00,99.51
3720.00,99.51
3719.00,99.51
3718.00,99.51
3717.00,99.51
3716.00,99.50
3715.00,99.49
3714.00,99.47
3713.00,99.45
3712.00,99.45
3711.00,99.44
3710.00,99.44
3709.00,99.44
3708.00,99.44
3707.00,99.45
3706.00,99.45
3705.00,99.46
3704.00,99.46
3703.00,99.46
3702.00,99.45
3701.00,99.43
3700.00,99.42
3699.00,99.42
3698.00,99.44
3697.00,99.45
3696.00,99.45
3695.00,99.42
3694.00,99.40
3693.00,99.37
3692.00,99.36
3691.00,99.35
3690.00,99.36
3689.00,99.36
3688.00,99.35
3687.00,99.35
3686.00,99.35
3685.00,99.35
3684.00,99.37
3683.00,99.38
3682.00,99.38
3681.00,99.38
3680.00,99.38
3679.00,99.34
3678.00,99.29
3677.00,99.25
3676.00,99.24
3675.00,99.24
3674.00,99.24
3673.00,99.24
3672.00,99.25
3671.00,99.26
3670.00,99.28
3669.00,99.28
3668.00,99.27
3667.00,99.27
3666.00,99.27
3665.00,99.27
3664.00,99.26
3663.00,99.26
3662.00,99.25
3661.00,99.23
3660.00,99.21
3659.00,99.19
3658.00,99.17
3657.00,99.16
3656.00,99.16
3655.00,99.15
3654.00,99.13
3653.00,99.10
3652.00,99.06
3651.00,99.03
3650.00,99.01
3649.00,99.00
3648.00,99.00
3647.00,99.00
3646.00,99.02
3645.00,99.04
3644.00,99.05
3643.00,99.06
3642.00,99.05
3641.00,99.02
3640.00,99.00
3639.00,98.99
3638.00,98.99
3637.00,99.00
3636.00,99.01
3635.00,99.02
3634.00,99.02
3633.00,99.01
3632.00,98.98
3631.00,98.93
3630.00,98.88
3629.00,98.85
3628.00,98.84
3627.00,98.84
3626.00,98.86
3625.00,98.87
3624.00,98.88
3623.00,98.86
3622.00,98.83
3621.00,98.80
3620.00,98.78
3619.00,98.76
3618.00,98.74
3617.00,98.73
3616.00,98.72
3615.00,98.71
3614.00,98.71
3613.00,98.68
3612.00,98.65
3611.00,98.62
3610.00,98.60
3609.00,98.59
3608.00,98.57
3607.00,98.55
3606.00,98.53
3605.00,98.51
3604.00,98.49
3603.00,98.47
3602.00,98.46
3601.00,98.44
3600.00,98.43
3599.00,98.42
3598.00,98.40
3597.00,98.39
3596.00,98.38
3595.00,98.37
3594.00,98.37
3593.00,98.36
3592.00,98.34
3591.00,98.33
3590.00,98.32
3589.00,98.31
3588.00,98.31
3587.00,98.28
3586.00,98.25
3585.00,98.21
3584.00,98.18
3583.00,98.16
3582.00,98.15
3581.00,98.13
3580.00,98.10
3579.00,98.07
3578.00,98.04
3577.00,98.02
3576.00,98.01
3575.00,98.00
3574.00,97.98
3573.00,97.95
3572.00,97.92
3571.00,97.88
3570.00,97.85
3569.00,97.83
3568.00,97.81
3567.00,97.78
3566.00,97.75
3565.00,97.73
3564.00,97.71
3563.00,97.70
3562.00,97.70
3561.00,97.69
3560.00,97.67
3559.00,97.66
3558.00,97.64
3557.00,97.62
3556.00,97.59
3555.00,97.56
3554.00,97.53
3553.00,97.50
3552.00,97.48
3551.00,97.46
3550.00,97.44
3549.00,97.41
3548.00,97.39
3547.00,97.37
3546.00,97.34
3545.00,97.31
3544.00,97.27
3543.00,97.23
3542.00,97.20
3541.00,97.17
3540.00,97.15
3539.00,97.13
3538.00,97.10
3537.00,97.08
3536.00,97.06
3535.00,97.05
3534.00,97.04
3533.00,97.02
3532.00,96.99
3531.00,96.95
3530.00,96.91
3529.00,96.87
3528.00,96.85
3527.00,96.83
3526.00,96.81
3525.00,96.78
3524.00,96.75
3523.00,96.71
3522.00,96.68
3521.00,96.65
3520.00,96.62
3519.00,96.60
3518.00,96.58
3517.00,96.55
3516.00,96.53
3515.00,96.50
3514.00,96.47
3513.00,96.44
3512.00,96.40
3511.00,96.37
3510.00,96.33
3509.00,96.29
3508.00,96.25
3507.00,96.21
3506.00,96.15
3505.00,96.10
3504.00,96.06
3503.00,96.04
3502.00,96.03
3501.00,96.02
3500.00,95.99
3499.00,95.95
3498.00,95.91
3497.00,95.86
3496.00,95.82
3495.00,95.80
3494.00,95.78
3493.00,95.77
3492.00,95.75
3491.00,95.72
3490.00,95.66
3489.00,95.60
3488.00,95.55
3487.00,95.52
3486.00,95.49
3485.00,95.47
3484.00,95.44
3483.00,95.40
3482.00,95.36
3481.00,95.31
3480.00,95.27
3479.00,95.24
3478.00,95.21
3477.00,95.17
3476.00,95.13
3475.00,95.09
3474.00,95.05
3473.00,95.01
3472.00,94.97
3471.00,94.93
3470.00,94.89
3469.00,94.84
3468.00,94.79
3467.00,94.75
3466.00,94.72
3465.00,94.68
3464.00,94.63
3463.00,94.58
3462.00,94.53
3461.00,94.50
3460.00,94.47
3459.00,94.44
3458.00,94.40
3457.00,94.35
3456.00,94.29
3455.00,94.24
3454.00,94.18
3453.00,94.13
3452.00,94.08
3451.00,94.05
3450.00,94.03
3449.00,94.00
3448.00,93.96
3447.00,93.90
3446.00,93.84
3445.00,93.79
3444.00,93.75
3443.00,93.71
3442.00,93.67
3441.00,93.63
3440.00,93.58
3439.00,93.53
3438.00,93.48
3437.00,93.43
3436.00,93.38
3435.00,93.33
3434.00,93.29
3433.00,93.25
3432.00,93.21
3431.00,93.17
3430.00,93.13
3429.00,93.09
3428.00,93.05
3427.00,93.00
3426.00,92.95
3425.00,92.90
3424.00,92.84
3423.00,92.78
3422.00,92.72
3421.00,92.66
3420.00,92.59
3419.00,92.53
3418.00,92.47
3417.00,92.40
3416.00,92.34
3415.00,92.27
3414.00,92.21
3413.00,92.15
3412.00,92.11
3411.00,92.06
3410.00,92.01
3409.00,91.95
3408.00,91.90
3407.00,91.85
3406.00,91.81
3405.00,91.77
3404.00,91.74
3403.00,91.72
3402.00,91.70
3401.00,91.68
3400.00,91.65
3399.00,91.62
3398.00,91.58
3397.00,91.56
3396.00,91.53
3395.00,91.51
3394.00,91.49
3393.00,91.47
3392.00,91.45
3391.00,91.45
3390.00,91.45
3389.00,91.44
3388.00,91.40
3387.00,91.35
3386.00,91.29
3385.00,91.24
3384.00,91.20
3383.00,91.17
3382.00,91.15
3381.00,91.13
3380.00,91.09
3379.00,91.05
3378.00,91.00
3377.00,90.96
3376.00,90.92
3375.00,90.88
3374.00,90.84
3373.00,90.80
3372.00,90.76
3371.00,90.70
3370.00,90.65
3369.00,90.59
3368.00,90.53
3367.00,90.48
3366.00,90.44
3365.00,90.41
3364.00,90.38
3363.00,90.34
3362.00,90.30
3361.00,90.24
3360.00,90.17
3359.00,90.11
3358.00,90.05
3357.00,89.98
3356.00,89.91
3355.00,89.83
3354.00,89.76
3353.00,89.70
3352.00,89.63
3351.00,89.56
3350.00,89.49
3349.00,89.42
3348.00,89.36
3347.00,89.29
3346.00,89.23
3345.00,89.17
3344.00,89.12
3343.00,89.08
3342.00,89.06
3341.00,89.05
3340.00,89.03
3339.00,89.02
3338.00,89.02
3337.00,89.03
3336.00,89.04
3335.00,89.06
3334.00,89.07
3333.00,89.08
3332.00,89.10
3331.00,89.12
3330.00,89.16
3329.00,89.19
3328.00,89.23
3327.00,89.29
3326.00,89.35
3325.00,89.41
3324.00,89.45
3323.00,89.48
3322.00,89.52
3321.00,89.56
3320.00,89.61
3319.00,89.65
3318.00,89.67
3317.00,89.67
3316.00,89.67
3315.00,89.66
3314.00,89.66
3313.00,89.66
3312.00,89.66
3311.00,89.65
3310.00,89.64
3309.00,89.62
3308.00,89.60
3307.00,89.58
3306.00,89.56
3305.00,89.54
3304.00,89.52
3303.00,89.50
3302.00,89.48
3301.00,89.46
3300.00,89.46
3299.00,89.45
3298.00,89.45
3297.00,89.44
3296.00,89.43
3295.00,89.43
3294.00,89.44
3293.00,89.45
3292.00,89.45
3291.00,89.46
3290.00,89.46
3289.00,89.46
3288.00,89.47
3287.00,89.48
3286.00,89.49
3285.00,89.50
3284.00,89.51
3283.00,89.53
3282.00,89.56
3281.00,89.58
3280.00,89.61
3279.00,89.62
3278.00,89.64
3277.00,89.65
3276.00,89.67
3275.00,89.68
3274.00,89.71
3273.00,89.74
3272.00,89.78
3271.00,89.82
3270.00,89.86
3269.00,89.90
3268.00,89.95
3267.00,90.00
3266.00,90.06
3265.00,90.12
3264.00,90.19
3263.00,90.26
3262.00,90.32
3261.00,90.38
3260.00,90.43
3259.00,90.50
3258.00,90.57
3257.00,90.64
3256.00,90.71
3255.00,90.78
3254.00,90.85
3253.00,90.93
3252.00,91.02
3251.00,91.10
3250.00,91.18
3249.00,91.25
3248.00,91.32
3247.00,91.39
3246.00,91.46
3245.00,91.53
3244.00,91.59
3243.00,91.65
3242.00,91.70
3241.00,91.75
3240.00,91.80
3239.00,91.85
3238.00,91.90
3237.00,91.95
3236.00,92.01
3235.00,92.06
3234.00,92.11
3233.00,92.15
3232.00,92.19
3231.00,92.24
3230.00,92.29
3229.00,92.35
3228.00,92.40
3227.00,92.44
3226.00,92.48
3225.00,92.52
3224.00,92.56
3223.00,92.59
3222.00,92.64
3221.00,92.68
3220.00,92.74
3219.00,92.79
3218.00,92.85
3217.00,92.90
3216.00,92.94
3215.00,92.99
3214.00,93.04
3213.00,93.08
3212.00,93.13
3211.00,93.17
3210.00,93.21
3209.00,93.25
3208.00,93.27
3207.00,93.31
3206.00,93.35
3205.00,93.40
3204.00,93.46
3203.00,93.52
3202.00,93.57
3201.00,93.61
3200.00,93.65
3199.00,93.68
3198.00,93.72
3197.00,93.76
3196.00,93.80
3195.00,93.83
3194.00,93.86
3193.00,93.90
3192.00,93.94
3191.00,93.99
3190.00,94.03
3189.00,94.07
3188.00,94.10
3187.00,94.12
3186.00,94.16
3185.00,94.20
3184.00,94.24
3183.00,94.29
3182.00,94.33
3181.00,94.37
3180.00,94.40
3179.00,94.44
3178.00,94.48
3177.00,94.53
3176.00,94.59
3175.00,94.63
3174.00,94.67
3173.00,94.70
3172.00,94.73
3171.00,94.75
3170.00,94.79
3169.00,94.83
3168.00,94.88
3167.00,94.93
3166.00,94.97
3165.00,95.01
3164.00,95.04
3163.00,95.08
3162.00,95.12
3161.00,95.16
3160.00,95.19
3159.00,95.22
3158.00,95.24
3157.00,95.26
3156.00,95.29
3155.00,95.32
3154.00,95.34
3153.00,95.37
3152.00,95.40
3151.00,95.44
3150.00,95.47
3149.00,95.50
3148.00,95.52
3147.00,95.55
3146.00,95.59
3145.00,95.63
3144.00,95.68
3143.00,95.72
3142.00,95.76
3141.00,95.79
3140.00,95.82
3139.00,95.85
3138.00,95.87
3137.00,95.89
3136.00,95.91
3135.00,95.94
3134.00,95.97
3133.00,96.00
3132.00,96.02
3131.00,96.04
3130.00,96.07
3129.00,96.09
3128.00,96.12
3127.00,96.14
3126.00,96.16
3125.00,96.18
3124.00,96.21
3123.00,96.23
3122.00,96.25
3121.00,96.26
3120.00,96.27
3119.00,96.30
3118.00,96.33
3117.00,96.37
3116.00,96.40
3115.00,96.44
3114.00,96.47
3113.00,96.48
3112.00,96.49
3111.00,96.50
3110.00,96.51
3109.00,96.53
3108.00,96.55
3107.00,96.57
3106.00,96.59
3105.00,96.61
3104.00,96.62
3103.00,96.63
3102.00,96.63
3101.00,96.64
3100.00,96.65
3099.00,96.67
3098.00,96.70
3097.00,96.73
3096.00,96.76
3095.00,96.78
3094.00,96.78
3093.00,96.79
3092.00,96.78
3091.00,96.78
3090.00,96.79
3089.00,96.81
3088.00,96.84
3087.00,96.86
3086.00,96.88
3085.00,96.89
3084.00,96.91
3083.00,96.92
3082.00,96.93
3081.00,96.94
3080.00,96.95
3079.00,96.98
3078.00,97.01
3077.00,97.04
3076.00,97.06
3075.00,97.06
3074.00,97.06
3073.00,97.06
3072.00,97.06
3071.00,97.07
3070.00,97.09
3069.00,97.11
3068.00,97.12
3067.00,97.13
3066.00,97.14
3065.00,97.14
3064.00,97.14
3063.00,97.14
3062.00,97.15
3061.00,97.17
3060.00,97.19
3059.00,97.21
3058.00,97.22
3057.00,97.24
3056.00,97.25
3055.00,97.26
3054.00,97.27
3053.00,97.28
3052.00,97.29
3051.00,97.30
3050.00,97.31
3049.00,97.32
3048.00,97.33
3047.00,97.33
3046.00,97.33
3045.00,97.34
3044.00,97.34
3043.00,97.34
3042.00,97.34
3041.00,97.33
3040.00,97.33
3039.00,97.32
3038.00,97.32
3037.00,97.32
3036.00,97.33
3035.00,97.33
3034.00,97.33
3033.00,97.32
3032.00,97.33
3031.00,97.33
3030.00,97.33
3029.00,97.33
3028.00,97.34
3027.00,97.34
3026.00,97.35
3025.00,97.34
3024.00,97.33
3023.00,97.33
3022.00,97.34
3021.00,97.35
3020.00,97.36
3019.00,97.36
3018.00,97.35
3017.00,97.35
3016.00,97.34
3015.00,97.34
3014.00,97.33
3013.00,97.33
3012.00,97.33
3011.00,97.32
3010.00,97.32
3009.00,97.31
3008.00,97.30
3007.00,97.28
3006.00,97.26
3005.00,97.24
3004.00,97.22
3003.00,97.20
3002.00,97.17
3001.00,97.15
3000.00,97.12
2999.00,97.09
2998.00,97.07
2997.00,97.05
2996.00,97.02
2995.00,96.99
2994.00,96.94
2993.00,96.90
2992.00,96.84
2991.00,96.79
2990.00,96.72
2989.00,96.65
2988.00,96.56
2987.00,96.47
2986.00,96.36
2985.00,96.24
2984.00,96.12
2983.00,95.98
2982.00,95.83
2981.00,95.65
2980.00,95.44
2979.00,95.21
2978.00,94.96
2977.00,94.69
2976.00,94.40
2975.00,94.08
2974.00,93.74
2973.00,93.38
2972.00,92.99
2971.00,92.56
2970.00,92.11
2969.00,91.63
2968.00,91.13
2967.00,90.64
2966.00,90.15
2965.00,89.66
2964.00,89.17
2963.00,88.68
2962.00,88.20
2961.00,87.74
2960.00,87.31
2959.00,86.90
2958.00,86.54
2957.00,86.25
2956.00,86.03
2955.00,85.92
2954.00,85.90
2953.00,85.96
2952.00,86.08
2951.00,86.24
2950.00,86.39
2949.00,86.51
2948.00,86.56
2947.00,86.52
2946.00,86.38
2945.00,86.12
2944.00,85.76
2943.00,85.29
2942.00,84.73
2941.00,84.07
2940.00,83.33
2939.00,82.50
2938.00,81.58
2937.00,80.57
2936.00,79.45
2935.00,78.24
2934.00,76.95
2933.00,75.57
2932.00,74.12
2931.00,72.58
2930.00,70.94
2929.00,69.19
2928.00,67.32
2927.00,65.29
2926.00,63.09
2925.00,60.71
2924.00,58.16
2923.00,55.45
2922.00,52.67
2921.00,49.89
2920.00,47.27
2919.00,45.03
2918.00,43.47
2917.00,42.85
2916.00,43.32
2915.00,44.84
2914.00,47.16
2913.00,49.93
2912.00,52.82
2911.00,55.57
2910.00,58.05
2909.00,60.21
2908.00,62.07
2907.00,63.65
2906.00,65.00
2905.00,66.15
2904.00,67.15
2903.00,68.03
2902.00,68.82
2901.00,69.54
2900.00,70.23
2899.00,70.89
2898.00,71.54
2897.00,72.17
2896.00,72.80
2895.00,73.43
2894.00,74.07
2893.00,74.72
2892.00,75.37
2891.00,76.04
2890.00,76.71
2889.00,77.39
2888.00,78.08
2887.00,78.76
2886.00,79.45
2885.00,80.12
2884.00,80.76
2883.00,81.37
2882.00,81.93
2881.00,82.42
2880.00,82.85
2879.00,83.19
2878.00,83.44
2877.00,83.58
2876.00,83.63
2875.00,83.59
2874.00,83.51
2873.00,83.42
2872.00,83.34
2871.00,83.31
2870.00,83.32
2869.00,83.36
2868.00,83.39
2867.00,83.37
2866.00,83.26
2865.00,83.02
2864.00,82.63
2863.00,82.07
2862.00,81.31
2861.00,80.37
2860.00,79.23
2859.00,77.88
2858.00,76.30
2857.00,74.42
2856.00,72.14
2855.00,69.36
2854.00,65.98
2853.00,62.04
2852.00,57.80
2851.00,53.84
2850.00,50.96
2849.00,49.88
2848.00,50.93
2847.00,53.86
2846.00,58.02
2845.00,62.62
2844.00,67.05
2843.00,71.00
2842.00,74.36
2841.00,77.17
2840.00,79.53
2839.00,81.53
2838.00,83.23
2837.00,84.69
2836.00,85.94
2835.00,87.02
2834.00,87.94
2833.00,88.75
2832.00,89.45
2831.00,90.08
2830.00,90.64
2829.00,91.13
2828.00,91.56
2827.00,91.95
2826.00,92.31
2825.00,92.64
2824.00,92.94
2823.00,93.21
2822.00,93.45
2821.00,93.66
2820.00,93.86
2819.00,94.04
2818.00,94.20
2817.00,94.36
2816.00,94.51
2815.00,94.65
2814.00,94.79
2813.00,94.91
2812.00,95.03
2811.00,95.14
2810.00,95.25
2809.00,95.35
2808.00,95.45
2807.00,95.55
2806.00,95.64
2805.00,95.73
2804.00,95.81
2803.00,95.88
2802.00,95.94
2801.00,96.01
2800.00,96.07
2799.00,96.13
2798.00,96.20
2797.00,96.27
2796.00,96.33
2795.00,96.40
2794.00,96.46
2793.00,96.52
2792.00,96.58
2791.00,96.63
2790.00,96.68
2789.00,96.72
2788.00,96.78
2787.00,96.83
2786.00,96.88
2785.00,96.92
2784.00,96.96
2783.00,96.99
2782.00,97.03
2781.00,97.07
2780.00,97.11
2779.00,97.14
2778.00,97.17
2777.00,97.20
2776.00,97.24
2775.00,97.28
2774.00,97.32
2773.00,97.35
2772.00,97.37
2771.00,97.39
2770.00,97.41
2769.00,97.44
2768.00,97.45
2767.00,97.46
2766.00,97.46
2765.00,97.46
2764.00,97.47
2763.00,97.49
2762.00,97.51
2761.00,97.53
2760.00,97.55
2759.00,97.56
2758.00,97.58
2757.00,97.59
2756.00,97.59
2755.00,97.60
2754.00,97.61
2753.00,97.62
2752.00,97.63
2751.00,97.63
2750.00,97.62
2749.00,97.61
2748.00,97.60
2747.00,97.60
2746.00,97.61
2745.00,97.61
2744.00,97.62
2743.00,97.62
2742.00,97.61
2741.00,97.61
2740.00,97.61
2739.00,97.61
2738.00,97.61
2737.00,97.61
2736.00,97.60
2735.00,97.60
2734.00,97.60
2733.00,97.60
2732.00,97.60
2731.00,97.61
2730.00,97.62
2729.00,97.62
2728.00,97.63
2727.00,97.64
2726.00,97.65
2725.00,97.67
2724.00,97.68
2723.00,97.68
2722.00,97.69
2721.00,97.71
2720.00,97.73
2719.00,97.74
2718.00,97.76
2717.00,97.77
2716.00,97.79
2715.00,97.81
2714.00,97.83
2713.00,97.85
2712.00,97.87
2711.00,97.89
2710.00,97.91
2709.00,97.93
2708.00,97.95
2707.00,97.97
2706.00,97.98
2705.00,97.98
2704.00,97.98
2703.00,97.99
2702.00,98.00
2701.00,98.02
2700.00,98.03
2699.00,98.03
2698.00,98.04
2697.00,98.04
2696.00,98.05
2695.00,98.06
2694.00,98.07
2693.00,98.08
2692.00,98.09
2691.00,98.09
2690.00,98.10
2689.00,98.11
2688.00,98.11
2687.00,98.12
2686.00,98.11
2685.00,98.10
2684.00,98.10
2683.00,98.10
2682.00,98.10
2681.00,98.11
2680.00,98.12
2679.00,98.13
2678.00,98.14
2677.00,98.15
2676.00,98.15
2675.00,98.14
2674.00,98.12
2673.00,98.10
2672.00,98.09
2671.00,98.08
2670.00,98.07
2669.00,98.07
2668.00,98.06
2667.00,98.06
2666.00,98.05
2665.00,98.04
2664.00,98.03
2663.00,98.02
2662.00,98.01
2661.00,98.00
2660.00,98.00
2659.00,98.00
2658.00,97.99
2657.00,97.99
2656.00,97.98
2655.00,97.98
2654.00,97.98
2653.00,98.00
2652.00,98.01
2651.00,98.01
2650.00,98.00
2649.00,97.99
2648.00,97.98
2647.00,97.98
2646.00,97.98
2645.00,97.97
2644.00,97.96
2643.00,97.94
2642.00,97.92
2641.00,97.90
2640.00,97.89
2639.00,97.88
2638.00,97.88
2637.00,97.87
2636.00,97.86
2635.00,97.86
2634.00,97.87
2633.00,97.89
2632.00,97.90
2631.00,97.90
2630.00,97.90
2629.00,97.90
2628.00,97.90
2627.00,97.91
2626.00,97.91
2625.00,97.92
2624.00,97.94
2623.00,97.95
2622.00,97.96
2621.00,97.96
2620.00,97.96
2619.00,97.95
2618.00,97.96
2617.00,97.98
2616.00,98.00
2615.00,98.01
2614.00,98.02
2613.00,98.03
2612.00,98.04
2611.00,98.05
2610.00,98.06
2609.00,98.06
2608.00,98.06
2607.00,98.06
2606.00,98.07
2605.00,98.07
2604.00,98.07
2603.00,98.08
2602.00,98.08
2601.00,98.08
2600.00,98.08
2599.00,98.08
2598.00,98.09
2597.00,98.10
2596.00,98.11
2595.00,98.11
2594.00,98.10
2593.00,98.09
2592.00,98.09
2591.00,98.09
2590.00,98.09
2589.00,98.10
2588.00,98.11
2587.00,98.12
2586.00,98.12
2585.00,98.12
2584.00,98.12
2583.00,98.13
2582.00,98.14
2581.00,98.15
2580.00,98.14
2579.00,98.13
2578.00,98.11
2577.00,98.10
2576.00,98.10
2575.00,98.11
2574.00,98.12
2573.00,98.14
2572.00,98.15
2571.00,98.15
2570.00,98.15
2569.00,98.15
2568.00,98.15
2567.00,98.15
2566.00,98.17
2565.00,98.18
2564.00,98.19
2563.00,98.20
2562.00,98.21
2561.00,98.21
2560.00,98.22
2559.00,98.22
2558.00,98.23
2557.00,98.23
2556.00,98.22
2555.00,98.21
2554.00,98.21
2553.00,98.21
2552.00,98.22
2551.00,98.24
2550.00,98.26
2549.00,98.27
2548.00,98.26
2547.00,98.24
2546.00,98.22
2545.00,98.22
2544.00,98.23
2543.00,98.24
2542.00,98.25
2541.00,98.26
2540.00,98.26
2539.00,98.25
2538.00,98.23
2537.00,98.21
2536.00,98.21
2535.00,98.21
2534.00,98.22
2533.00,98.22
2532.00,98.21
2531.00,98.20
2530.00,98.20
2529.00,98.21
2528.00,98.22
2527.00,98.24
2526.00,98.24
2525.00,98.25
2524.00,98.26
2523.00,98.27
2522.00,98.28
2521.00,98.28
2520.00,98.27
2519.00,98.26
2518.00,98.26
2517.00,98.26
2516.00,98.27
2515.00,98.29
2514.00,98.31
2513.00,98.32
2512.00,98.33
2511.00,98.33
2510.00,98.34
2509.00,98.34
2508.00,98.33
2507.00,98.33
2506.00,98.32
2505.00,98.31
2504.00,98.32
2503.00,98.34
2502.00,98.37
2501.00,98.40
2500.00,98.40
2499.00,98.40
2498.00,98.40
2497.00,98.41
2496.00,98.42
2495.00,98.42
2494.00,98.42
2493.00,98.40
2492.00,98.39
2491.00,98.39
2490.00,98.39
2489.00,98.39
2488.00,98.39
2487.00,98.41
2486.00,98.42
2485.00,98.44
2484.00,98.44
2483.00,98.44
2482.00,98.44
2481.00,98.43
2480.00,98.43
2479.00,98.43
2478.00,98.44
2477.00,98.43
2476.00,98.43
2475.00,98.44
2474.00,98.45
2473.00,98.46
2472.00,98.47
2471.00,98.48
2470.00,98.49
2469.00,98.49
2468.00,98.49
2467.00,98.48
2466.00,98.47
2465.00,98.47
2464.00,98.47
2463.00,98.48
2462.00,98.50
2461.00,98.53
2460.00,98.55
2459.00,98.56
2458.00,98.56
2457.00,98.55
2456.00,98.54
2455.00,98.52
2454.00,98.51
2453.00,98.50
2452.00,98.51
2451.00,98.52
2450.00,98.55
2449.00,98.56
2448.00,98.57
2447.00,98.56
2446.00,98.55
2445.00,98.54
2444.00,98.52
2443.00,98.52
2442.00,98.53
2441.00,98.55
2440.00,98.56
2439.00,98.57
2438.00,98.58
2437.00,98.58
2436.00,98.58
2435.00,98.58
2434.00,98.59
2433.00,98.58
2432.00,98.58
2431.00,98.58
2430.00,98.58
2429.00,98.59
2428.00,98.60
2427.00,98.61
2426.00,98.62
2425.00,98.62
2424.00,98.63
2423.00,98.64
2422.00,98.64
2421.00,98.65
2420.00,98.65
2419.00,98.66
2418.00,98.66
2417.00,98.64
2416.00,98.63
2415.00,98.64
2414.00,98.67
2413.00,98.69
2412.00,98.71
2411.00,98.72
2410.00,98.73
2409.00,98.74
2408.00,98.75
2407.00,98.76
2406.00,98.76
2405.00,98.76
2404.00,98.75
2403.00,98.76
2402.00,98.78
2401.00,98.81
2400.00,98.83
2399.00,98.84
2398.00,98.85
2397.00,98.84
2396.00,98.84
2395.00,98.83
2394.00,98.83
2393.00,98.84
2392.00,98.86
2391.00,98.88
2390.00,98.90
2389.00,98.91
2388.00,98.91
2387.00,98.90
2386.00,98.90
2385.00,98.91
2384.00,98.92
2383.00,98.94
2382.00,98.98
2381.00,99.02
2380.00,99.06
2379.00,99.08
2378.00,99.08
2377.00,99.04
2376.00,99.00
2375.00,98.99
2374.00,99.00
2373.00,99.03
2372.00,99.06
2371.00,99.09
2370.00,99.09
2369.00,99.08
2368.00,99.08
2367.00,99.08
2366.00,99.10
2365.00,99.10
2364.00,99.08
2363.00,99.07
2362.00,99.09
2361.00,99.10
2360.00,99.09
2359.00,99.07
2358.00,99.08
2357.00,99.09
2356.00,99.10
2355.00,99.10
2354.00,99.09
2353.00,99.08
2352.00,99.08
2351.00,99.09
2350.00,99.10
2349.00,99.12
2348.00,99.16
2347.00,99.20
2346.00,99.24
2345.00,99.23
2344.00,99.18
2343.00,99.11
2342.00,99.05
2341.00,99.01
2340.00,98.99
2339.00,98.98
2338.00,98.96
2337.00,98.95
2336.00,98.95
2335.00,98.98
2334.00,99.02
2333.00,99.04
2332.00,99.04
2331.00,99.03
2330.00,99.03
2329.00,99.03
2328.00,99.00
2327.00,98.95
2326.00,98.86
2325.00,98.77
2324.00,98.71
2323.00,98.71
2322.00,98.74
2321.00,98.77
2320.00,98.77
2319.00,98.75
2318.00,98.73
2317.00,98.71
2316.00,98.70
2315.00,98.70
2314.00,98.69
2313.00,98.70
2312.00,98.70
2311.00,98.71
2310.00,98.70
2309.00,98.68
2308.00,98.65
2307.00,98.63
2306.00,98.63
2305.00,98.64
2304.00,98.65
2303.00,98.65
2302.00,98.65
2301.00,98.63
2300.00,98.62
2299.00,98.60
2298.00,98.57
2297.00,98.54
2296.00,98.50
2295.00,98.47
2294.00,98.45
2293.00,98.43
2292.00,98.40
2291.00,98.36
2290.00,98.33
2289.00,98.31
2288.00,98.29
2287.00,98.26
2286.00,98.24
2285.00,98.22
2284.00,98.20
2283.00,98.19
2282.00,98.17
2281.00,98.16
2280.00,98.15
2279.00,98.15
2278.00,98.14
2277.00,98.12
2276.00,98.12
2275.00,98.13
2274.00,98.14
2273.00,98.13
2272.00,98.11
2271.00,98.09
2270.00,98.08
2269.00,98.07
2268.00,98.06
2267.00,98.04
2266.00,98.01
2265.00,97.98
2264.00,97.93
2263.00,97.91
2262.00,97.90
2261.00,97.90
2260.00,97.91
2259.00,97.91
2258.00,97.89
2257.00,97.86
2256.00,97.83
2255.00,97.81
2254.00,97.80
2253.00,97.80
2252.00,97.79
2251.00,97.77
2250.00,97.74
2249.00,97.71
2248.00,97.70
2247.00,97.70
2246.00,97.71
2245.00,97.72
2244.00,97.72
2243.00,97.72
2242.00,97.70
2241.00,97.66
2240.00,97.61
2239.00,97.56
2238.00,97.53
2237.00,97.52
2236.00,97.51
2235.00,97.49
2234.00,97.47
2233.00,97.45
2232.00,97.43
2231.00,97.41
2230.00,97.40
2229.00,97.41
2228.00,97.44
2227.00,97.47
2226.00,97.47
2225.00,97.45
2224.00,97.42
2223.00,97.41
2222.00,97.41
2221.00,97.40
2220.00,97.38
2219.00,97.36
2218.00,97.33
2217.00,97.30
2216.00,97.26
2215.00,97.24
2214.00,97.23
2213.00,97.23
2212.00,97.23
2211.00,97.21
2210.00,97.17
2209.00,97.14
2208.00,97.13
2207.00,97.13
2206.00,97.13
2205.00,97.12
2204.00,97.10
2203.00,97.07
2202.00,97.03
2201.00,96.99
2200.00,96.97
2199.00,96.96
2198.00,96.94
2197.00,96.92
2196.00,96.91
2195.00,96.93
2194.00,96.98
2193.00,96.99
2192.00,96.96
2191.00,96.90
2190.00,96.83
2189.00,96.79
2188.00,96.76
2187.00,96.72
2186.00,96.66
2185.00,96.60
2184.00,96.58
2183.00,96.61
2182.00,96.66
2181.00,96.68
2180.00,96.65
2179.00,96.60
2178.00,96.58
2177.00,96.60
2176.00,96.65
2175.00,96.66
2174.00,96.63
2173.00,96.55
2172.00,96.48
2171.00,96.43
2170.00,96.40
2169.00,96.36
2168.00,96.30
2167.00,96.23
2166.00,96.15
2165.00,96.04
2164.00,95.91
2163.00,95.79
2162.00,95.73
2161.00,95.76
2160.00,95.91
2159.00,96.13
2158.00,96.34
2157.00,96.50
2156.00,96.58
2155.00,96.64
2154.00,96.67
2153.00,96.71
2152.00,96.74
2151.00,96.78
2150.00,96.83
2149.00,96.87
2148.00,96.92
2147.00,96.99
2146.00,97.08
2145.00,97.16
2144.00,97.23
2143.00,97.26
2142.00,97.29
2141.00,97.31
2140.00,97.33
2139.00,97.38
2138.00,97.43
2137.00,97.50
2136.00,97.57
2135.00,97.64
2134.00,97.70
2133.00,97.74
2132.00,97.78
2131.00,97.81
2130.00,97.83
2129.00,97.84
2128.00,97.85
2127.00,97.86
2126.00,97.89
2125.00,97.90
2124.00,97.91
2123.00,97.92
2122.00,97.93
2121.00,97.95
2120.00,97.96
2119.00,97.98
2118.00,97.99
2117.00,97.98
2116.00,97.96
2115.00,97.94
2114.00,97.92
2113.00,97.90
2112.00,97.88
2111.00,97.87
2110.00,97.87
2109.00,97.87
2108.00,97.88
2107.00,97.88
2106.00,97.87
2105.00,97.87
2104.00,97.86
2103.00,97.86
2102.00,97.85
2101.00,97.85
2100.00,97.83
2099.00,97.82
2098.00,97.81
2097.00,97.80
2096.00,97.82
2095.00,97.85
2094.00,97.90
2093.00,97.93
2092.00,97.93
2091.00,97.92
2090.00,97.90
2089.00,97.87
2088.00,97.85
2087.00,97.83
2086.00,97.82
2085.00,97.82
2084.00,97.82
2083.00,97.82
2082.00,97.82
2081.00,97.81
2080.00,97.78
2079.00,97.74
2078.00,97.69
2077.00,97.65
2076.00,97.63
2075.00,97.63
2074.00,97.65
2073.00,97.66
2072.00,97.66
2071.00,97.65
2070.00,97.64
2069.00,97.63
2068.00,97.62
2067.00,97.61
2066.00,97.60
2065.00,97.57
2064.00,97.53
2063.00,97.50
2062.00,97.48
2061.00,97.46
2060.00,97.45
2059.00,97.44
2058.00,97.43
2057.00,97.41
2056.00,97.36
2055.00,97.31
2054.00,97.25
2053.00,97.19
2052.00,97.12
2051.00,97.04
2050.00,96.98
2049.00,96.95
2048.00,96.93
2047.00,96.90
2046.00,96.85
2045.00,96.80
2044.00,96.78
2043.00,96.75
2042.00,96.72
2041.00,96.66
2040.00,96.58
2039.00,96.50
2038.00,96.45
2037.00,96.44
2036.00,96.47
2035.00,96.53
2034.00,96.58
2033.00,96.58
2032.00,96.55
2031.00,96.49
2030.00,96.43
2029.00,96.39
2028.00,96.40
2027.00,96.45
2026.00,96.50
2025.00,96.55
2024.00,96.59
2023.00,96.62
2022.00,96.62
2021.00,96.60
2020.00,96.59
2019.00,96.58
2018.00,96.58
2017.00,96.57
2016.00,96.57
2015.00,96.58
2014.00,96.60
2013.00,96.62
2012.00,96.64
2011.00,96.68
2010.00,96.71
2009.00,96.76
2008.00,96.81
2007.00,96.87
2006.00,96.95
2005.00,97.01
2004.00,97.04
2003.00,97.05
2002.00,97.05
2001.00,97.06
2000.00,97.08
1999.00,97.10
1998.00,97.08
1997.00,97.03
1996.00,97.00
1995.00,97.01
1994.00,97.08
1993.00,97.17
1992.00,97.24
1991.00,97.27
1990.00,97.25
1989.00,97.21
1988.00,97.16
1987.00,97.14
1986.00,97.11
1985.00,97.06
1984.00,96.98
1983.00,96.88
1982.00,96.79
1981.00,96.72
1980.00,96.70
1979.00,96.74
1978.00,96.83
1977.00,96.93
1976.00,96.98
1975.00,96.97
1974.00,96.96
1973.00,96.97
1972.00,97.01
1971.00,97.07
1970.00,97.12
1969.00,97.16
1968.00,97.19
1967.00,97.21
1966.00,97.22
1965.00,97.24
1964.00,97.27
1963.00,97.34
1962.00,97.42
1961.00,97.49
1960.00,97.54
1959.00,97.59
1958.00,97.65
1957.00,97.70
1956.00,97.74
1955.00,97.77
1954.00,97.79
1953.00,97.79
1952.00,97.79
1951.00,97.81
1950.00,97.86
1949.00,97.92
1948.00,97.97
1947.00,98.01
1946.00,98.02
1945.00,98.02
1944.00,98.03
1943.00,98.03
1942.00,98.05
1941.00,98.05
1940.00,98.07
1939.00,98.11
1938.00,98.16
1937.00,98.20
1936.00,98.25
1935.00,98.28
1934.00,98.31
1933.00,98.31
1932.00,98.31
1931.00,98.31
1930.00,98.32
1929.00,98.33
1928.00,98.34
1927.00,98.35
1926.00,98.36
1925.00,98.36
1924.00,98.36
1923.00,98.37
1922.00,98.39
1921.00,98.39
1920.00,98.39
1919.00,98.39
1918.00,98.40
1917.00,98.41
1916.00,98.43
1915.00,98.46
1914.00,98.49
1913.00,98.51
1912.00,98.53
1911.00,98.55
1910.00,98.57
1909.00,98.57
1908.00,98.57
1907.00,98.56
1906.00,98.57
1905.00,98.58
1904.00,98.59
1903.00,98.61
1902.00,98.61
1901.00,98.61
1900.00,98.60
1899.00,98.61
1898.00,98.63
1897.00,98.66
1896.00,98.68
1895.00,98.68
1894.00,98.67
1893.00,98.65
1892.00,98.64
1891.00,98.65
1890.00,98.67
1889.00,98.68
1888.00,98.69
1887.00,98.71
1886.00,98.72
1885.00,98.73
1884.00,98.74
1883.00,98.74
1882.00,98.75
1881.00,98.74
1880.00,98.73
1879.00,98.73
1878.00,98.75
1877.00,98.78
1876.00,98.80
1875.00,98.82
1874.00,98.82
1873.00,98.81
1872.00,98.81
1871.00,98.81
1870.00,98.82
1869.00,98.83
1868.00,98.84
1867.00,98.87
1866.00,98.90
1865.00,98.91
1864.00,98.91
1863.00,98.90
1862.00,98.89
1861.00,98.88
1860.00,98.87
1859.00,98.87
1858.00,98.88
1857.00,98.88
1856.00,98.89
1855.00,98.90
1854.00,98.92
1853.00,98.93
1852.00,98.95
1851.00,98.96
1850.00,98.97
1849.00,98.99
1848.00,99.00
1847.00,99.02
1846.00,99.03
1845.00,99.02
1844.00,99.01
1843.00,99.00
1842.00,98.99
1841.00,98.98
1840.00,98.98
1839.00,98.99
1838.00,99.00
1837.00,99.02
1836.00,99.02
1835.00,99.01
1834.00,99.00
1833.00,98.98
1832.00,98.97
1831.00,98.98
1830.00,98.98
1829.00,98.98
1828.00,98.97
1827.00,98.96
1826.00,98.97
1825.00,98.98
1824.00,98.98
1823.00,98.99
1822.00,99.00
1821.00,98.99
1820.00,98.99
1819.00,99.00
1818.00,99.02
1817.00,99.05
1816.00,99.07
1815.00,99.08
1814.00,99.09
1813.00,99.09
1812.00,99.09
1811.00,99.09
1810.00,99.08
1809.00,99.07
1808.00,99.05
1807.00,99.03
1806.00,99.02
1805.00,99.01
1804.00,99.02
1803.00,99.03
1802.00,99.05
1801.00,99.06
1800.00,99.06
1799.00,99.05
1798.00,99.04
1797.00,99.04
1796.00,99.04
1795.00,99.04
1794.00,99.04
1793.00,99.02
1792.00,99.01
1791.00,99.01
1790.00,99.02
1789.00,99.04
1788.00,99.04
1787.00,99.04
1786.00,99.04
1785.00,99.03
1784.00,99.02
1783.00,99.02
1782.00,99.02
1781.00,99.03
1780.00,99.02
1779.00,99.02
1778.00,99.02
1777.00,99.01
1776.00,99.01
1775.00,99.00
1774.00,99.00
1773.00,98.98
1772.00,98.95
1771.00,98.91
1770.00,98.89
1769.00,98.87
1768.00,98.87
1767.00,98.87
1766.00,98.87
1765.00,98.86
1764.00,98.85
1763.00,98.84
1762.00,98.83
1761.00,98.82
1760.00,98.81
1759.00,98.79
1758.00,98.76
1757.00,98.74
1756.00,98.72
1755.00,98.70
1754.00,98.68
1753.00,98.66
1752.00,98.63
1751.00,98.61
1750.00,98.57
1749.00,98.53
1748.00,98.50
1747.00,98.47
1746.00,98.44
1745.00,98.40
1744.00,98.36
1743.00,98.33
1742.00,98.31
1741.00,98.29
1740.00,98.28
1739.00,98.28
1738.00,98.28
1737.00,98.28
1736.00,98.28
1735.00,98.28
1734.00,98.28
1733.00,98.27
1732.00,98.26
1731.00,98.27
1730.00,98.28
1729.00,98.29
1728.00,98.29
1727.00,98.29
1726.00,98.28
1725.00,98.26
1724.00,98.25
1723.00,98.25
1722.00,98.25
1721.00,98.25
1720.00,98.23
1719.00,98.21
1718.00,98.18
1717.00,98.16
1716.00,98.15
1715.00,98.14
1714.00,98.15
1713.00,98.14
1712.00,98.14
1711.00,98.13
1710.00,98.13
1709.00,98.12
1708.00,98.10
1707.00,98.09
1706.00,98.07
1705.00,98.05
1704.00,98.04
1703.00,98.03
1702.00,98.03
1701.00,98.02
1700.00,98.01
1699.00,98.00
1698.00,98.01
1697.00,97.99
1696.00,97.96
1695.00,97.93
1694.00,97.91
1693.00,97.91
1692.00,97.89
1691.00,97.86
1690.00,97.83
1689.00,97.80
1688.00,97.76
1687.00,97.73
1686.00,97.70
1685.00,97.65
1684.00,97.58
1683.00,97.53
1682.00,97.51
1681.00,97.49
1680.00,97.46
1679.00,97.43
1678.00,97.39
1677.00,97.35
1676.00,97.30
1675.00,97.25
1674.00,97.22
1673.00,97.18
1672.00,97.15
1671.00,97.11
1670.00,97.07
1669.00,97.02
1668.00,96.96
1667.00,96.91
1666.00,96.87
1665.00,96.83
1664.00,96.78
1663.00,96.73
1662.00,96.67
1661.00,96.62
1660.00,96.58
1659.00,96.55
1658.00,96.51
1657.00,96.47
1656.00,96.43
1655.00,96.40
1654.00,96.37
1653.00,96.28
1652.00,96.21
1651.00,96.18
1650.00,96.18
1649.00,96.17
1648.00,96.14
1647.00,96.10
1646.00,96.09
1645.00,96.10
1644.00,96.12
1643.00,96.16
1642.00,96.20
1641.00,96.23
1640.00,96.25
1639.00,96.27
1638.00,96.29
1637.00,96.32
1636.00,96.33
1635.00,96.34
1634.00,96.35
1633.00,96.37
1632.00,96.39
1631.00,96.42
1630.00,96.46
1629.00,96.50
1628.00,96.53
1627.00,96.57
1626.00,96.61
1625.00,96.65
1624.00,96.68
1623.00,96.73
1622.00,96.79
1621.00,96.85
1620.00,96.90
1619.00,96.94
1618.00,96.98
1617.00,97.01
1616.00,97.03
1615.00,97.05
1614.00,97.09
1613.00,97.13
1612.00,97.16
1611.00,97.20
1610.00,97.22
1609.00,97.24
1608.00,97.26
1607.00,97.28
1606.00,97.32
1605.00,97.35
1604.00,97.38
1603.00,97.41
1602.00,97.43
1601.00,97.45
1600.00,97.47
1599.00,97.49
1598.00,97.51
1597.00,97.52
1596.00,97.52
1595.00,97.53
1594.00,97.54
1593.00,97.53
1592.00,97.52
1591.00,97.51
1590.00,97.50
1589.00,97.47
1588.00,97.43
1587.00,97.38
1586.00,97.34
1585.00,97.28
1584.00,97.23
1583.00,97.17
1582.00,97.12
1581.00,97.07
1580.00,97.03
1579.00,97.01
1578.00,97.02
1577.00,97.05
1576.00,97.10
1575.00,97.15
1574.00,97.19
1573.00,97.23
1572.00,97.28
1571.00,97.34
1570.00,97.42
1569.00,97.48
1568.00,97.52
1567.00,97.55
1566.00,97.58
1565.00,97.60
1564.00,97.60
1563.00,97.60
1562.00,97.58
1561.00,97.58
1560.00,97.58
1559.00,97.58
1558.00,97.57
1557.00,97.56
1556.00,97.54
1555.00,97.51
1554.00,97.47
1553.00,97.42
1552.00,97.37
1551.00,97.32
1550.00,97.26
1549.00,97.19
1548.00,97.11
1547.00,97.03
1546.00,96.95
1545.00,96.86
1544.00,96.76
1543.00,96.69
1542.00,96.64
1541.00,96.62
1540.00,96.65
1539.00,96.74
1538.00,96.84
1537.00,96.93
1536.00,97.01
1535.00,97.11
1534.00,97.23
1533.00,97.33
1532.00,97.40
1531.00,97.45
1530.00,97.48
1529.00,97.50
1528.00,97.52
1527.00,97.54
1526.00,97.58
1525.00,97.61
1524.00,97.62
1523.00,97.63
1522.00,97.63
1521.00,97.60
1520.00,97.56
1519.00,97.54
1518.00,97.54
1517.00,97.54
1516.00,97.53
1515.00,97.53
1514.00,97.53
1513.00,97.50
1512.00,97.47
1511.00,97.44
1510.00,97.45
1509.00,97.45
1508.00,97.46
1507.00,97.45
1506.00,97.44
1505.00,97.40
1504.00,97.37
1503.00,97.35
1502.00,97.34
1501.00,97.31
1500.00,97.27
1499.00,97.23
1498.00,97.19
1497.00,97.12
1496.00,97.03
1495.00,96.96
1494.00,96.91
1493.00,96.84
1492.00,96.74
1491.00,96.63
1490.00,96.50
1489.00,96.33
1488.00,96.15
1487.00,95.98
1486.00,95.80
1485.00,95.57
1484.00,95.31
1483.00,95.05
1482.00,94.76
1481.00,94.42
1480.00,94.02
1479.00,93.51
1478.00,92.65
1477.00,91.11
1476.00,88.71
1475.00,85.76
1474.00,82.98
1473.00,81.56
1472.00,82.06
1471.00,83.52
1470.00,84.66
1469.00,85.10
1468.00,84.96
1467.00,84.27
1466.00,82.75
1465.00,80.36
1464.00,77.94
1463.00,76.67
1462.00,76.91
1461.00,78.31
1460.00,80.31
1459.00,82.34
1458.00,83.94
1457.00,84.95
1456.00,85.53
1455.00,85.94
1454.00,86.31
1453.00,86.72
1452.00,87.17
1451.00,87.59
1450.00,87.96
1449.00,88.31
1448.00,88.65
1447.00,88.96
1446.00,89.22
1445.00,89.45
1444.00,89.68
1443.00,89.88
1442.00,90.03
1441.00,90.16
1440.00,90.27
1439.00,90.34
1438.00,90.38
1437.00,90.42
1436.00,90.46
1435.00,90.49
1434.00,90.51
1433.00,90.53
1432.00,90.58
1431.00,90.65
1430.00,90.73
1429.00,90.83
1428.00,90.95
1427.00,91.07
1426.00,91.19
1425.00,91.32
1424.00,91.48
1423.00,91.65
1422.00,91.80
1421.00,91.98
1420.00,92.20
1419.00,92.45
1418.00,92.68
1417.00,92.88
1416.00,93.06
1415.00,93.21
1414.00,93.33
1413.00,93.45
1412.00,93.57
1411.00,93.66
1410.00,93.72
1409.00,93.77
1408.00,93.81
1407.00,93.83
1406.00,93.85
1405.00,93.89
1404.00,93.93
1403.00,93.96
1402.00,93.97
1401.00,93.99
1400.00,94.01
1399.00,94.02
1398.00,94.03
1397.00,94.04
1396.00,94.06
1395.00,94.05
1394.00,94.02
1393.00,93.99
1392.00,93.95
1391.00,93.87
1390.00,93.76
1389.00,93.60
1388.00,93.38
1387.00,93.11
1386.00,92.79
1385.00,92.44
1384.00,92.04
1383.00,91.55
1382.00,90.97
1381.00,90.31
1380.00,89.63
1379.00,88.99
1378.00,88.48
1377.00,88.18
1376.00,88.06
1375.00,88.08
1374.00,88.18
1373.00,88.32
1372.00,88.45
1371.00,88.57
1370.00,88.69
1369.00,88.81
1368.00,88.94
1367.00,89.04
1366.00,89.13
1365.00,89.20
1364.00,89.27
1363.00,89.34
1362.00,89.42
1361.00,89.52
1360.00,89.63
1359.00,89.74
1358.00,89.85
1357.00,89.94
1356.00,90.02
1355.00,90.11
1354.00,90.20
1353.00,90.31
1352.00,90.40
1351.00,90.48
1350.00,90.52
1349.00,90.51
1348.00,90.45
1347.00,90.33
1346.00,90.16
1345.00,89.95
1344.00,89.71
1343.00,89.47
1342.00,89.24
1341.00,89.03
1340.00,88.85
1339.00,88.70
1338.00,88.58
1337.00,88.49
1336.00,88.45
1335.00,88.45
1334.00,88.51
1333.00,88.64
1332.00,88.83
1331.00,89.04
1330.00,89.24
1329.00,89.40
1328.00,89.49
1327.00,89.51
1326.00,89.45
1325.00,89.33
1324.00,89.16
1323.00,88.94
1322.00,88.69
1321.00,88.40
1320.00,88.08
1319.00,87.76
1318.00,87.48
1317.00,87.26
1316.00,87.13
1315.00,87.08
1314.00,87.13
1313.00,87.27
1312.00,87.50
1311.00,87.80
1310.00,88.13
1309.00,88.50
1308.00,88.87
1307.00,89.24
1306.00,89.61
1305.00,89.95
1304.00,90.28
1303.00,90.59
1302.00,90.88
1301.00,91.14
1300.00,91.39
1299.00,91.61
1298.00,91.80
1297.00,91.95
1296.00,92.06
1295.00,92.12
1294.00,92.15
1293.00,92.16
1292.00,92.17
1291.00,92.18
1290.00,92.19
1289.00,92.19
1288.00,92.16
1287.00,92.11
1286.00,92.04
1285.00,91.96
1284.00,91.87
1283.00,91.77
1282.00,91.68
1281.00,91.61
1280.00,91.58
1279.00,91.59
1278.00,91.63
1277.00,91.68
1276.00,91.73
1275.00,91.79
1274.00,91.88
1273.00,91.98
1272.00,92.10
1271.00,92.22
1270.00,92.34
1269.00,92.43
1268.00,92.52
1267.00,92.59
1266.00,92.65
1265.00,92.71
1264.00,92.75
1263.00,92.79
1262.00,92.81
1261.00,92.85
1260.00,92.88
1259.00,92.91
1258.00,92.93
1257.00,92.94
1256.00,92.94
1255.00,92.93
1254.00,92.90
1253.00,92.85
1252.00,92.80
1251.00,92.75
1250.00,92.70
1249.00,92.66
1248.00,92.64
1247.00,92.65
1246.00,92.70
1245.00,92.77
1244.00,92.86
1243.00,92.94
1242.00,93.02
1241.00,93.09
1240.00,93.13
1239.00,93.14
1238.00,93.14
1237.00,93.14
1236.00,93.15
1235.00,93.19
1234.00,93.26
1233.00,93.36
1232.00,93.48
1231.00,93.60
1230.00,93.72
1229.00,93.83
1228.00,93.94
1227.00,94.06
1226.00,94.18
1225.00,94.30
1224.00,94.40
1223.00,94.49
1222.00,94.56
1221.00,94.62
1220.00,94.67
1219.00,94.69
1218.00,94.69
1217.00,94.68
1216.00,94.64
1215.00,94.57
1214.00,94.44
1213.00,94.26
1212.00,94.02
1211.00,93.71
1210.00,93.36
1209.00,93.01
1208.00,92.72
1207.00,92.52
1206.00,92.41
1205.00,92.39
1204.00,92.41
1203.00,92.47
1202.00,92.55
1201.00,92.65
1200.00,92.77
1199.00,92.91
1198.00,93.06
1197.00,93.21
1196.00,93.37
1195.00,93.52
1194.00,93.67
1193.00,93.80
1192.00,93.92
1191.00,94.02
1190.00,94.09
1189.00,94.14
1188.00,94.16
1187.00,94.14
1186.00,94.10
1185.00,94.02
1184.00,93.90
1183.00,93.75
1182.00,93.58
1181.00,93.40
1180.00,93.21
1179.00,93.01
1178.00,92.79
1177.00,92.54
1176.00,92.24
1175.00,91.91
1174.00,91.53
1173.00,91.11
1172.00,90.64
1171.00,90.13
1170.00,89.56
1169.00,88.95
1168.00,88.31
1167.00,87.67
1166.00,87.05
1165.00,86.47
1164.00,85.96
1163.00,85.54
1162.00,85.24
1161.00,85.07
1160.00,85.02
1159.00,85.06
1158.00,85.16
1157.00,85.29
1156.00,85.44
1155.00,85.62
1154.00,85.82
1153.00,86.01
1152.00,86.19
1151.00,86.37
1150.00,86.53
1149.00,86.67
1148.00,86.81
1147.00,86.97
1146.00,87.16
1145.00,87.40
1144.00,87.65
1143.00,87.91
1142.00,88.13
1141.00,88.31
1140.00,88.43
1139.00,88.47
1138.00,88.42
1137.00,88.27
1136.00,88.04
1135.00,87.76
1134.00,87.43
1133.00,87.09
1132.00,86.74
1131.00,86.37
1130.00,85.99
1129.00,85.58
1128.00,85.11
1127.00,84.61
1126.00,84.09
1125.00,83.57
1124.00,83.09
1123.00,82.66
1122.00,82.27
1121.00,81.88
1120.00,81.44
1119.00,80.94
1118.00,80.33
1117.00,79.61
1116.00,78.80
1115.00,77.97
1114.00,77.21
1113.00,76.58
1112.00,76.10
1111.00,75.81
1110.00,75.66
1109.00,75.61
1108.00,75.61
1107.00,75.62
1106.00,75.63
1105.00,75.62
1104.00,75.62
1103.00,75.66
1102.00,75.78
1101.00,75.96
1100.00,76.21
1099.00,76.54
1098.00,76.91
1097.00,77.30
1096.00,77.66
1095.00,77.99
1094.00,78.29
1093.00,78.54
1092.00,78.76
1091.00,78.93
1090.00,79.08
1089.00,79.18
1088.00,79.25
1087.00,79.29
1086.00,79.32
1085.00,79.32
1084.00,79.28
1083.00,79.20
1082.00,79.06
1081.00,78.85
1080.00,78.58
1079.00,78.25
1078.00,77.90
1077.00,77.54
1076.00,77.20
1075.00,76.90
1074.00,76.61
1073.00,76.31
1072.00,75.97
1071.00,75.59
1070.00,75.14
1069.00,74.60
1068.00,73.98
1067.00,73.28
1066.00,72.54
1065.00,71.73
1064.00,70.87
1063.00,69.99
1062.00,69.12
1061.00,68.29
1060.00,67.54
1059.00,66.93
1058.00,66.45
1057.00,66.08
1056.00,65.79
1055.00,65.59
1054.00,65.46
1053.00,65.41
1052.00,65.44
1051.00,65.58
1050.00,65.80
1049.00,66.08
1048.00,66.40
1047.00,66.76
1046.00,67.14
1045.00,67.49
1044.00,67.79
1043.00,68.02
1042.00,68.14
1041.00,68.11
1040.00,67.93
1039.00,67.64
1038.00,67.27
1037.00,66.84
1036.00,66.39
1035.00,65.96
1034.00,65.59
1033.00,65.27
1032.00,65.02
1031.00,64.86
1030.00,64.79
1029.00,64.79
1028.00,64.85
1027.00,64.98
1026.00,65.16
1025.00,65.36
1024.00,65.56
1023.00,65.80
1022.00,66.06
1021.00,66.34
1020.00,66.62
1019.00,66.89
1018.00,67.16
1017.00,67.41
1016.00,67.64
1015.00,67.87
1014.00,68.08
1013.00,68.27
1012.00,68.41
1011.00,68.51
1010.00,68.55
1009.00,68.52
1008.00,68.43
1007.00,68.31
1006.00,68.18
1005.00,68.03
1004.00,67.87
1003.00,67.70
1002.00,67.55
1001.00,67.43
1000.00,67.38
999.00,67.42
998.00,67.57
997.00,67.81
996.00,68.12
995.00,68.49
994.00,68.88
993.00,69.24
992.00,69.54
991.00,69.78
990.00,69.93
989.00,69.97
988.00,69.88
987.00,69.69
986.00,69.45
985.00,69.20
984.00,69.03
983.00,69.02
982.00,69.22
981.00,69.62
980.00,70.19
979.00,70.89
978.00,71.68
977.00,72.48
976.00,73.25
975.00,73.97
974.00,74.65
973.00,75.29
972.00,75.88
971.00,76.42
970.00,76.93
969.00,77.41
968.00,77.85
967.00,78.28
966.00,78.69
965.00,79.08
964.00,79.46
963.00,79.84
962.00,80.24
961.00,80.63
960.00,81.00
959.00,81.36
958.00,81.71
957.00,82.06
956.00,82.41
955.00,82.75
954.00,83.09
953.00,83.40
952.00,83.71
951.00,84.00
950.00,84.29
949.00,84.55
948.00,84.80
947.00,85.04
946.00,85.29
945.00,85.53
944.00,85.76
943.00,85.97
942.00,86.15
941.00,86.31
940.00,86.45
939.00,86.59
938.00,86.74
937.00,86.89
936.00,87.02
935.00,87.14
934.00,87.24
933.00,87.33
932.00,87.43
931.00,87.52
930.00,87.63
929.00,87.73
928.00,87.83
927.00,87.93
926.00,88.05
925.00,88.17
924.00,88.28
923.00,88.38
922.00,88.46
921.00,88.53
920.00,88.59
919.00,88.65
918.00,88.66
917.00,88.63
916.00,88.57
915.00,88.50
914.00,88.42
913.00,88.34
912.00,88.26
911.00,88.18
910.00,88.10
909.00,88.01
908.00,87.91
907.00,87.83
906.00,87.77
905.00,87.73
904.00,87.69
903.00,87.64
902.00,87.59
901.00,87.53
900.00,87.48
899.00,87.43
898.00,87.38
897.00,87.33
896.00,87.30
895.00,87.31
894.00,87.35
893.00,87.42
892.00,87.51
891.00,87.61
890.00,87.73
889.00,87.89
888.00,88.10
887.00,88.37
886.00,88.67
885.00,88.98
884.00,89.25
883.00,89.48
882.00,89.67
881.00,89.84
880.00,90.00
879.00,90.16
878.00,90.31
877.00,90.47
876.00,90.61
875.00,90.73
874.00,90.86
873.00,90.99
872.00,91.11
871.00,91.23
870.00,91.34
869.00,91.43
868.00,91.51
867.00,91.56
866.00,91.60
865.00,91.64
864.00,91.70
863.00,91.76
862.00,91.82
861.00,91.86
860.00,91.89
859.00,91.91
858.00,91.94
857.00,91.95
856.00,91.94
855.00,91.94
854.00,91.94
853.00,91.95
852.00,91.98
851.00,92.00
850.00,92.01
849.00,92.02
848.00,92.03
847.00,92.04
846.00,92.04
845.00,92.03
844.00,92.02
843.00,92.02
842.00,92.03
841.00,92.02
840.00,92.02
839.00,92.02
838.00,92.02
837.00,92.00
836.00,91.99
835.00,91.98
834.00,91.97
833.00,91.95
832.00,91.91
831.00,91.86
830.00,91.81
829.00,91.78
828.00,91.76
827.00,91.76
826.00,91.75
825.00,91.74
824.00,91.71
823.00,91.67
822.00,91.63
821.00,91.59
820.00,91.57
819.00,91.55
818.00,91.53
817.00,91.49
816.00,91.46
815.00,91.45
814.00,91.45
813.00,91.43
812.00,91.39
811.00,91.35
810.00,91.31
809.00,91.27
808.00,91.24
807.00,91.22
806.00,91.20
805.00,91.16
804.00,91.12
803.00,91.09
802.00,91.06
801.00,91.02
800.00,90.99
799.00,90.97
798.00,90.96
797.00,90.95
796.00,90.92
795.00,90.88
794.00,90.83
793.00,90.77
792.00,90.70
791.00,90.63
790.00,90.56
789.00,90.49
788.00,90.44
787.00,90.40
786.00,90.34
785.00,90.26
784.00,90.16
783.00,90.07
782.00,90.00
781.00,89.94
780.00,89.89
779.00,89.85
778.00,89.80
777.00,89.71
776.00,89.62
775.00,89.55
774.00,89.49
773.00,89.43
772.00,89.36
771.00,89.28
770.00,89.20
769.00,89.13
768.00,89.06
767.00,89.01
766.00,88.95
765.00,88.88
764.00,88.80
763.00,88.72
762.00,88.63
761.00,88.54
760.00,88.42
759.00,88.31
758.00,88.18
757.00,88.06
756.00,87.95
755.00,87.86
754.00,87.75
753.00,87.62
752.00,87.49
751.00,87.38
750.00,87.30
749.00,87.19
748.00,87.08
747.00,86.96
746.00,86.85
745.00,86.72
744.00,86.56
743.00,86.40
742.00,86.23
741.00,86.01
740.00,85.77
739.00,85.52
738.00,85.21
737.00,84.79
736.00,84.17
735.00,83.16
734.00,81.46
733.00,78.93
732.00,76.04
731.00,73.73
730.00,72.84
729.00,73.44
728.00,74.82
727.00,76.14
726.00,76.89
725.00,76.95
724.00,76.31
723.00,74.87
722.00,72.54
721.00,69.70
720.00,67.39
719.00,66.73
718.00,67.97
717.00,70.29
716.00,72.62
715.00,74.28
714.00,75.26
713.00,75.79
712.00,76.08
711.00,76.24
710.00,76.34
709.00,76.40
708.00,76.42
707.00,76.42
706.00,76.40
705.00,76.38
704.00,76.35
703.00,76.34
702.00,76.36
701.00,76.39
700.00,76.41
699.00,76.42
698.00,76.47
697.00,76.55
696.00,76.64
695.00,76.71
694.00,76.76
693.00,76.79
692.00,76.79
691.00,76.80
690.00,76.83
689.00,76.86
688.00,76.84
687.00,76.81
686.00,76.79
685.00,76.75
684.00,76.66
683.00,76.53
682.00,76.38
681.00,76.21
680.00,75.98
679.00,75.69
678.00,75.35
677.00,74.98
676.00,74.57
675.00,74.16
674.00,73.77
673.00,73.39
672.00,73.04
671.00,72.71
670.00,72.39
669.00,71.96
668.00,71.34
667.00,70.77
666.00,70.45
665.00,70.25
664.00,70.06
663.00,69.91
662.00,69.85
661.00,69.88
660.00,69.99
659.00,70.16
658.00,70.40
657.00,70.67
656.00,70.94
655.00,71.23
654.00,71.53
653.00,71.81
652.00,72.01
651.00,72.16
650.00,72.24
649.00,72.23
648.00,72.14
647.00,72.05
646.00,72.00
645.00,71.91
644.00,71.73
643.00,71.49
642.00,71.29
641.00,71.12
640.00,70.98
639.00,70.87
638.00,70.81
637.00,70.73
636.00,70.57
635.00,70.39
634.00,70.23
633.00,70.04
632.00,69.80
631.00,69.54
630.00,69.35
629.00,69.21
628.00,69.05
627.00,68.92
626.00,68.82
625.00,68.71
624.00,68.49
623.00,68.23
622.00,67.96
621.00,67.66
620.00,67.26
619.00,66.86
618.00,66.53
617.00,66.24
616.00,66.01
615.00,65.92
614.00,65.91
613.00,65.77
612.00,65.45
611.00,65.16
610.00,65.04
609.00,64.99
608.00,64.92
607.00,64.94
606.00,65.10
605.00,65.23
604.00,65.20
603.00,65.05
602.00,64.85
601.00,64.60
600.00,64.34
599.00,64.27
598.00,64.45
597.00,64.64
596.00,64.66
595.00,64.55
594.00,64.41
593.00,64.22
592.00,64.00
591.00,63.90
590.00,63.97
589.00,63.99
588.00,63.85
587.00,63.77
586.00,63.88
585.00,64.04
584.00,64.05
583.00,63.98
582.00,63.91
581.00,63.65
580.00,63.10
579.00,62.54
578.00,62.27
577.00,62.22
576.00,62.29
575.00,62.66
574.00,63.22
573.00,63.44
572.00,63.08
571.00,62.53
570.00,62.19
569.00,61.96
568.00,61.71
567.00,61.65
566.00,61.84
565.00,61.79
564.00,61.15
563.00,60.15
562.00,59.18
561.00,58.29
560.00,57.56
559.00,57.31
558.00,57.58
557.00,57.86
556.00,57.90
555.00,57.98
554.00,58.27
553.00,58.42
552.00,58.24
551.00,58.11
550.00,58.20
