Created as New Dataset,4.3 Shoemaker's thread
cm-1,%T
4000.00,100.39
3999.00,100.39
3998.00,100.39
3997.00,100.41
3996.00,100.42
3995.00,100.42
3994.00,100.42
3993.00,100.41
3992.00,100.41
3991.00,100.40
3990.00,100.39
3989.00,100.37
3988.00,100.35
3987.00,100.33
3986.00,100.32
3985.00,100.32
3984.00,100.34
3983.00,100.37
3982.00,100.39
3981.00,100.40
3980.00,100.40
3979.00,100.40
3978.00,100.39
3977.00,100.39
3976.00,100.41
3975.00,100.42
3974.00,100.42
3973.00,100.41
3972.00,100.40
3971.00,100.38
3970.00,100.37
3969.00,100.37
3968.00,100.38
3967.00,100.38
3966.00,100.39
3965.00,100.39
3964.00,100.40
3963.00,100.40
3962.00,100.40
3961.00,100.39
3960.00,100.39
3959.00,100.39
3958.00,100.39
3957.00,100.41
3956.00,100.43
3955.00,100.44
3954.00,100.44
3953.00,100.42
3952.00,100.40
3951.00,100.37
3950.00,100.36
3949.00,100.36
3948.00,100.36
3947.00,100.36
3946.00,100.36
3945.00,100.35
3944.00,100.35
3943.00,100.35
3942.00,100.35
3941.00,100.35
3940.00,100.35
3939.00,100.35
3938.00,100.36
3937.00,100.36
3936.00,100.37
3935.00,100.37
3934.00,100.38
3933.00,100.38
3932.00,100.37
3931.00,100.36
3930.00,100.36
3929.00,100.37
3928.00,100.38
3927.00,100.39
3926.00,100.38
3925.00,100.36
3924.00,100.33
3923.00,100.31
3922.00,100.29
3921.00,100.28
3920.00,100.27
3919.00,100.27
3918.00,100.28
3917.00,100.31
3916.00,100.35
3915.00,100.37
3914.00,100.38
3913.00,100.37
3912.00,100.34
3911.00,100.32
3910.00,100.31
3909.00,100.30
3908.00,100.30
3907.00,100.30
3906.00,100.31
3905.00,100.31
3904.00,100.32
3903.00,100.33
3902.00,100.34
3901.00,100.34
3900.00,100.33
3899.00,100.33
3898.00,100.33
3897.00,100.34
3896.00,100.34
3895.00,100.35
3894.00,100.36
3893.00,100.37
3892.00,100.36
3891.00,100.36
3890.00,100.35
3889.00,100.33
3888.00,100.31
3887.00,100.29
3886.00,100.29
3885.00,100.31
3884.00,100.33
3883.00,100.34
3882.00,100.34
3881.00,100.32
3880.00,100.31
3879.00,100.32
3878.00,100.32
3877.00,100.33
3876.00,100.32
3875.00,100.32
3874.00,100.33
3873.00,100.34
3872.00,100.35
3871.00,100.35
3870.00,100.34
3869.00,100.34
3868.00,100.34
3867.00,100.33
3866.00,100.32
3865.00,100.32
3864.00,100.31
3863.00,100.31
3862.00,100.31
3861.00,100.32
3860.00,100.33
3859.00,100.34
3858.00,100.35
3857.00,100.35
3856.00,100.35
3855.00,100.35
3854.00,100.35
3853.00,100.35
3852.00,100.34
3851.00,100.34
3850.00,100.34
3849.00,100.34
3848.00,100.35
3847.00,100.37
3846.00,100.39
3845.00,100.40
3844.00,100.39
3843.00,100.38
3842.00,100.37
3841.00,100.37
3840.00,100.37
3839.00,100.37
3838.00,100.36
3837.00,100.35
3836.00,100.34
3835.00,100.33
3834.00,100.32
3833.00,100.31
3832.00,100.31
3831.00,100.30
3830.00,100.29
3829.00,100.27
3828.00,100.27
3827.00,100.27
3826.00,100.29
3825.00,100.31
3824.00,100.32
3823.00,100.33
3822.00,100.32
3821.00,100.31
3820.00,100.29
3819.00,100.27
3818.00,100.26
3817.00,100.28
3816.00,100.31
3815.00,100.34
3814.00,100.36
3813.00,100.35
3812.00,100.33
3811.00,100.30
3810.00,100.28
3809.00,100.27
3808.00,100.27
3807.00,100.29
3806.00,100.29
3805.00,100.28
3804.00,100.26
3803.00,100.23
3802.00,100.22
3801.00,100.22
3800.00,100.23
3799.00,100.26
3798.00,100.28
3797.00,100.29
3796.00,100.29
3795.00,100.28
3794.00,100.27
3793.00,100.28
3792.00,100.29
3791.00,100.31
3790.00,100.32
3789.00,100.32
3788.00,100.31
3787.00,100.30
3786.00,100.30
3785.00,100.31
3784.00,100.31
3783.00,100.29
3782.00,100.27
3781.00,100.24
3780.00,100.23
3779.00,100.22
3778.00,100.23
3777.00,100.24
3776.00,100.24
3775.00,100.24
3774.00,100.24
3773.00,100.24
3772.00,100.25
3771.00,100.26
3770.00,100.27
3769.00,100.27
3768.00,100.27
3767.00,100.27
3766.00,100.27
3765.00,100.28
3764.00,100.29
3763.00,100.29
3762.00,100.29
3761.00,100.28
3760.00,100.27
3759.00,100.25
3758.00,100.24
3757.00,100.23
3756.00,100.24
3755.00,100.25
3754.00,100.26
3753.00,100.27
3752.00,100.27
3751.00,100.25
3750.00,100.24
3749.00,100.23
3748.00,100.22
3747.00,100.21
3746.00,100.19
3745.00,100.20
3744.00,100.23
3743.00,100.26
3742.00,100.27
3741.00,100.26
3740.00,100.23
3739.00,100.20
3738.00,100.18
3737.00,100.18
3736.00,100.20
3735.00,100.21
3734.00,100.20
3733.00,100.20
3732.00,100.20
3731.00,100.22
3730.00,100.24
3729.00,100.25
3728.00,100.24
3727.00,100.24
3726.00,100.24
3725.00,100.25
3724.00,100.26
3723.00,100.25
3722.00,100.24
3721.00,100.21
3720.00,100.18
3719.00,100.16
3718.00,100.14
3717.00,100.14
3716.00,100.14
3715.00,100.14
3714.00,100.13
3713.00,100.12
3712.00,100.11
3711.00,100.12
3710.00,100.13
3709.00,100.14
3708.00,100.13
3707.00,100.11
3706.00,100.07
3705.00,100.04
3704.00,100.03
3703.00,100.04
3702.00,100.07
3701.00,100.10
3700.00,100.13
3699.00,100.15
3698.00,100.16
3697.00,100.17
3696.00,100.17
3695.00,100.15
3694.00,100.12
3693.00,100.09
3692.00,100.06
3691.00,100.05
3690.00,100.05
3689.00,100.06
3688.00,100.08
3687.00,100.10
3686.00,100.12
3685.00,100.12
3684.00,100.13
3683.00,100.14
3682.00,100.14
3681.00,100.13
3680.00,100.10
3679.00,100.08
3678.00,100.07
3677.00,100.07
3676.00,100.07
3675.00,100.05
3674.00,100.02
3673.00,100.00
3672.00,99.98
3671.00,99.98
3670.00,99.97
3669.00,99.95
3668.00,99.94
3667.00,99.94
3666.00,99.95
3665.00,99.95
3664.00,99.95
3663.00,99.94
3662.00,99.93
3661.00,99.93
3660.00,99.94
3659.00,99.94
3658.00,99.93
3657.00,99.92
3656.00,99.92
3655.00,99.92
3654.00,99.91
3653.00,99.90
3652.00,99.89
3651.00,99.89
3650.00,99.89
3649.00,99.88
3648.00,99.85
3647.00,99.84
3646.00,99.85
3645.00,99.85
3644.00,99.85
3643.00,99.83
3642.00,99.82
3641.00,99.80
3640.00,99.78
3639.00,99.77
3638.00,99.77
3637.00,99.77
3636.00,99.79
3635.00,99.81
3634.00,99.81
3633.00,99.80
3632.00,99.76
3631.00,99.70
3630.00,99.66
3629.00,99.63
3628.00,99.63
3627.00,99.64
3626.00,99.65
3625.00,99.66
3624.00,99.67
3623.00,99.66
3622.00,99.64
3621.00,99.62
3620.00,99.60
3619.00,99.60
3618.00,99.59
3617.00,99.58
3616.00,99.55
3615.00,99.52
3614.00,99.50
3613.00,99.48
3612.00,99.46
3611.00,99.45
3610.00,99.43
3609.00,99.41
3608.00,99.38
3607.00,99.35
3606.00,99.32
3605.00,99.28
3604.00,99.26
3603.00,99.26
3602.00,99.29
3601.00,99.33
3600.00,99.36
3599.00,99.37
3598.00,99.35
3597.00,99.30
3596.00,99.24
3595.00,99.19
3594.00,99.16
3593.00,99.16
3592.00,99.16
3591.00,99.16
3590.00,99.15
3589.00,99.14
3588.00,99.13
3587.00,99.13
3586.00,99.12
3585.00,99.10
3584.00,99.09
3583.00,99.08
3582.00,99.08
3581.00,99.06
3580.00,99.04
3579.00,98.99
3578.00,98.95
3577.00,98.92
3576.00,98.91
3575.00,98.92
3574.00,98.91
3573.00,98.90
3572.00,98.86
3571.00,98.83
3570.00,98.82
3569.00,98.82
3568.00,98.82
3567.00,98.81
3566.00,98.77
3565.00,98.73
3564.00,98.71
3563.00,98.71
3562.00,98.72
3561.00,98.72
3560.00,98.71
3559.00,98.67
3558.00,98.62
3557.00,98.56
3556.00,98.51
3555.00,98.48
3554.00,98.45
3553.00,98.41
3552.00,98.39
3551.00,98.37
3550.00,98.37
3549.00,98.38
3548.00,98.40
3547.00,98.41
3546.00,98.40
3545.00,98.38
3544.00,98.36
3543.00,98.34
3542.00,98.31
3541.00,98.27
3540.00,98.23
3539.00,98.19
3538.00,98.16
3537.00,98.15
3536.00,98.15
3535.00,98.13
3534.00,98.11
3533.00,98.10
3532.00,98.09
3531.00,98.10
3530.00,98.12
3529.00,98.11
3528.00,98.08
3527.00,98.02
3526.00,97.95
3525.00,97.89
3524.00,97.86
3523.00,97.85
3522.00,97.83
3521.00,97.80
3520.00,97.76
3519.00,97.72
3518.00,97.69
3517.00,97.67
3516.00,97.65
3515.00,97.62
3514.00,97.61
3513.00,97.60
3512.00,97.60
3511.00,97.59
3510.00,97.58
3509.00,97.56
3508.00,97.51
3507.00,97.46
3506.00,97.42
3505.00,97.38
3504.00,97.34
3503.00,97.30
3502.00,97.28
3501.00,97.26
3500.00,97.26
3499.00,97.25
3498.00,97.24
3497.00,97.21
3496.00,97.16
3495.00,97.10
3494.00,97.04
3493.00,96.99
3492.00,96.97
3491.00,96.95
3490.00,96.94
3489.00,96.91
3488.00,96.87
3487.00,96.82
3486.00,96.78
3485.00,96.74
3484.00,96.72
3483.00,96.71
3482.00,96.70
3481.00,96.70
3480.00,96.69
3479.00,96.67
3478.00,96.64
3477.00,96.59
3476.00,96.54
3475.00,96.49
3474.00,96.43
3473.00,96.38
3472.00,96.32
3471.00,96.26
3470.00,96.20
3469.00,96.16
3468.00,96.14
3467.00,96.14
3466.00,96.12
3465.00,96.08
3464.00,96.01
3463.00,95.96
3462.00,95.92
3461.00,95.91
3460.00,95.90
3459.00,95.87
3458.00,95.84
3457.00,95.80
3456.00,95.77
3455.00,95.74
3454.00,95.70
3453.00,95.65
3452.00,95.58
3451.00,95.54
3450.00,95.50
3449.00,95.48
3448.00,95.46
3447.00,95.44
3446.00,95.43
3445.00,95.40
3444.00,95.36
3443.00,95.31
3442.00,95.26
3441.00,95.22
3440.00,95.18
3439.00,95.13
3438.00,95.08
3437.00,95.04
3436.00,95.01
3435.00,94.99
3434.00,94.95
3433.00,94.91
3432.00,94.87
3431.00,94.83
3430.00,94.80
3429.00,94.76
3428.00,94.72
3427.00,94.69
3426.00,94.65
3425.00,94.61
3424.00,94.56
3423.00,94.51
3422.00,94.45
3421.00,94.39
3420.00,94.34
3419.00,94.28
3418.00,94.21
3417.00,94.13
3416.00,94.06
3415.00,94.00
3414.00,93.96
3413.00,93.94
3412.00,93.93
3411.00,93.90
3410.00,93.87
3409.00,93.82
3408.00,93.78
3407.00,93.75
3406.00,93.74
3405.00,93.74
3404.00,93.74
3403.00,93.72
3402.00,93.69
3401.00,93.65
3400.00,93.62
3399.00,93.58
3398.00,93.55
3397.00,93.52
3396.00,93.50
3395.00,93.48
3394.00,93.46
3393.00,93.45
3392.00,93.43
3391.00,93.40
3390.00,93.38
3389.00,93.37
3388.00,93.36
3387.00,93.36
3386.00,93.34
3385.00,93.31
3384.00,93.27
3383.00,93.23
3382.00,93.20
3381.00,93.16
3380.00,93.12
3379.00,93.09
3378.00,93.05
3377.00,93.02
3376.00,92.98
3375.00,92.93
3374.00,92.87
3373.00,92.82
3372.00,92.78
3371.00,92.76
3370.00,92.74
3369.00,92.71
3368.00,92.67
3367.00,92.62
3366.00,92.58
3365.00,92.56
3364.00,92.53
3363.00,92.50
3362.00,92.46
3361.00,92.39
3360.00,92.32
3359.00,92.26
3358.00,92.21
3357.00,92.15
3356.00,92.08
3355.00,92.02
3354.00,91.94
3353.00,91.87
3352.00,91.80
3351.00,91.75
3350.00,91.70
3349.00,91.65
3348.00,91.60
3347.00,91.56
3346.00,91.53
3345.00,91.52
3344.00,91.50
3343.00,91.46
3342.00,91.40
3341.00,91.35
3340.00,91.30
3339.00,91.27
3338.00,91.27
3337.00,91.29
3336.00,91.31
3335.00,91.32
3334.00,91.32
3333.00,91.32
3332.00,91.34
3331.00,91.39
3330.00,91.44
3329.00,91.49
3328.00,91.53
3327.00,91.56
3326.00,91.59
3325.00,91.62
3324.00,91.64
3323.00,91.67
3322.00,91.70
3321.00,91.75
3320.00,91.81
3319.00,91.86
3318.00,91.90
3317.00,91.93
3316.00,91.95
3315.00,91.96
3314.00,91.97
3313.00,91.98
3312.00,91.98
3311.00,91.96
3310.00,91.93
3309.00,91.89
3308.00,91.84
3307.00,91.80
3306.00,91.78
3305.00,91.78
3304.00,91.80
3303.00,91.80
3302.00,91.78
3301.00,91.77
3300.00,91.75
3299.00,91.75
3298.00,91.75
3297.00,91.74
3296.00,91.72
3295.00,91.71
3294.00,91.70
3293.00,91.71
3292.00,91.74
3291.00,91.77
3290.00,91.79
3289.00,91.80
3288.00,91.79
3287.00,91.78
3286.00,91.77
3285.00,91.76
3284.00,91.76
3283.00,91.77
3282.00,91.79
3281.00,91.83
3280.00,91.86
3279.00,91.89
3278.00,91.91
3277.00,91.94
3276.00,91.97
3275.00,92.00
3274.00,92.02
3273.00,92.03
3272.00,92.04
3271.00,92.06
3270.00,92.09
3269.00,92.12
3268.00,92.17
3267.00,92.22
3266.00,92.28
3265.00,92.35
3264.00,92.40
3263.00,92.45
3262.00,92.49
3261.00,92.53
3260.00,92.58
3259.00,92.64
3258.00,92.71
3257.00,92.78
3256.00,92.86
3255.00,92.92
3254.00,92.99
3253.00,93.05
3252.00,93.12
3251.00,93.18
3250.00,93.23
3249.00,93.28
3248.00,93.32
3247.00,93.37
3246.00,93.42
3245.00,93.48
3244.00,93.55
3243.00,93.63
3242.00,93.70
3241.00,93.76
3240.00,93.80
3239.00,93.84
3238.00,93.87
3237.00,93.90
3236.00,93.93
3235.00,93.95
3234.00,93.98
3233.00,94.01
3232.00,94.06
3231.00,94.12
3230.00,94.18
3229.00,94.25
3228.00,94.30
3227.00,94.36
3226.00,94.42
3225.00,94.46
3224.00,94.49
3223.00,94.51
3222.00,94.55
3221.00,94.59
3220.00,94.63
3219.00,94.67
3218.00,94.70
3217.00,94.73
3216.00,94.76
3215.00,94.79
3214.00,94.83
3213.00,94.88
3212.00,94.94
3211.00,95.00
3210.00,95.05
3209.00,95.08
3208.00,95.10
3207.00,95.12
3206.00,95.14
3205.00,95.16
3204.00,95.20
3203.00,95.24
3202.00,95.28
3201.00,95.32
3200.00,95.36
3199.00,95.40
3198.00,95.44
3197.00,95.47
3196.00,95.50
3195.00,95.53
3194.00,95.57
3193.00,95.60
3192.00,95.63
3191.00,95.65
3190.00,95.66
3189.00,95.67
3188.00,95.69
3187.00,95.72
3186.00,95.77
3185.00,95.82
3184.00,95.86
3183.00,95.90
3182.00,95.93
3181.00,95.96
3180.00,96.00
3179.00,96.03
3178.00,96.06
3177.00,96.09
3176.00,96.12
3175.00,96.15
3174.00,96.19
3173.00,96.22
3172.00,96.26
3171.00,96.28
3170.00,96.31
3169.00,96.33
3168.00,96.36
3167.00,96.39
3166.00,96.42
3165.00,96.44
3164.00,96.48
3163.00,96.52
3162.00,96.57
3161.00,96.61
3160.00,96.65
3159.00,96.69
3158.00,96.73
3157.00,96.75
3156.00,96.75
3155.00,96.76
3154.00,96.78
3153.00,96.82
3152.00,96.86
3151.00,96.90
3150.00,96.92
3149.00,96.94
3148.00,96.95
3147.00,96.98
3146.00,97.00
3145.00,97.03
3144.00,97.05
3143.00,97.06
3142.00,97.07
3141.00,97.08
3140.00,97.11
3139.00,97.15
3138.00,97.19
3137.00,97.24
3136.00,97.29
3135.00,97.32
3134.00,97.34
3133.00,97.35
3132.00,97.36
3131.00,97.37
3130.00,97.38
3129.00,97.39
3128.00,97.42
3127.00,97.46
3126.00,97.49
3125.00,97.51
3124.00,97.51
3123.00,97.51
3122.00,97.52
3121.00,97.54
3120.00,97.57
3119.00,97.59
3118.00,97.61
3117.00,97.63
3116.00,97.65
3115.00,97.68
3114.00,97.71
3113.00,97.73
3112.00,97.74
3111.00,97.75
3110.00,97.78
3109.00,97.81
3108.00,97.83
3107.00,97.84
3106.00,97.84
3105.00,97.84
3104.00,97.84
3103.00,97.86
3102.00,97.88
3101.00,97.91
3100.00,97.93
3099.00,97.96
3098.00,97.98
3097.00,98.00
3096.00,98.01
3095.00,98.04
3094.00,98.07
3093.00,98.09
3092.00,98.08
3091.00,98.05
3090.00,98.02
3089.00,98.01
3088.00,98.00
3087.00,98.01
3086.00,98.02
3085.00,98.05
3084.00,98.07
3083.00,98.09
3082.00,98.11
3081.00,98.13
3080.00,98.16
3079.00,98.18
3078.00,98.19
3077.00,98.19
3076.00,98.18
3075.00,98.18
3074.00,98.17
3073.00,98.15
3072.00,98.15
3071.00,98.15
3070.00,98.18
3069.00,98.22
3068.00,98.27
3067.00,98.31
3066.00,98.34
3065.00,98.34
3064.00,98.32
3063.00,98.31
3062.00,98.30
3061.00,98.30
3060.00,98.31
3059.00,98.31
3058.00,98.31
3057.00,98.32
3056.00,98.34
3055.00,98.36
3054.00,98.37
3053.00,98.39
3052.00,98.39
3051.00,98.39
3050.00,98.39
3049.00,98.39
3048.00,98.39
3047.00,98.39
3046.00,98.39
3045.00,98.38
3044.00,98.39
3043.00,98.40
3042.00,98.42
3041.00,98.43
3040.00,98.42
3039.00,98.40
3038.00,98.39
3037.00,98.38
3036.00,98.38
3035.00,98.39
3034.00,98.41
3033.00,98.43
3032.00,98.45
3031.00,98.46
3030.00,98.45
3029.00,98.43
3028.00,98.41
3027.00,98.39
3026.00,98.37
3025.00,98.37
3024.00,98.38
3023.00,98.39
3022.00,98.39
3021.00,98.38
3020.00,98.37
3019.00,98.36
3018.00,98.35
3017.00,98.34
3016.00,98.33
3015.00,98.32
3014.00,98.32
3013.00,98.33
3012.00,98.33
3011.00,98.33
3010.00,98.33
3009.00,98.34
3008.00,98.34
3007.00,98.34
3006.00,98.32
3005.00,98.29
3004.00,98.25
3003.00,98.21
3002.00,98.17
3001.00,98.13
3000.00,98.10
2999.00,98.08
2998.00,98.05
2997.00,98.03
2996.00,98.00
2995.00,97.97
2994.00,97.93
2993.00,97.88
2992.00,97.83
2991.00,97.76
2990.00,97.68
2989.00,97.59
2988.00,97.49
2987.00,97.39
2986.00,97.29
2985.00,97.19
2984.00,97.08
2983.00,96.95
2982.00,96.79
2981.00,96.61
2980.00,96.42
2979.00,96.21
2978.00,95.99
2977.00,95.74
2976.00,95.46
2975.00,95.13
2974.00,94.76
2973.00,94.36
2972.00,93.94
2971.00,93.51
2970.00,93.05
2969.00,92.58
2968.00,92.10
2967.00,91.61
2966.00,91.11
2965.00,90.60
2964.00,90.08
2963.00,89.55
2962.00,89.03
2961.00,88.53
2960.00,88.05
2959.00,87.62
2958.00,87.25
2957.00,86.96
2956.00,86.75
2955.00,86.64
2954.00,86.61
2953.00,86.67
2952.00,86.79
2951.00,86.96
2950.00,87.13
2949.00,87.28
2948.00,87.37
2947.00,87.36
2946.00,87.24
2945.00,86.99
2944.00,86.62
2943.00,86.14
2942.00,85.56
2941.00,84.89
2940.00,84.14
2939.00,83.30
2938.00,82.36
2937.00,81.32
2936.00,80.19
2935.00,78.97
2934.00,77.65
2933.00,76.24
2932.00,74.75
2931.00,73.17
2930.00,71.52
2929.00,69.77
2928.00,67.91
2927.00,65.90
2926.00,63.71
2925.00,61.34
2924.00,58.80
2923.00,56.11
2922.00,53.32
2921.00,50.50
2920.00,47.79
2919.00,45.40
2918.00,43.61
2917.00,42.71
2916.00,42.92
2915.00,44.24
2914.00,46.47
2913.00,49.26
2912.00,52.24
2911.00,55.12
2910.00,57.76
2909.00,60.08
2908.00,62.07
2907.00,63.77
2906.00,65.22
2905.00,66.46
2904.00,67.53
2903.00,68.47
2902.00,69.30
2901.00,70.06
2900.00,70.78
2899.00,71.48
2898.00,72.16
2897.00,72.84
2896.00,73.50
2895.00,74.17
2894.00,74.84
2893.00,75.51
2892.00,76.19
2891.00,76.87
2890.00,77.55
2889.00,78.25
2888.00,78.97
2887.00,79.70
2886.00,80.42
2885.00,81.11
2884.00,81.77
2883.00,82.37
2882.00,82.93
2881.00,83.44
2880.00,83.87
2879.00,84.21
2878.00,84.45
2877.00,84.58
2876.00,84.61
2875.00,84.57
2874.00,84.47
2873.00,84.35
2872.00,84.26
2871.00,84.22
2870.00,84.25
2869.00,84.31
2868.00,84.35
2867.00,84.33
2866.00,84.19
2865.00,83.92
2864.00,83.50
2863.00,82.90
2862.00,82.11
2861.00,81.13
2860.00,79.95
2859.00,78.56
2858.00,76.92
2857.00,74.99
2856.00,72.67
2855.00,69.84
2854.00,66.41
2853.00,62.39
2852.00,58.06
2851.00,53.96
2850.00,50.89
2849.00,49.61
2848.00,50.50
2847.00,53.36
2846.00,57.56
2845.00,62.30
2844.00,66.93
2843.00,71.08
2842.00,74.63
2841.00,77.60
2840.00,80.09
2839.00,82.18
2838.00,83.96
2837.00,85.48
2836.00,86.79
2835.00,87.91
2834.00,88.87
2833.00,89.71
2832.00,90.44
2831.00,91.06
2830.00,91.61
2829.00,92.10
2828.00,92.54
2827.00,92.94
2826.00,93.30
2825.00,93.63
2824.00,93.92
2823.00,94.18
2822.00,94.43
2821.00,94.66
2820.00,94.88
2819.00,95.07
2818.00,95.23
2817.00,95.37
2816.00,95.51
2815.00,95.65
2814.00,95.81
2813.00,95.96
2812.00,96.10
2811.00,96.21
2810.00,96.32
2809.00,96.42
2808.00,96.51
2807.00,96.59
2806.00,96.66
2805.00,96.74
2804.00,96.81
2803.00,96.88
2802.00,96.96
2801.00,97.03
2800.00,97.09
2799.00,97.16
2798.00,97.22
2797.00,97.28
2796.00,97.34
2795.00,97.40
2794.00,97.46
2793.00,97.50
2792.00,97.55
2791.00,97.59
2790.00,97.64
2789.00,97.69
2788.00,97.74
2787.00,97.78
2786.00,97.81
2785.00,97.85
2784.00,97.89
2783.00,97.94
2782.00,97.99
2781.00,98.03
2780.00,98.06
2779.00,98.09
2778.00,98.12
2777.00,98.15
2776.00,98.18
2775.00,98.21
2774.00,98.25
2773.00,98.28
2772.00,98.31
2771.00,98.34
2770.00,98.36
2769.00,98.39
2768.00,98.41
2767.00,98.43
2766.00,98.44
2765.00,98.44
2764.00,98.43
2763.00,98.42
2762.00,98.43
2761.00,98.45
2760.00,98.47
2759.00,98.50
2758.00,98.51
2757.00,98.51
2756.00,98.52
2755.00,98.52
2754.00,98.54
2753.00,98.55
2752.00,98.56
2751.00,98.56
2750.00,98.55
2749.00,98.54
2748.00,98.53
2747.00,98.53
2746.00,98.54
2745.00,98.55
2744.00,98.56
2743.00,98.55
2742.00,98.54
2741.00,98.52
2740.00,98.51
2739.00,98.51
2738.00,98.51
2737.00,98.51
2736.00,98.52
2735.00,98.52
2734.00,98.51
2733.00,98.50
2732.00,98.50
2731.00,98.49
2730.00,98.50
2729.00,98.50
2728.00,98.52
2727.00,98.53
2726.00,98.56
2725.00,98.58
2724.00,98.60
2723.00,98.62
2722.00,98.64
2721.00,98.66
2720.00,98.67
2719.00,98.68
2718.00,98.68
2717.00,98.69
2716.00,98.70
2715.00,98.71
2714.00,98.72
2713.00,98.73
2712.00,98.74
2711.00,98.75
2710.00,98.77
2709.00,98.79
2708.00,98.81
2707.00,98.81
2706.00,98.81
2705.00,98.81
2704.00,98.81
2703.00,98.83
2702.00,98.86
2701.00,98.89
2700.00,98.91
2699.00,98.92
2698.00,98.93
2697.00,98.93
2696.00,98.94
2695.00,98.95
2694.00,98.96
2693.00,98.97
2692.00,98.98
2691.00,98.98
2690.00,98.98
2689.00,98.97
2688.00,98.96
2687.00,98.96
2686.00,98.96
2685.00,98.98
2684.00,98.99
2683.00,99.00
2682.00,98.99
2681.00,98.99
2680.00,98.98
2679.00,98.98
2678.00,98.98
2677.00,98.97
2676.00,98.96
2675.00,98.95
2674.00,98.95
2673.00,98.95
2672.00,98.95
2671.00,98.95
2670.00,98.93
2669.00,98.92
2668.00,98.90
2667.00,98.90
2666.00,98.90
2665.00,98.91
2664.00,98.92
2663.00,98.92
2662.00,98.92
2661.00,98.91
2660.00,98.90
2659.00,98.91
2658.00,98.92
2657.00,98.92
2656.00,98.91
2655.00,98.91
2654.00,98.89
2653.00,98.87
2652.00,98.85
2651.00,98.84
2650.00,98.82
2649.00,98.82
2648.00,98.83
2647.00,98.84
2646.00,98.84
2645.00,98.83
2644.00,98.81
2643.00,98.81
2642.00,98.81
2641.00,98.81
2640.00,98.81
2639.00,98.79
2638.00,98.78
2637.00,98.77
2636.00,98.77
2635.00,98.78
2634.00,98.80
2633.00,98.81
2632.00,98.83
2631.00,98.84
2630.00,98.84
2629.00,98.84
2628.00,98.85
2627.00,98.86
2626.00,98.87
2625.00,98.89
2624.00,98.92
2623.00,98.93
2622.00,98.94
2621.00,98.93
2620.00,98.92
2619.00,98.91
2618.00,98.90
2617.00,98.90
2616.00,98.91
2615.00,98.93
2614.00,98.95
2613.00,98.96
2612.00,98.96
2611.00,98.96
2610.00,98.96
2609.00,98.96
2608.00,98.96
2607.00,98.96
2606.00,98.97
2605.00,98.98
2604.00,99.01
2603.00,99.03
2602.00,99.04
2601.00,99.06
2600.00,99.07
2599.00,99.08
2598.00,99.09
2597.00,99.10
2596.00,99.10
2595.00,99.10
2594.00,99.10
2593.00,99.11
2592.00,99.11
2591.00,99.12
2590.00,99.12
2589.00,99.11
2588.00,99.09
2587.00,99.07
2586.00,99.06
2585.00,99.06
2584.00,99.07
2583.00,99.09
2582.00,99.09
2581.00,99.09
2580.00,99.09
2579.00,99.09
2578.00,99.08
2577.00,99.09
2576.00,99.10
2575.00,99.12
2574.00,99.14
2573.00,99.16
2572.00,99.17
2571.00,99.16
2570.00,99.15
2569.00,99.14
2568.00,99.14
2567.00,99.14
2566.00,99.13
2565.00,99.12
2564.00,99.13
2563.00,99.15
2562.00,99.17
2561.00,99.20
2560.00,99.23
2559.00,99.24
2558.00,99.25
2557.00,99.25
2556.00,99.22
2555.00,99.19
2554.00,99.17
2553.00,99.16
2552.00,99.18
2551.00,99.20
2550.00,99.22
2549.00,99.24
2548.00,99.24
2547.00,99.24
2546.00,99.24
2545.00,99.23
2544.00,99.23
2543.00,99.22
2542.00,99.22
2541.00,99.22
2540.00,99.22
2539.00,99.22
2538.00,99.22
2537.00,99.23
2536.00,99.22
2535.00,99.21
2534.00,99.20
2533.00,99.18
2532.00,99.18
2531.00,99.19
2530.00,99.21
2529.00,99.23
2528.00,99.23
2527.00,99.22
2526.00,99.20
2525.00,99.19
2524.00,99.19
2523.00,99.21
2522.00,99.22
2521.00,99.22
2520.00,99.19
2519.00,99.16
2518.00,99.16
2517.00,99.18
2516.00,99.22
2515.00,99.24
2514.00,99.26
2513.00,99.26
2512.00,99.26
2511.00,99.27
2510.00,99.28
2509.00,99.28
2508.00,99.29
2507.00,99.30
2506.00,99.31
2505.00,99.33
2504.00,99.35
2503.00,99.36
2502.00,99.37
2501.00,99.39
2500.00,99.40
2499.00,99.41
2498.00,99.40
2497.00,99.37
2496.00,99.34
2495.00,99.32
2494.00,99.32
2493.00,99.34
2492.00,99.35
2491.00,99.37
2490.00,99.39
2489.00,99.39
2488.00,99.39
2487.00,99.39
2486.00,99.39
2485.00,99.40
2484.00,99.40
2483.00,99.39
2482.00,99.39
2481.00,99.40
2480.00,99.41
2479.00,99.41
2478.00,99.40
2477.00,99.38
2476.00,99.37
2475.00,99.37
2474.00,99.39
2473.00,99.39
2472.00,99.40
2471.00,99.42
2470.00,99.44
2469.00,99.46
2468.00,99.47
2467.00,99.48
2466.00,99.47
2465.00,99.46
2464.00,99.47
2463.00,99.49
2462.00,99.51
2461.00,99.52
2460.00,99.51
2459.00,99.49
2458.00,99.47
2457.00,99.46
2456.00,99.45
2455.00,99.43
2454.00,99.43
2453.00,99.44
2452.00,99.46
2451.00,99.50
2450.00,99.53
2449.00,99.55
2448.00,99.55
2447.00,99.53
2446.00,99.51
2445.00,99.49
2444.00,99.48
2443.00,99.48
2442.00,99.49
2441.00,99.51
2440.00,99.53
2439.00,99.54
2438.00,99.54
2437.00,99.54
2436.00,99.53
2435.00,99.52
2434.00,99.51
2433.00,99.51
2432.00,99.51
2431.00,99.52
2430.00,99.53
2429.00,99.53
2428.00,99.54
2427.00,99.54
2426.00,99.53
2425.00,99.51
2424.00,99.50
2423.00,99.51
2422.00,99.53
2421.00,99.54
2420.00,99.56
2419.00,99.59
2418.00,99.61
2417.00,99.62
2416.00,99.62
2415.00,99.61
2414.00,99.61
2413.00,99.61
2412.00,99.62
2411.00,99.63
2410.00,99.63
2409.00,99.63
2408.00,99.63
2407.00,99.65
2406.00,99.66
2405.00,99.68
2404.00,99.70
2403.00,99.70
2402.00,99.70
2401.00,99.68
2400.00,99.66
2399.00,99.65
2398.00,99.65
2397.00,99.66
2396.00,99.67
2395.00,99.70
2394.00,99.73
2393.00,99.76
2392.00,99.77
2391.00,99.78
2390.00,99.79
2389.00,99.79
2388.00,99.78
2387.00,99.77
2386.00,99.76
2385.00,99.76
2384.00,99.78
2383.00,99.80
2382.00,99.84
2381.00,99.87
2380.00,99.91
2379.00,99.95
2378.00,99.98
2377.00,99.97
2376.00,99.94
2375.00,99.88
2374.00,99.83
2373.00,99.81
2372.00,99.83
2371.00,99.87
2370.00,99.91
2369.00,99.94
2368.00,99.98
2367.00,100.01
2366.00,100.03
2365.00,100.01
2364.00,99.97
2363.00,99.92
2362.00,99.85
2361.00,99.75
2360.00,99.68
2359.00,99.67
2358.00,99.71
2357.00,99.75
2356.00,99.75
2355.00,99.71
2354.00,99.68
2353.00,99.69
2352.00,99.72
2351.00,99.77
2350.00,99.81
2349.00,99.85
2348.00,99.88
2347.00,99.90
2346.00,99.92
2345.00,99.93
2344.00,99.94
2343.00,99.96
2342.00,99.97
2341.00,99.94
2340.00,99.88
2339.00,99.81
2338.00,99.76
2337.00,99.76
2336.00,99.77
2335.00,99.78
2334.00,99.78
2333.00,99.74
2332.00,99.69
2331.00,99.66
2330.00,99.68
2329.00,99.71
2328.00,99.73
2327.00,99.70
2326.00,99.65
2325.00,99.60
2324.00,99.58
2323.00,99.59
2322.00,99.60
2321.00,99.60
2320.00,99.60
2319.00,99.61
2318.00,99.63
2317.00,99.66
2316.00,99.67
2315.00,99.68
2314.00,99.66
2313.00,99.62
2312.00,99.59
2311.00,99.58
2310.00,99.59
2309.00,99.60
2308.00,99.61
2307.00,99.60
2306.00,99.60
2305.00,99.59
2304.00,99.59
2303.00,99.59
2302.00,99.58
2301.00,99.57
2300.00,99.54
2299.00,99.52
2298.00,99.52
2297.00,99.52
2296.00,99.53
2295.00,99.52
2294.00,99.52
2293.00,99.50
2292.00,99.48
2291.00,99.46
2290.00,99.43
2289.00,99.42
2288.00,99.41
2287.00,99.39
2286.00,99.35
2285.00,99.30
2284.00,99.27
2283.00,99.25
2282.00,99.25
2281.00,99.24
2280.00,99.23
2279.00,99.22
2278.00,99.21
2277.00,99.20
2276.00,99.19
2275.00,99.17
2274.00,99.16
2273.00,99.16
2272.00,99.17
2271.00,99.18
2270.00,99.17
2269.00,99.15
2268.00,99.13
2267.00,99.12
2266.00,99.12
2265.00,99.12
2264.00,99.11
2263.00,99.09
2262.00,99.06
2261.00,99.03
2260.00,99.00
2259.00,98.97
2258.00,98.97
2257.00,98.98
2256.00,99.00
2255.00,99.00
2254.00,98.97
2253.00,98.93
2252.00,98.91
2251.00,98.91
2250.00,98.93
2249.00,98.95
2248.00,98.96
2247.00,98.96
2246.00,98.95
2245.00,98.95
2244.00,98.95
2243.00,98.95
2242.00,98.93
2241.00,98.90
2240.00,98.84
2239.00,98.79
2238.00,98.76
2237.00,98.74
2236.00,98.74
2235.00,98.74
2234.00,98.75
2233.00,98.75
2232.00,98.73
2231.00,98.72
2230.00,98.70
2229.00,98.68
2228.00,98.68
2227.00,98.70
2226.00,98.72
2225.00,98.72
2224.00,98.68
2223.00,98.64
2222.00,98.59
2221.00,98.53
2220.00,98.47
2219.00,98.44
2218.00,98.44
2217.00,98.48
2216.00,98.51
2215.00,98.53
2214.00,98.55
2213.00,98.57
2212.00,98.58
2211.00,98.58
2210.00,98.54
2209.00,98.49
2208.00,98.44
2207.00,98.41
2206.00,98.42
2205.00,98.43
2204.00,98.43
2203.00,98.43
2202.00,98.44
2201.00,98.45
2200.00,98.46
2199.00,98.45
2198.00,98.43
2197.00,98.39
2196.00,98.33
2195.00,98.25
2194.00,98.19
2193.00,98.14
2192.00,98.11
2191.00,98.09
2190.00,98.07
2189.00,98.06
2188.00,98.05
2187.00,98.06
2186.00,98.09
2185.00,98.11
2184.00,98.13
2183.00,98.15
2182.00,98.17
2181.00,98.17
2180.00,98.14
2179.00,98.09
2178.00,98.06
2177.00,98.04
2176.00,98.03
2175.00,98.01
2174.00,97.98
2173.00,97.95
2172.00,97.94
2171.00,97.92
2170.00,97.89
2169.00,97.82
2168.00,97.73
2167.00,97.66
2166.00,97.62
2165.00,97.58
2164.00,97.52
2163.00,97.41
2162.00,97.31
2161.00,97.26
2160.00,97.32
2159.00,97.48
2158.00,97.70
2157.00,97.91
2156.00,98.08
2155.00,98.18
2154.00,98.24
2153.00,98.26
2152.00,98.29
2151.00,98.33
2150.00,98.35
2149.00,98.34
2148.00,98.34
2147.00,98.38
2146.00,98.49
2145.00,98.62
2144.00,98.71
2143.00,98.75
2142.00,98.76
2141.00,98.76
2140.00,98.76
2139.00,98.76
2138.00,98.77
2137.00,98.78
2136.00,98.79
2135.00,98.82
2134.00,98.85
2133.00,98.90
2132.00,98.94
2131.00,98.97
2130.00,98.98
2129.00,99.00
2128.00,99.02
2127.00,99.06
2126.00,99.10
2125.00,99.13
2124.00,99.14
2123.00,99.14
2122.00,99.15
2121.00,99.14
2120.00,99.13
2119.00,99.13
2118.00,99.13
2117.00,99.13
2116.00,99.11
2115.00,99.07
2114.00,99.03
2113.00,99.02
2112.00,99.02
2111.00,99.04
2110.00,99.06
2109.00,99.06
2108.00,99.06
2107.00,99.05
2106.00,99.04
2105.00,99.03
2104.00,99.03
2103.00,99.04
2102.00,99.03
2101.00,99.02
2100.00,99.00
2099.00,99.00
2098.00,99.02
2097.00,99.03
2096.00,99.03
2095.00,99.03
2094.00,99.04
2093.00,99.06
2092.00,99.07
2091.00,99.08
2090.00,99.08
2089.00,99.05
2088.00,99.02
2087.00,99.01
2086.00,99.04
2085.00,99.09
2084.00,99.12
2083.00,99.12
2082.00,99.10
2081.00,99.05
2080.00,99.00
2079.00,98.95
2078.00,98.90
2077.00,98.87
2076.00,98.85
2075.00,98.85
2074.00,98.88
2073.00,98.90
2072.00,98.92
2071.00,98.90
2070.00,98.86
2069.00,98.82
2068.00,98.79
2067.00,98.80
2066.00,98.82
2065.00,98.83
2064.00,98.85
2063.00,98.86
2062.00,98.87
2061.00,98.89
2060.00,98.88
2059.00,98.86
2058.00,98.82
2057.00,98.77
2056.00,98.72
2055.00,98.66
2054.00,98.57
2053.00,98.47
2052.00,98.38
2051.00,98.33
2050.00,98.33
2049.00,98.36
2048.00,98.37
2047.00,98.37
2046.00,98.34
2045.00,98.30
2044.00,98.26
2043.00,98.24
2042.00,98.24
2041.00,98.21
2040.00,98.16
2039.00,98.11
2038.00,98.07
2037.00,98.04
2036.00,98.00
2035.00,97.96
2034.00,97.94
2033.00,97.92
2032.00,97.89
2031.00,97.86
2030.00,97.85
2029.00,97.86
2028.00,97.89
2027.00,97.92
2026.00,97.96
2025.00,97.98
2024.00,97.98
2023.00,97.97
2022.00,97.96
2021.00,97.94
2020.00,97.92
2019.00,97.93
2018.00,97.96
2017.00,97.99
2016.00,97.98
2015.00,97.98
2014.00,98.02
2013.00,98.10
2012.00,98.17
2011.00,98.21
2010.00,98.21
2009.00,98.19
2008.00,98.18
2007.00,98.19
2006.00,98.21
2005.00,98.24
2004.00,98.27
2003.00,98.30
2002.00,98.34
2001.00,98.40
2000.00,98.47
1999.00,98.54
1998.00,98.60
1997.00,98.64
1996.00,98.65
1995.00,98.65
1994.00,98.65
1993.00,98.65
1992.00,98.67
1991.00,98.68
1990.00,98.68
1989.00,98.65
1988.00,98.59
1987.00,98.54
1986.00,98.50
1985.00,98.46
1984.00,98.41
1983.00,98.36
1982.00,98.33
1981.00,98.30
1980.00,98.28
1979.00,98.27
1978.00,98.28
1977.00,98.29
1976.00,98.30
1975.00,98.32
1974.00,98.35
1973.00,98.38
1972.00,98.38
1971.00,98.38
1970.00,98.40
1969.00,98.47
1968.00,98.57
1967.00,98.65
1966.00,98.69
1965.00,98.70
1964.00,98.72
1963.00,98.77
1962.00,98.84
1961.00,98.90
1960.00,98.93
1959.00,98.92
1958.00,98.90
1957.00,98.90
1956.00,98.92
1955.00,98.97
1954.00,99.02
1953.00,99.04
1952.00,99.04
1951.00,99.04
1950.00,99.09
1949.00,99.15
1948.00,99.19
1947.00,99.18
1946.00,99.14
1945.00,99.10
1944.00,99.09
1943.00,99.10
1942.00,99.13
1941.00,99.18
1940.00,99.23
1939.00,99.28
1938.00,99.32
1937.00,99.35
1936.00,99.37
1935.00,99.40
1934.00,99.43
1933.00,99.46
1932.00,99.47
1931.00,99.48
1930.00,99.49
1929.00,99.49
1928.00,99.49
1927.00,99.49
1926.00,99.50
1925.00,99.51
1924.00,99.51
1923.00,99.52
1922.00,99.55
1921.00,99.59
1920.00,99.60
1919.00,99.59
1918.00,99.56
1917.00,99.53
1916.00,99.52
1915.00,99.52
1914.00,99.52
1913.00,99.51
1912.00,99.51
1911.00,99.54
1910.00,99.57
1909.00,99.61
1908.00,99.63
1907.00,99.65
1906.00,99.65
1905.00,99.64
1904.00,99.64
1903.00,99.64
1902.00,99.63
1901.00,99.62
1900.00,99.61
1899.00,99.62
1898.00,99.64
1897.00,99.66
1896.00,99.67
1895.00,99.67
1894.00,99.66
1893.00,99.64
1892.00,99.64
1891.00,99.67
1890.00,99.71
1889.00,99.75
1888.00,99.78
1887.00,99.82
1886.00,99.83
1885.00,99.83
1884.00,99.82
1883.00,99.80
1882.00,99.78
1881.00,99.76
1880.00,99.74
1879.00,99.75
1878.00,99.78
1877.00,99.81
1876.00,99.83
1875.00,99.85
1874.00,99.86
1873.00,99.87
1872.00,99.87
1871.00,99.88
1870.00,99.89
1869.00,99.90
1868.00,99.91
1867.00,99.92
1866.00,99.92
1865.00,99.92
1864.00,99.93
1863.00,99.94
1862.00,99.95
1861.00,99.96
1860.00,99.97
1859.00,99.97
1858.00,99.97
1857.00,99.97
1856.00,99.96
1855.00,99.96
1854.00,99.97
1853.00,99.97
1852.00,99.97
1851.00,99.96
1850.00,99.95
1849.00,99.94
1848.00,99.93
1847.00,99.94
1846.00,99.94
1845.00,99.95
1844.00,99.95
1843.00,99.94
1842.00,99.94
1841.00,99.94
1840.00,99.94
1839.00,99.96
1838.00,99.98
1837.00,99.99
1836.00,99.99
1835.00,100.00
1834.00,100.01
1833.00,100.02
1832.00,100.03
1831.00,100.02
1830.00,100.01
1829.00,99.98
1828.00,99.96
1827.00,99.96
1826.00,99.96
1825.00,99.97
1824.00,99.96
1823.00,99.95
1822.00,99.94
1821.00,99.94
1820.00,99.94
1819.00,99.94
1818.00,99.95
1817.00,99.97
1816.00,99.99
1815.00,99.99
1814.00,99.99
1813.00,99.98
1812.00,99.97
1811.00,99.97
1810.00,99.98
1809.00,99.98
1808.00,99.97
1807.00,99.97
1806.00,99.98
1805.00,99.98
1804.00,99.98
1803.00,99.98
1802.00,99.99
1801.00,99.99
1800.00,99.98
1799.00,99.96
1798.00,99.95
1797.00,99.95
1796.00,99.97
1795.00,100.00
1794.00,100.01
1793.00,100.00
1792.00,99.99
1791.00,99.99
1790.00,100.00
1789.00,100.01
1788.00,100.01
1787.00,99.99
1786.00,99.98
1785.00,99.97
1784.00,99.96
1783.00,99.96
1782.00,99.96
1781.00,99.95
1780.00,99.94
1779.00,99.93
1778.00,99.93
1777.00,99.93
1776.00,99.93
1775.00,99.93
1774.00,99.94
1773.00,99.95
1772.00,99.95
1771.00,99.93
1770.00,99.89
1769.00,99.85
1768.00,99.83
1767.00,99.82
1766.00,99.83
1765.00,99.83
1764.00,99.82
1763.00,99.81
1762.00,99.79
1761.00,99.76
1760.00,99.74
1759.00,99.71
1758.00,99.70
1757.00,99.69
1756.00,99.67
1755.00,99.65
1754.00,99.62
1753.00,99.58
1752.00,99.54
1751.00,99.50
1750.00,99.46
1749.00,99.44
1748.00,99.43
1747.00,99.42
1746.00,99.40
1745.00,99.36
1744.00,99.32
1743.00,99.30
1742.00,99.29
1741.00,99.28
1740.00,99.27
1739.00,99.26
1738.00,99.26
1737.00,99.26
1736.00,99.25
1735.00,99.23
1734.00,99.21
1733.00,99.19
1732.00,99.18
1731.00,99.20
1730.00,99.23
1729.00,99.26
1728.00,99.28
1727.00,99.28
1726.00,99.28
1725.00,99.27
1724.00,99.26
1723.00,99.25
1722.00,99.23
1721.00,99.21
1720.00,99.19
1719.00,99.18
1718.00,99.19
1717.00,99.18
1716.00,99.16
1715.00,99.15
1714.00,99.13
1713.00,99.12
1712.00,99.11
1711.00,99.11
1710.00,99.12
1709.00,99.13
1708.00,99.13
1707.00,99.13
1706.00,99.14
1705.00,99.14
1704.00,99.14
1703.00,99.14
1702.00,99.15
1701.00,99.13
1700.00,99.09
1699.00,99.07
1698.00,99.08
1697.00,99.10
1696.00,99.12
1695.00,99.13
1694.00,99.12
1693.00,99.11
1692.00,99.11
1691.00,99.12
1690.00,99.12
1689.00,99.11
1688.00,99.09
1687.00,99.07
1686.00,99.05
1685.00,99.00
1684.00,98.94
1683.00,98.89
1682.00,98.86
1681.00,98.85
1680.00,98.84
1679.00,98.83
1678.00,98.83
1677.00,98.82
1676.00,98.79
1675.00,98.76
1674.00,98.73
1673.00,98.70
1672.00,98.65
1671.00,98.61
1670.00,98.57
1669.00,98.54
1668.00,98.51
1667.00,98.51
1666.00,98.50
1665.00,98.49
1664.00,98.46
1663.00,98.42
1662.00,98.38
1661.00,98.34
1660.00,98.31
1659.00,98.29
1658.00,98.28
1657.00,98.27
1656.00,98.25
1655.00,98.24
1654.00,98.23
1653.00,98.24
1652.00,98.24
1651.00,98.22
1650.00,98.20
1649.00,98.18
1648.00,98.17
1647.00,98.15
1646.00,98.14
1645.00,98.12
1644.00,98.11
1643.00,98.11
1642.00,98.13
1641.00,98.15
1640.00,98.18
1639.00,98.21
1638.00,98.24
1637.00,98.24
1636.00,98.22
1635.00,98.20
1634.00,98.20
1633.00,98.23
1632.00,98.27
1631.00,98.32
1630.00,98.38
1629.00,98.43
1628.00,98.45
1627.00,98.45
1626.00,98.45
1625.00,98.46
1624.00,98.49
1623.00,98.53
1622.00,98.59
1621.00,98.62
1620.00,98.65
1619.00,98.67
1618.00,98.70
1617.00,98.72
1616.00,98.75
1615.00,98.78
1614.00,98.82
1613.00,98.85
1612.00,98.87
1611.00,98.90
1610.00,98.91
1609.00,98.91
1608.00,98.91
1607.00,98.92
1606.00,98.96
1605.00,98.99
1604.00,99.03
1603.00,99.06
1602.00,99.08
1601.00,99.09
1600.00,99.11
1599.00,99.13
1598.00,99.14
1597.00,99.14
1596.00,99.14
1595.00,99.14
1594.00,99.15
1593.00,99.15
1592.00,99.16
1591.00,99.18
1590.00,99.18
1589.00,99.17
1588.00,99.15
1587.00,99.14
1586.00,99.12
1585.00,99.10
1584.00,99.06
1583.00,99.03
1582.00,99.02
1581.00,99.01
1580.00,99.01
1579.00,99.01
1578.00,99.03
1577.00,99.04
1576.00,99.05
1575.00,99.08
1574.00,99.12
1573.00,99.16
1572.00,99.20
1571.00,99.24
1570.00,99.26
1569.00,99.27
1568.00,99.29
1567.00,99.32
1566.00,99.35
1565.00,99.37
1564.00,99.38
1563.00,99.38
1562.00,99.37
1561.00,99.35
1560.00,99.33
1559.00,99.33
1558.00,99.35
1557.00,99.36
1556.00,99.35
1555.00,99.33
1554.00,99.30
1553.00,99.27
1552.00,99.23
1551.00,99.22
1550.00,99.22
1549.00,99.21
1548.00,99.17
1547.00,99.12
1546.00,99.07
1545.00,99.02
1544.00,99.00
1543.00,98.99
1542.00,98.99
1541.00,98.98
1540.00,98.99
1539.00,99.03
1538.00,99.08
1537.00,99.10
1536.00,99.12
1535.00,99.15
1534.00,99.21
1533.00,99.26
1532.00,99.30
1531.00,99.33
1530.00,99.35
1529.00,99.35
1528.00,99.33
1527.00,99.33
1526.00,99.33
1525.00,99.34
1524.00,99.34
1523.00,99.36
1522.00,99.38
1521.00,99.37
1520.00,99.33
1519.00,99.31
1518.00,99.30
1517.00,99.28
1516.00,99.26
1515.00,99.26
1514.00,99.26
1513.00,99.24
1512.00,99.22
1511.00,99.21
1510.00,99.21
1509.00,99.20
1508.00,99.18
1507.00,99.17
1506.00,99.16
1505.00,99.11
1504.00,99.05
1503.00,99.02
1502.00,98.99
1501.00,98.94
1500.00,98.89
1499.00,98.85
1498.00,98.83
1497.00,98.77
1496.00,98.69
1495.00,98.63
1494.00,98.60
1493.00,98.54
1492.00,98.44
1491.00,98.32
1490.00,98.19
1489.00,98.03
1488.00,97.86
1487.00,97.71
1486.00,97.55
1485.00,97.34
1484.00,97.10
1483.00,96.83
1482.00,96.55
1481.00,96.23
1480.00,95.86
1479.00,95.37
1478.00,94.52
1477.00,92.97
1476.00,90.55
1475.00,87.55
1474.00,84.69
1473.00,83.14
1472.00,83.51
1471.00,84.87
1470.00,85.96
1469.00,86.36
1468.00,86.15
1467.00,85.35
1466.00,83.72
1465.00,81.29
1464.00,78.97
1463.00,77.91
1462.00,78.42
1461.00,80.08
1460.00,82.24
1459.00,84.28
1458.00,85.80
1457.00,86.74
1456.00,87.32
1455.00,87.74
1454.00,88.14
1453.00,88.60
1452.00,89.10
1451.00,89.56
1450.00,89.94
1449.00,90.30
1448.00,90.64
1447.00,90.94
1446.00,91.20
1445.00,91.44
1444.00,91.68
1443.00,91.92
1442.00,92.13
1441.00,92.31
1440.00,92.46
1439.00,92.57
1438.00,92.63
1437.00,92.70
1436.00,92.78
1435.00,92.84
1434.00,92.89
1433.00,92.94
1432.00,93.02
1431.00,93.12
1430.00,93.24
1429.00,93.38
1428.00,93.54
1427.00,93.67
1426.00,93.80
1425.00,93.94
1424.00,94.11
1423.00,94.28
1422.00,94.43
1421.00,94.59
1420.00,94.78
1419.00,94.97
1418.00,95.14
1417.00,95.29
1416.00,95.43
1415.00,95.55
1414.00,95.65
1413.00,95.73
1412.00,95.80
1411.00,95.87
1410.00,95.92
1409.00,95.98
1408.00,96.03
1407.00,96.06
1406.00,96.08
1405.00,96.12
1404.00,96.16
1403.00,96.19
1402.00,96.20
1401.00,96.22
1400.00,96.24
1399.00,96.26
1398.00,96.26
1397.00,96.26
1396.00,96.25
1395.00,96.22
1394.00,96.17
1393.00,96.12
1392.00,96.07
1391.00,95.99
1390.00,95.88
1389.00,95.72
1388.00,95.51
1387.00,95.22
1386.00,94.88
1385.00,94.53
1384.00,94.13
1383.00,93.64
1382.00,93.05
1381.00,92.39
1380.00,91.69
1379.00,91.04
1378.00,90.54
1377.00,90.26
1376.00,90.18
1375.00,90.27
1374.00,90.44
1373.00,90.64
1372.00,90.81
1371.00,90.95
1370.00,91.07
1369.00,91.19
1368.00,91.32
1367.00,91.43
1366.00,91.53
1365.00,91.61
1364.00,91.70
1363.00,91.80
1362.00,91.91
1361.00,92.03
1360.00,92.15
1359.00,92.27
1358.00,92.39
1357.00,92.50
1356.00,92.60
1355.00,92.69
1354.00,92.79
1353.00,92.87
1352.00,92.94
1351.00,92.99
1350.00,93.01
1349.00,92.99
1348.00,92.94
1347.00,92.84
1346.00,92.69
1345.00,92.52
1344.00,92.32
1343.00,92.11
1342.00,91.90
1341.00,91.71
1340.00,91.56
1339.00,91.44
1338.00,91.36
1337.00,91.31
1336.00,91.29
1335.00,91.31
1334.00,91.36
1333.00,91.46
1332.00,91.59
1331.00,91.75
1330.00,91.91
1329.00,92.04
1328.00,92.12
1327.00,92.14
1326.00,92.10
1325.00,92.00
1324.00,91.86
1323.00,91.67
1322.00,91.46
1321.00,91.21
1320.00,90.95
1319.00,90.69
1318.00,90.45
1317.00,90.27
1316.00,90.16
1315.00,90.13
1314.00,90.18
1313.00,90.30
1312.00,90.50
1311.00,90.74
1310.00,91.01
1309.00,91.30
1308.00,91.61
1307.00,91.93
1306.00,92.24
1305.00,92.54
1304.00,92.82
1303.00,93.07
1302.00,93.32
1301.00,93.55
1300.00,93.77
1299.00,93.96
1298.00,94.12
1297.00,94.25
1296.00,94.35
1295.00,94.40
1294.00,94.42
1293.00,94.42
1292.00,94.42
1291.00,94.42
1290.00,94.41
1289.00,94.39
1288.00,94.35
1287.00,94.30
1286.00,94.25
1285.00,94.19
1284.00,94.12
1283.00,94.04
1282.00,93.95
1281.00,93.89
1280.00,93.86
1279.00,93.86
1278.00,93.89
1277.00,93.94
1276.00,93.99
1275.00,94.05
1274.00,94.12
1273.00,94.21
1272.00,94.31
1271.00,94.41
1270.00,94.52
1269.00,94.62
1268.00,94.71
1267.00,94.78
1266.00,94.83
1265.00,94.86
1264.00,94.89
1263.00,94.91
1262.00,94.92
1261.00,94.94
1260.00,94.96
1259.00,95.00
1258.00,95.05
1257.00,95.09
1256.00,95.11
1255.00,95.09
1254.00,95.05
1253.00,94.99
1252.00,94.93
1251.00,94.87
1250.00,94.82
1249.00,94.79
1248.00,94.79
1247.00,94.81
1246.00,94.86
1245.00,94.93
1244.00,95.01
1243.00,95.08
1242.00,95.13
1241.00,95.16
1240.00,95.19
1239.00,95.22
1238.00,95.25
1237.00,95.26
1236.00,95.27
1235.00,95.29
1234.00,95.34
1233.00,95.42
1232.00,95.52
1231.00,95.64
1230.00,95.75
1229.00,95.85
1228.00,95.95
1227.00,96.03
1226.00,96.10
1225.00,96.17
1224.00,96.24
1223.00,96.32
1222.00,96.39
1221.00,96.45
1220.00,96.48
1219.00,96.50
1218.00,96.51
1217.00,96.50
1216.00,96.48
1215.00,96.42
1214.00,96.31
1213.00,96.16
1212.00,95.95
1211.00,95.69
1210.00,95.39
1209.00,95.10
1208.00,94.85
1207.00,94.66
1206.00,94.56
1205.00,94.52
1204.00,94.53
1203.00,94.56
1202.00,94.62
1201.00,94.71
1200.00,94.82
1199.00,94.95
1198.00,95.10
1197.00,95.26
1196.00,95.41
1195.00,95.54
1194.00,95.64
1193.00,95.74
1192.00,95.84
1191.00,95.93
1190.00,95.98
1189.00,96.01
1188.00,96.00
1187.00,95.98
1186.00,95.94
1185.00,95.87
1184.00,95.76
1183.00,95.61
1182.00,95.45
1181.00,95.29
1180.00,95.13
1179.00,94.96
1178.00,94.75
1177.00,94.50
1176.00,94.22
1175.00,93.92
1174.00,93.59
1173.00,93.23
1172.00,92.83
1171.00,92.37
1170.00,91.87
1169.00,91.34
1168.00,90.79
1167.00,90.24
1166.00,89.71
1165.00,89.23
1164.00,88.82
1163.00,88.52
1162.00,88.33
1161.00,88.23
1160.00,88.18
1159.00,88.21
1158.00,88.30
1157.00,88.43
1156.00,88.59
1155.00,88.74
1154.00,88.89
1153.00,89.04
1152.00,89.20
1151.00,89.34
1150.00,89.48
1149.00,89.62
1148.00,89.77
1147.00,89.94
1146.00,90.14
1145.00,90.36
1144.00,90.57
1143.00,90.79
1142.00,90.98
1141.00,91.13
1140.00,91.23
1139.00,91.26
1138.00,91.21
1137.00,91.07
1136.00,90.86
1135.00,90.59
1134.00,90.30
1133.00,90.00
1132.00,89.71
1131.00,89.41
1130.00,89.09
1129.00,88.74
1128.00,88.34
1127.00,87.93
1126.00,87.50
1125.00,87.08
1124.00,86.67
1123.00,86.28
1122.00,85.92
1121.00,85.59
1120.00,85.26
1119.00,84.86
1118.00,84.34
1117.00,83.71
1116.00,83.00
1115.00,82.30
1114.00,81.64
1113.00,81.08
1112.00,80.64
1111.00,80.35
1110.00,80.23
1109.00,80.22
1108.00,80.26
1107.00,80.28
1106.00,80.26
1105.00,80.20
1104.00,80.17
1103.00,80.19
1102.00,80.31
1101.00,80.50
1100.00,80.76
1099.00,81.07
1098.00,81.41
1097.00,81.73
1096.00,82.02
1095.00,82.28
1094.00,82.52
1093.00,82.74
1092.00,82.94
1091.00,83.10
1090.00,83.19
1089.00,83.25
1088.00,83.28
1087.00,83.31
1086.00,83.34
1085.00,83.34
1084.00,83.29
1083.00,83.19
1082.00,83.04
1081.00,82.85
1080.00,82.61
1079.00,82.32
1078.00,82.00
1077.00,81.67
1076.00,81.37
1075.00,81.10
1074.00,80.86
1073.00,80.60
1072.00,80.28
1071.00,79.92
1070.00,79.51
1069.00,79.04
1068.00,78.49
1067.00,77.87
1066.00,77.20
1065.00,76.47
1064.00,75.69
1063.00,74.93
1062.00,74.20
1061.00,73.53
1060.00,72.92
1059.00,72.39
1058.00,71.95
1057.00,71.61
1056.00,71.38
1055.00,71.26
1054.00,71.22
1053.00,71.24
1052.00,71.29
1051.00,71.41
1050.00,71.60
1049.00,71.87
1048.00,72.19
1047.00,72.52
1046.00,72.84
1045.00,73.13
1044.00,73.39
1043.00,73.59
1042.00,73.70
1041.00,73.68
1040.00,73.52
1039.00,73.25
1038.00,72.92
1037.00,72.53
1036.00,72.13
1035.00,71.73
1034.00,71.36
1033.00,71.04
1032.00,70.79
1031.00,70.65
1030.00,70.61
1029.00,70.65
1028.00,70.75
1027.00,70.89
1026.00,71.07
1025.00,71.26
1024.00,71.47
1023.00,71.69
1022.00,71.92
1021.00,72.15
1020.00,72.38
1019.00,72.62
1018.00,72.87
1017.00,73.10
1016.00,73.31
1015.00,73.51
1014.00,73.70
1013.00,73.86
1012.00,73.98
1011.00,74.06
1010.00,74.09
1009.00,74.07
1008.00,73.99
1007.00,73.90
1006.00,73.79
1005.00,73.68
1004.00,73.56
1003.00,73.41
1002.00,73.26
1001.00,73.14
1000.00,73.08
999.00,73.13
998.00,73.28
997.00,73.51
996.00,73.80
995.00,74.12
994.00,74.45
993.00,74.77
992.00,75.02
991.00,75.19
990.00,75.26
989.00,75.23
988.00,75.11
987.00,74.94
986.00,74.72
985.00,74.52
984.00,74.38
983.00,74.39
982.00,74.58
981.00,74.95
980.00,75.45
979.00,76.04
978.00,76.69
977.00,77.37
976.00,78.04
975.00,78.68
974.00,79.27
973.00,79.82
972.00,80.35
971.00,80.85
970.00,81.30
969.00,81.70
968.00,82.07
967.00,82.42
966.00,82.77
965.00,83.12
964.00,83.46
963.00,83.81
962.00,84.15
961.00,84.50
960.00,84.85
959.00,85.19
958.00,85.51
957.00,85.82
956.00,86.13
955.00,86.46
954.00,86.78
953.00,87.09
952.00,87.37
951.00,87.63
950.00,87.88
949.00,88.11
948.00,88.31
947.00,88.49
946.00,88.67
945.00,88.86
944.00,89.07
943.00,89.27
942.00,89.47
941.00,89.64
940.00,89.80
939.00,89.96
938.00,90.10
937.00,90.22
936.00,90.31
935.00,90.39
934.00,90.46
933.00,90.54
932.00,90.62
931.00,90.70
930.00,90.80
929.00,90.91
928.00,91.03
927.00,91.13
926.00,91.22
925.00,91.29
924.00,91.37
923.00,91.44
922.00,91.50
921.00,91.54
920.00,91.57
919.00,91.61
918.00,91.64
917.00,91.66
916.00,91.65
915.00,91.59
914.00,91.52
913.00,91.47
912.00,91.43
911.00,91.39
910.00,91.35
909.00,91.30
908.00,91.24
907.00,91.17
906.00,91.09
905.00,90.99
904.00,90.91
903.00,90.84
902.00,90.78
901.00,90.71
900.00,90.65
899.00,90.59
898.00,90.55
897.00,90.54
896.00,90.56
895.00,90.58
894.00,90.60
893.00,90.63
892.00,90.68
891.00,90.77
890.00,90.87
889.00,91.00
888.00,91.18
887.00,91.43
886.00,91.72
885.00,92.03
884.00,92.32
883.00,92.56
882.00,92.76
881.00,92.92
880.00,93.07
879.00,93.22
878.00,93.36
877.00,93.48
876.00,93.58
875.00,93.68
874.00,93.77
873.00,93.85
872.00,93.91
871.00,93.96
870.00,94.02
869.00,94.11
868.00,94.21
867.00,94.31
866.00,94.40
865.00,94.48
864.00,94.56
863.00,94.61
862.00,94.63
861.00,94.64
860.00,94.66
859.00,94.70
858.00,94.75
857.00,94.79
856.00,94.81
855.00,94.82
854.00,94.82
853.00,94.80
852.00,94.77
851.00,94.75
850.00,94.74
849.00,94.77
848.00,94.80
847.00,94.83
846.00,94.84
845.00,94.84
844.00,94.83
843.00,94.82
842.00,94.80
841.00,94.79
840.00,94.78
839.00,94.80
838.00,94.80
837.00,94.80
836.00,94.78
835.00,94.77
834.00,94.76
833.00,94.76
832.00,94.76
831.00,94.76
830.00,94.75
829.00,94.75
828.00,94.75
827.00,94.75
826.00,94.72
825.00,94.65
824.00,94.59
823.00,94.57
822.00,94.58
821.00,94.59
820.00,94.58
819.00,94.55
818.00,94.51
817.00,94.49
816.00,94.50
815.00,94.53
814.00,94.53
813.00,94.51
812.00,94.48
811.00,94.44
810.00,94.38
809.00,94.32
808.00,94.26
807.00,94.22
806.00,94.18
805.00,94.14
804.00,94.10
803.00,94.07
802.00,94.05
801.00,94.02
800.00,94.01
799.00,94.00
798.00,94.00
797.00,93.99
796.00,93.96
795.00,93.91
794.00,93.87
793.00,93.82
792.00,93.77
791.00,93.71
790.00,93.63
789.00,93.55
788.00,93.48
787.00,93.41
786.00,93.32
785.00,93.22
784.00,93.14
783.00,93.10
782.00,93.09
781.00,93.07
780.00,93.06
779.00,93.04
778.00,93.01
777.00,92.96
776.00,92.90
775.00,92.84
774.00,92.79
773.00,92.74
772.00,92.69
771.00,92.64
770.00,92.57
769.00,92.49
768.00,92.40
767.00,92.32
766.00,92.24
765.00,92.13
764.00,92.02
763.00,91.92
762.00,91.85
761.00,91.78
760.00,91.72
759.00,91.67
758.00,91.60
757.00,91.49
756.00,91.37
755.00,91.27
754.00,91.19
753.00,91.12
752.00,91.03
751.00,90.92
750.00,90.78
749.00,90.60
748.00,90.44
747.00,90.33
746.00,90.24
745.00,90.14
744.00,90.01
743.00,89.88
742.00,89.74
741.00,89.55
740.00,89.29
739.00,89.00
738.00,88.67
737.00,88.26
736.00,87.67
735.00,86.72
734.00,85.09
733.00,82.64
732.00,79.72
731.00,77.22
730.00,76.01
729.00,76.33
728.00,77.62
727.00,79.02
726.00,79.88
725.00,80.03
724.00,79.45
723.00,78.01
722.00,75.58
721.00,72.58
720.00,70.20
719.00,69.65
718.00,71.16
717.00,73.84
716.00,76.48
715.00,78.38
714.00,79.50
713.00,80.12
712.00,80.45
711.00,80.62
710.00,80.72
709.00,80.80
708.00,80.87
707.00,80.94
706.00,81.00
705.00,81.05
704.00,81.07
703.00,81.09
702.00,81.14
701.00,81.21
700.00,81.26
699.00,81.28
698.00,81.31
697.00,81.37
696.00,81.42
695.00,81.46
694.00,81.50
693.00,81.56
692.00,81.64
691.00,81.70
690.00,81.71
689.00,81.67
688.00,81.59
687.00,81.51
686.00,81.47
685.00,81.46
684.00,81.45
683.00,81.41
682.00,81.34
681.00,81.22
680.00,81.02
679.00,80.76
678.00,80.45
677.00,80.12
676.00,79.76
675.00,79.36
674.00,78.91
673.00,78.45
672.00,78.07
671.00,77.79
670.00,77.57
669.00,77.24
668.00,76.69
667.00,76.18
666.00,75.91
665.00,75.76
664.00,75.62
663.00,75.50
662.00,75.44
661.00,75.44
660.00,75.54
659.00,75.77
658.00,76.11
657.00,76.47
656.00,76.74
655.00,76.91
654.00,77.06
653.00,77.22
652.00,77.37
651.00,77.50
650.00,77.62
649.00,77.70
648.00,77.73
647.00,77.69
646.00,77.62
645.00,77.52
644.00,77.37
643.00,77.18
642.00,76.98
641.00,76.84
640.00,76.77
639.00,76.72
638.00,76.60
637.00,76.35
636.00,76.04
635.00,75.84
634.00,75.81
633.00,75.83
632.00,75.74
631.00,75.48
630.00,75.16
629.00,74.87
628.00,74.65
627.00,74.52
626.00,74.45
625.00,74.36
624.00,74.21
623.00,74.03
622.00,73.91
621.00,73.85
620.00,73.78
619.00,73.66
618.00,73.53
617.00,73.41
616.00,73.27
615.00,73.08
614.00,72.81
613.00,72.43
612.00,72.02
611.00,71.76
610.00,71.69
609.00,71.62
608.00,71.36
607.00,70.96
606.00,70.58
605.00,70.39
604.00,70.47
603.00,70.85
602.00,71.36
601.00,71.59
600.00,71.25
599.00,70.52
598.00,69.92
597.00,69.73
596.00,69.84
595.00,69.98
594.00,70.01
593.00,69.95
592.00,69.85
591.00,69.75
590.00,69.72
589.00,69.81
588.00,70.06
587.00,70.44
586.00,70.79
585.00,70.97
584.00,70.88
583.00,70.59
582.00,70.15
581.00,69.68
580.00,69.30
579.00,69.20
578.00,69.38
577.00,69.63
576.00,69.76
575.00,69.78
574.00,69.71
573.00,69.51
572.00,69.20
571.00,69.02
570.00,69.13
569.00,69.37
568.00,69.48
567.00,69.34
566.00,68.96
565.00,68.28
564.00,67.22
563.00,65.95
562.00,64.81
561.00,64.01
560.00,63.52
559.00,63.21
558.00,62.97
557.00,62.80
556.00,62.88
555.00,63.39
554.00,64.13
553.00,64.57
552.00,64.45
551.00,64.02
550.00,63.73
