Created as New Dataset,4.2 Hand spun thread
cm-1,%T
4000.00,101.91
3999.00,101.92
3998.00,101.93
3997.00,101.93
3996.00,101.91
3995.00,101.90
3994.00,101.89
3993.00,101.89
3992.00,101.87
3991.00,101.85
3990.00,101.83
3989.00,101.83
3988.00,101.84
3987.00,101.86
3986.00,101.88
3985.00,101.90
3984.00,101.91
3983.00,101.91
3982.00,101.91
3981.00,101.90
3980.00,101.89
3979.00,101.87
3978.00,101.87
3977.00,101.86
3976.00,101.86
3975.00,101.87
3974.00,101.88
3973.00,101.89
3972.00,101.90
3971.00,101.91
3970.00,101.93
3969.00,101.93
3968.00,101.93
3967.00,101.93
3966.00,101.92
3965.00,101.91
3964.00,101.91
3963.00,101.91
3962.00,101.91
3961.00,101.90
3960.00,101.90
3959.00,101.91
3958.00,101.92
3957.00,101.92
3956.00,101.91
3955.00,101.90
3954.00,101.89
3953.00,101.89
3952.00,101.91
3951.00,101.93
3950.00,101.95
3949.00,101.95
3948.00,101.95
3947.00,101.93
3946.00,101.91
3945.00,101.89
3944.00,101.87
3943.00,101.86
3942.00,101.86
3941.00,101.87
3940.00,101.88
3939.00,101.88
3938.00,101.88
3937.00,101.88
3936.00,101.87
3935.00,101.86
3934.00,101.86
3933.00,101.85
3932.00,101.85
3931.00,101.85
3930.00,101.84
3929.00,101.84
3928.00,101.83
3927.00,101.83
3926.00,101.83
3925.00,101.83
3924.00,101.83
3923.00,101.84
3922.00,101.84
3921.00,101.86
3920.00,101.87
3919.00,101.89
3918.00,101.90
3917.00,101.91
3916.00,101.91
3915.00,101.90
3914.00,101.89
3913.00,101.89
3912.00,101.89
3911.00,101.90
3910.00,101.90
3909.00,101.91
3908.00,101.91
3907.00,101.90
3906.00,101.89
3905.00,101.86
3904.00,101.82
3903.00,101.79
3902.00,101.78
3901.00,101.79
3900.00,101.82
3899.00,101.84
3898.00,101.86
3897.00,101.89
3896.00,101.91
3895.00,101.92
3894.00,101.91
3893.00,101.89
3892.00,101.87
3891.00,101.85
3890.00,101.86
3889.00,101.87
3888.00,101.88
3887.00,101.88
3886.00,101.87
3885.00,101.87
3884.00,101.87
3883.00,101.88
3882.00,101.88
3881.00,101.87
3880.00,101.86
3879.00,101.85
3878.00,101.85
3877.00,101.86
3876.00,101.88
3875.00,101.88
3874.00,101.87
3873.00,101.86
3872.00,101.85
3871.00,101.85
3870.00,101.85
3869.00,101.86
3868.00,101.86
3867.00,101.86
3866.00,101.85
3865.00,101.86
3864.00,101.87
3863.00,101.88
3862.00,101.89
3861.00,101.89
3860.00,101.89
3859.00,101.86
3858.00,101.81
3857.00,101.75
3856.00,101.71
3855.00,101.71
3854.00,101.71
3853.00,101.71
3852.00,101.72
3851.00,101.77
3850.00,101.82
3849.00,101.86
3848.00,101.88
3847.00,101.89
3846.00,101.90
3845.00,101.91
3844.00,101.92
3843.00,101.92
3842.00,101.89
3841.00,101.86
3840.00,101.82
3839.00,101.78
3838.00,101.75
3837.00,101.73
3836.00,101.74
3835.00,101.77
3834.00,101.81
3833.00,101.84
3832.00,101.85
3831.00,101.84
3830.00,101.83
3829.00,101.83
3828.00,101.84
3827.00,101.85
3826.00,101.84
3825.00,101.82
3824.00,101.80
3823.00,101.81
3822.00,101.83
3821.00,101.85
3820.00,101.85
3819.00,101.84
3818.00,101.83
3817.00,101.82
3816.00,101.80
3815.00,101.79
3814.00,101.77
3813.00,101.77
3812.00,101.77
3811.00,101.79
3810.00,101.79
3809.00,101.79
3808.00,101.78
3807.00,101.76
3806.00,101.74
3805.00,101.73
3804.00,101.72
3803.00,101.73
3802.00,101.76
3801.00,101.78
3800.00,101.80
3799.00,101.82
3798.00,101.83
3797.00,101.84
3796.00,101.83
3795.00,101.82
3794.00,101.81
3793.00,101.82
3792.00,101.83
3791.00,101.85
3790.00,101.85
3789.00,101.85
3788.00,101.84
3787.00,101.83
3786.00,101.83
3785.00,101.83
3784.00,101.83
3783.00,101.82
3782.00,101.81
3781.00,101.81
3780.00,101.81
3779.00,101.81
3778.00,101.81
3777.00,101.82
3776.00,101.82
3775.00,101.81
3774.00,101.80
3773.00,101.79
3772.00,101.79
3771.00,101.80
3770.00,101.80
3769.00,101.78
3768.00,101.76
3767.00,101.74
3766.00,101.73
3765.00,101.73
3764.00,101.73
3763.00,101.73
3762.00,101.73
3761.00,101.72
3760.00,101.71
3759.00,101.70
3758.00,101.69
3757.00,101.68
3756.00,101.68
3755.00,101.67
3754.00,101.66
3753.00,101.66
3752.00,101.66
3751.00,101.64
3750.00,101.63
3749.00,101.61
3748.00,101.61
3747.00,101.61
3746.00,101.62
3745.00,101.63
3744.00,101.63
3743.00,101.63
3742.00,101.66
3741.00,101.68
3740.00,101.69
3739.00,101.68
3738.00,101.68
3737.00,101.69
3736.00,101.70
3735.00,101.70
3734.00,101.68
3733.00,101.65
3732.00,101.63
3731.00,101.64
3730.00,101.68
3729.00,101.72
3728.00,101.75
3727.00,101.76
3726.00,101.74
3725.00,101.73
3724.00,101.72
3723.00,101.72
3722.00,101.73
3721.00,101.73
3720.00,101.72
3719.00,101.70
3718.00,101.68
3717.00,101.66
3716.00,101.65
3715.00,101.64
3714.00,101.66
3713.00,101.68
3712.00,101.71
3711.00,101.71
3710.00,101.70
3709.00,101.68
3708.00,101.65
3707.00,101.63
3706.00,101.61
3705.00,101.60
3704.00,101.59
3703.00,101.59
3702.00,101.60
3701.00,101.60
3700.00,101.60
3699.00,101.59
3698.00,101.57
3697.00,101.55
3696.00,101.56
3695.00,101.58
3694.00,101.62
3693.00,101.65
3692.00,101.66
3691.00,101.64
3690.00,101.59
3689.00,101.53
3688.00,101.50
3687.00,101.51
3686.00,101.55
3685.00,101.58
3684.00,101.60
3683.00,101.61
3682.00,101.61
3681.00,101.60
3680.00,101.58
3679.00,101.54
3678.00,101.50
3677.00,101.46
3676.00,101.43
3675.00,101.42
3674.00,101.42
3673.00,101.44
3672.00,101.46
3671.00,101.49
3670.00,101.50
3669.00,101.48
3668.00,101.44
3667.00,101.41
3666.00,101.39
3665.00,101.38
3664.00,101.39
3663.00,101.39
3662.00,101.39
3661.00,101.39
3660.00,101.38
3659.00,101.38
3658.00,101.37
3657.00,101.35
3656.00,101.31
3655.00,101.28
3654.00,101.25
3653.00,101.23
3652.00,101.20
3651.00,101.17
3650.00,101.14
3649.00,101.14
3648.00,101.16
3647.00,101.17
3646.00,101.16
3645.00,101.13
3644.00,101.11
3643.00,101.12
3642.00,101.13
3641.00,101.13
3640.00,101.12
3639.00,101.10
3638.00,101.08
3637.00,101.06
3636.00,101.02
3635.00,100.98
3634.00,100.93
3633.00,100.89
3632.00,100.85
3631.00,100.83
3630.00,100.82
3629.00,100.80
3628.00,100.77
3627.00,100.77
3626.00,100.79
3625.00,100.81
3624.00,100.83
3623.00,100.82
3622.00,100.79
3621.00,100.75
3620.00,100.72
3619.00,100.69
3618.00,100.65
3617.00,100.61
3616.00,100.57
3615.00,100.53
3614.00,100.48
3613.00,100.43
3612.00,100.38
3611.00,100.34
3610.00,100.32
3609.00,100.32
3608.00,100.33
3607.00,100.32
3606.00,100.30
3605.00,100.26
3604.00,100.23
3603.00,100.21
3602.00,100.20
3601.00,100.19
3600.00,100.18
3599.00,100.16
3598.00,100.13
3597.00,100.10
3596.00,100.08
3595.00,100.06
3594.00,100.05
3593.00,100.03
3592.00,99.98
3591.00,99.92
3590.00,99.87
3589.00,99.83
3588.00,99.82
3587.00,99.81
3586.00,99.81
3585.00,99.80
3584.00,99.77
3583.00,99.74
3582.00,99.69
3581.00,99.65
3580.00,99.62
3579.00,99.61
3578.00,99.60
3577.00,99.58
3576.00,99.56
3575.00,99.54
3574.00,99.52
3573.00,99.49
3572.00,99.45
3571.00,99.38
3570.00,99.30
3569.00,99.24
3568.00,99.20
3567.00,99.18
3566.00,99.17
3565.00,99.15
3564.00,99.12
3563.00,99.08
3562.00,99.05
3561.00,99.02
3560.00,99.00
3559.00,98.98
3558.00,98.96
3557.00,98.93
3556.00,98.89
3555.00,98.86
3554.00,98.83
3553.00,98.79
3552.00,98.75
3551.00,98.70
3550.00,98.65
3549.00,98.61
3548.00,98.58
3547.00,98.57
3546.00,98.55
3545.00,98.53
3544.00,98.49
3543.00,98.45
3542.00,98.41
3541.00,98.36
3540.00,98.32
3539.00,98.28
3538.00,98.24
3537.00,98.21
3536.00,98.19
3535.00,98.17
3534.00,98.15
3533.00,98.12
3532.00,98.08
3531.00,98.04
3530.00,98.01
3529.00,97.98
3528.00,97.95
3527.00,97.89
3526.00,97.83
3525.00,97.77
3524.00,97.72
3523.00,97.69
3522.00,97.67
3521.00,97.66
3520.00,97.63
3519.00,97.60
3518.00,97.57
3517.00,97.54
3516.00,97.51
3515.00,97.48
3514.00,97.45
3513.00,97.40
3512.00,97.35
3511.00,97.29
3510.00,97.23
3509.00,97.19
3508.00,97.16
3507.00,97.13
3506.00,97.10
3505.00,97.06
3504.00,97.03
3503.00,97.01
3502.00,97.00
3501.00,96.98
3500.00,96.94
3499.00,96.90
3498.00,96.85
3497.00,96.80
3496.00,96.75
3495.00,96.72
3494.00,96.68
3493.00,96.64
3492.00,96.59
3491.00,96.52
3490.00,96.46
3489.00,96.40
3488.00,96.35
3487.00,96.30
3486.00,96.25
3485.00,96.20
3484.00,96.15
3483.00,96.09
3482.00,96.05
3481.00,96.02
3480.00,96.01
3479.00,95.99
3478.00,95.96
3477.00,95.91
3476.00,95.85
3475.00,95.78
3474.00,95.72
3473.00,95.67
3472.00,95.62
3471.00,95.58
3470.00,95.52
3469.00,95.47
3468.00,95.42
3467.00,95.38
3466.00,95.35
3465.00,95.31
3464.00,95.26
3463.00,95.20
3462.00,95.13
3461.00,95.09
3460.00,95.05
3459.00,95.02
3458.00,94.99
3457.00,94.93
3456.00,94.86
3455.00,94.79
3454.00,94.74
3453.00,94.68
3452.00,94.62
3451.00,94.55
3450.00,94.48
3449.00,94.42
3448.00,94.38
3447.00,94.37
3446.00,94.36
3445.00,94.35
3444.00,94.32
3443.00,94.28
3442.00,94.24
3441.00,94.19
3440.00,94.13
3439.00,94.06
3438.00,93.99
3437.00,93.93
3436.00,93.88
3435.00,93.84
3434.00,93.81
3433.00,93.77
3432.00,93.71
3431.00,93.64
3430.00,93.57
3429.00,93.51
3428.00,93.46
3427.00,93.42
3426.00,93.38
3425.00,93.34
3424.00,93.29
3423.00,93.24
3422.00,93.19
3421.00,93.15
3420.00,93.10
3419.00,93.06
3418.00,93.03
3417.00,93.00
3416.00,92.95
3415.00,92.90
3414.00,92.85
3413.00,92.78
3412.00,92.72
3411.00,92.65
3410.00,92.60
3409.00,92.54
3408.00,92.48
3407.00,92.43
3406.00,92.39
3405.00,92.36
3404.00,92.33
3403.00,92.29
3402.00,92.24
3401.00,92.18
3400.00,92.12
3399.00,92.07
3398.00,92.04
3397.00,92.02
3396.00,92.00
3395.00,91.97
3394.00,91.93
3393.00,91.88
3392.00,91.83
3391.00,91.79
3390.00,91.74
3389.00,91.69
3388.00,91.65
3387.00,91.61
3386.00,91.58
3385.00,91.55
3384.00,91.52
3383.00,91.50
3382.00,91.46
3381.00,91.41
3380.00,91.35
3379.00,91.28
3378.00,91.22
3377.00,91.18
3376.00,91.13
3375.00,91.09
3374.00,91.05
3373.00,91.00
3372.00,90.95
3371.00,90.91
3370.00,90.86
3369.00,90.83
3368.00,90.80
3367.00,90.77
3366.00,90.74
3365.00,90.71
3364.00,90.68
3363.00,90.64
3362.00,90.58
3361.00,90.51
3360.00,90.43
3359.00,90.36
3358.00,90.31
3357.00,90.28
3356.00,90.25
3355.00,90.21
3354.00,90.16
3353.00,90.11
3352.00,90.07
3351.00,90.02
3350.00,89.97
3349.00,89.92
3348.00,89.89
3347.00,89.87
3346.00,89.86
3345.00,89.84
3344.00,89.82
3343.00,89.79
3342.00,89.76
3341.00,89.74
3340.00,89.73
3339.00,89.72
3338.00,89.70
3337.00,89.67
3336.00,89.65
3335.00,89.64
3334.00,89.64
3333.00,89.66
3332.00,89.66
3331.00,89.67
3330.00,89.68
3329.00,89.69
3328.00,89.71
3327.00,89.72
3326.00,89.74
3325.00,89.76
3324.00,89.78
3323.00,89.81
3322.00,89.82
3321.00,89.83
3320.00,89.85
3319.00,89.88
3318.00,89.90
3317.00,89.91
3316.00,89.91
3315.00,89.91
3314.00,89.92
3313.00,89.94
3312.00,89.95
3311.00,89.95
3310.00,89.93
3309.00,89.92
3308.00,89.91
3307.00,89.91
3306.00,89.90
3305.00,89.90
3304.00,89.88
3303.00,89.87
3302.00,89.88
3301.00,89.89
3300.00,89.91
3299.00,89.92
3298.00,89.93
3297.00,89.93
3296.00,89.94
3295.00,89.95
3294.00,89.95
3293.00,89.95
3292.00,89.96
3291.00,89.97
3290.00,89.97
3289.00,89.97
3288.00,89.97
3287.00,89.97
3286.00,89.97
3285.00,89.97
3284.00,89.98
3283.00,90.00
3282.00,90.03
3281.00,90.06
3280.00,90.07
3279.00,90.08
3278.00,90.10
3277.00,90.11
3276.00,90.13
3275.00,90.17
3274.00,90.22
3273.00,90.28
3272.00,90.34
3271.00,90.39
3270.00,90.43
3269.00,90.46
3268.00,90.48
3267.00,90.50
3266.00,90.53
3265.00,90.57
3264.00,90.63
3263.00,90.70
3262.00,90.76
3261.00,90.82
3260.00,90.87
3259.00,90.93
3258.00,90.98
3257.00,91.02
3256.00,91.06
3255.00,91.10
3254.00,91.16
3253.00,91.24
3252.00,91.31
3251.00,91.37
3250.00,91.40
3249.00,91.42
3248.00,91.45
3247.00,91.50
3246.00,91.55
3245.00,91.59
3244.00,91.63
3243.00,91.66
3242.00,91.70
3241.00,91.75
3240.00,91.80
3239.00,91.85
3238.00,91.89
3237.00,91.92
3236.00,91.96
3235.00,92.00
3234.00,92.04
3233.00,92.08
3232.00,92.11
3231.00,92.15
3230.00,92.19
3229.00,92.24
3228.00,92.30
3227.00,92.36
3226.00,92.41
3225.00,92.46
3224.00,92.51
3223.00,92.57
3222.00,92.63
3221.00,92.68
3220.00,92.74
3219.00,92.78
3218.00,92.80
3217.00,92.81
3216.00,92.84
3215.00,92.88
3214.00,92.94
3213.00,93.01
3212.00,93.06
3211.00,93.10
3210.00,93.15
3209.00,93.20
3208.00,93.25
3207.00,93.30
3206.00,93.35
3205.00,93.39
3204.00,93.44
3203.00,93.48
3202.00,93.54
3201.00,93.59
3200.00,93.65
3199.00,93.70
3198.00,93.75
3197.00,93.80
3196.00,93.84
3195.00,93.89
3194.00,93.94
3193.00,93.99
3192.00,94.04
3191.00,94.07
3190.00,94.09
3189.00,94.11
3188.00,94.14
3187.00,94.18
3186.00,94.22
3185.00,94.25
3184.00,94.29
3183.00,94.34
3182.00,94.40
3181.00,94.46
3180.00,94.51
3179.00,94.54
3178.00,94.56
3177.00,94.59
3176.00,94.63
3175.00,94.68
3174.00,94.74
3173.00,94.79
3172.00,94.85
3171.00,94.90
3170.00,94.93
3169.00,94.94
3168.00,94.94
3167.00,94.94
3166.00,94.97
3165.00,95.01
3164.00,95.07
3163.00,95.12
3162.00,95.19
3161.00,95.25
3160.00,95.31
3159.00,95.34
3158.00,95.36
3157.00,95.39
3156.00,95.42
3155.00,95.47
3154.00,95.52
3153.00,95.57
3152.00,95.60
3151.00,95.64
3150.00,95.66
3149.00,95.68
3148.00,95.70
3147.00,95.73
3146.00,95.76
3145.00,95.81
3144.00,95.86
3143.00,95.89
3142.00,95.91
3141.00,95.92
3140.00,95.94
3139.00,95.98
3138.00,96.03
3137.00,96.08
3136.00,96.12
3135.00,96.14
3134.00,96.15
3133.00,96.17
3132.00,96.20
3131.00,96.24
3130.00,96.28
3129.00,96.32
3128.00,96.35
3127.00,96.38
3126.00,96.41
3125.00,96.45
3124.00,96.48
3123.00,96.53
3122.00,96.57
3121.00,96.60
3120.00,96.63
3119.00,96.64
3118.00,96.66
3117.00,96.68
3116.00,96.71
3115.00,96.73
3114.00,96.76
3113.00,96.79
3112.00,96.81
3111.00,96.83
3110.00,96.83
3109.00,96.84
3108.00,96.87
3107.00,96.90
3106.00,96.94
3105.00,96.99
3104.00,97.04
3103.00,97.09
3102.00,97.11
3101.00,97.12
3100.00,97.13
3099.00,97.15
3098.00,97.18
3097.00,97.22
3096.00,97.25
3095.00,97.28
3094.00,97.30
3093.00,97.31
3092.00,97.33
3091.00,97.34
3090.00,97.36
3089.00,97.38
3088.00,97.41
3087.00,97.44
3086.00,97.47
3085.00,97.49
3084.00,97.52
3083.00,97.55
3082.00,97.58
3081.00,97.61
3080.00,97.62
3079.00,97.64
3078.00,97.66
3077.00,97.68
3076.00,97.70
3075.00,97.72
3074.00,97.75
3073.00,97.77
3072.00,97.79
3071.00,97.81
3070.00,97.83
3069.00,97.85
3068.00,97.88
3067.00,97.90
3066.00,97.93
3065.00,97.97
3064.00,98.01
3063.00,98.05
3062.00,98.07
3061.00,98.08
3060.00,98.07
3059.00,98.06
3058.00,98.07
3057.00,98.11
3056.00,98.15
3055.00,98.18
3054.00,98.19
3053.00,98.19
3052.00,98.19
3051.00,98.20
3050.00,98.22
3049.00,98.25
3048.00,98.29
3047.00,98.32
3046.00,98.35
3045.00,98.37
3044.00,98.38
3043.00,98.38
3042.00,98.40
3041.00,98.42
3040.00,98.44
3039.00,98.46
3038.00,98.48
3037.00,98.49
3036.00,98.49
3035.00,98.49
3034.00,98.48
3033.00,98.49
3032.00,98.52
3031.00,98.57
3030.00,98.61
3029.00,98.63
3028.00,98.63
3027.00,98.64
3026.00,98.65
3025.00,98.68
3024.00,98.70
3023.00,98.72
3022.00,98.73
3021.00,98.74
3020.00,98.75
3019.00,98.75
3018.00,98.76
3017.00,98.77
3016.00,98.78
3015.00,98.80
3014.00,98.83
3013.00,98.85
3012.00,98.86
3011.00,98.86
3010.00,98.85
3009.00,98.86
3008.00,98.86
3007.00,98.87
3006.00,98.88
3005.00,98.89
3004.00,98.91
3003.00,98.92
3002.00,98.93
3001.00,98.94
3000.00,98.95
2999.00,98.97
2998.00,98.98
2997.00,98.98
2996.00,98.97
2995.00,98.95
2994.00,98.94
2993.00,98.94
2992.00,98.95
2991.00,98.94
2990.00,98.93
2989.00,98.91
2988.00,98.89
2987.00,98.87
2986.00,98.87
2985.00,98.86
2984.00,98.86
2983.00,98.84
2982.00,98.82
2981.00,98.79
2980.00,98.76
2979.00,98.73
2978.00,98.70
2977.00,98.66
2976.00,98.62
2975.00,98.57
2974.00,98.52
2973.00,98.48
2972.00,98.44
2971.00,98.42
2970.00,98.41
2969.00,98.40
2968.00,98.40
2967.00,98.39
2966.00,98.37
2965.00,98.33
2964.00,98.29
2963.00,98.25
2962.00,98.20
2961.00,98.16
2960.00,98.12
2959.00,98.09
2958.00,98.06
2957.00,98.02
2956.00,97.97
2955.00,97.92
2954.00,97.87
2953.00,97.83
2952.00,97.78
2951.00,97.74
2950.00,97.68
2949.00,97.62
2948.00,97.55
2947.00,97.47
2946.00,97.39
2945.00,97.31
2944.00,97.23
2943.00,97.16
2942.00,97.11
2941.00,97.07
2940.00,97.03
2939.00,96.99
2938.00,96.95
2937.00,96.89
2936.00,96.82
2935.00,96.73
2934.00,96.64
2933.00,96.54
2932.00,96.42
2931.00,96.29
2930.00,96.13
2929.00,95.96
2928.00,95.77
2927.00,95.58
2926.00,95.36
2925.00,95.11
2924.00,94.84
2923.00,94.58
2922.00,94.33
2921.00,94.12
2920.00,93.97
2919.00,93.89
2918.00,93.92
2917.00,94.05
2916.00,94.30
2915.00,94.62
2914.00,94.97
2913.00,95.27
2912.00,95.51
2911.00,95.66
2910.00,95.73
2909.00,95.76
2908.00,95.75
2907.00,95.74
2906.00,95.73
2905.00,95.73
2904.00,95.73
2903.00,95.71
2902.00,95.70
2901.00,95.68
2900.00,95.66
2899.00,95.66
2898.00,95.66
2897.00,95.68
2896.00,95.70
2895.00,95.73
2894.00,95.76
2893.00,95.80
2892.00,95.85
2891.00,95.90
2890.00,95.95
2889.00,95.99
2888.00,96.02
2887.00,96.05
2886.00,96.08
2885.00,96.13
2884.00,96.18
2883.00,96.23
2882.00,96.27
2881.00,96.29
2880.00,96.31
2879.00,96.34
2878.00,96.37
2877.00,96.40
2876.00,96.42
2875.00,96.44
2874.00,96.45
2873.00,96.47
2872.00,96.51
2871.00,96.55
2870.00,96.58
2869.00,96.60
2868.00,96.60
2867.00,96.59
2866.00,96.59
2865.00,96.59
2864.00,96.61
2863.00,96.63
2862.00,96.64
2861.00,96.63
2860.00,96.59
2859.00,96.54
2858.00,96.47
2857.00,96.38
2856.00,96.25
2855.00,96.08
2854.00,95.87
2853.00,95.63
2852.00,95.43
2851.00,95.35
2850.00,95.47
2849.00,95.80
2848.00,96.28
2847.00,96.80
2846.00,97.24
2845.00,97.57
2844.00,97.78
2843.00,97.91
2842.00,98.00
2841.00,98.06
2840.00,98.10
2839.00,98.13
2838.00,98.15
2837.00,98.17
2836.00,98.19
2835.00,98.21
2834.00,98.24
2833.00,98.26
2832.00,98.28
2831.00,98.30
2830.00,98.32
2829.00,98.34
2828.00,98.35
2827.00,98.37
2826.00,98.40
2825.00,98.43
2824.00,98.46
2823.00,98.47
2822.00,98.48
2821.00,98.50
2820.00,98.52
2819.00,98.54
2818.00,98.57
2817.00,98.60
2816.00,98.64
2815.00,98.68
2814.00,98.71
2813.00,98.73
2812.00,98.74
2811.00,98.76
2810.00,98.77
2809.00,98.78
2808.00,98.78
2807.00,98.78
2806.00,98.78
2805.00,98.79
2804.00,98.80
2803.00,98.82
2802.00,98.84
2801.00,98.86
2800.00,98.89
2799.00,98.91
2798.00,98.92
2797.00,98.93
2796.00,98.94
2795.00,98.95
2794.00,98.96
2793.00,98.98
2792.00,98.98
2791.00,98.99
2790.00,98.99
2789.00,98.99
2788.00,99.00
2787.00,99.01
2786.00,99.02
2785.00,99.03
2784.00,99.05
2783.00,99.07
2782.00,99.10
2781.00,99.11
2780.00,99.11
2779.00,99.11
2778.00,99.12
2777.00,99.13
2776.00,99.14
2775.00,99.15
2774.00,99.15
2773.00,99.15
2772.00,99.15
2771.00,99.16
2770.00,99.19
2769.00,99.22
2768.00,99.24
2767.00,99.25
2766.00,99.24
2765.00,99.23
2764.00,99.23
2763.00,99.23
2762.00,99.25
2761.00,99.26
2760.00,99.27
2759.00,99.26
2758.00,99.25
2757.00,99.24
2756.00,99.23
2755.00,99.24
2754.00,99.25
2753.00,99.27
2752.00,99.28
2751.00,99.27
2750.00,99.26
2749.00,99.24
2748.00,99.24
2747.00,99.25
2746.00,99.27
2745.00,99.28
2744.00,99.27
2743.00,99.27
2742.00,99.26
2741.00,99.26
2740.00,99.26
2739.00,99.26
2738.00,99.26
2737.00,99.26
2736.00,99.26
2735.00,99.25
2734.00,99.25
2733.00,99.26
2732.00,99.26
2731.00,99.27
2730.00,99.28
2729.00,99.29
2728.00,99.31
2727.00,99.32
2726.00,99.33
2725.00,99.34
2724.00,99.35
2723.00,99.36
2722.00,99.37
2721.00,99.38
2720.00,99.38
2719.00,99.39
2718.00,99.39
2717.00,99.40
2716.00,99.40
2715.00,99.41
2714.00,99.42
2713.00,99.43
2712.00,99.44
2711.00,99.45
2710.00,99.45
2709.00,99.45
2708.00,99.44
2707.00,99.44
2706.00,99.46
2705.00,99.48
2704.00,99.49
2703.00,99.50
2702.00,99.49
2701.00,99.49
2700.00,99.48
2699.00,99.48
2698.00,99.48
2697.00,99.48
2696.00,99.48
2695.00,99.48
2694.00,99.48
2693.00,99.49
2692.00,99.50
2691.00,99.51
2690.00,99.51
2689.00,99.52
2688.00,99.53
2687.00,99.54
2686.00,99.55
2685.00,99.55
2684.00,99.55
2683.00,99.55
2682.00,99.54
2681.00,99.54
2680.00,99.55
2679.00,99.55
2678.00,99.56
2677.00,99.57
2676.00,99.59
2675.00,99.61
2674.00,99.64
2673.00,99.65
2672.00,99.66
2671.00,99.66
2670.00,99.66
2669.00,99.67
2668.00,99.68
2667.00,99.68
2666.00,99.67
2665.00,99.66
2664.00,99.64
2663.00,99.62
2662.00,99.62
2661.00,99.61
2660.00,99.61
2659.00,99.62
2658.00,99.63
2657.00,99.64
2656.00,99.65
2655.00,99.65
2654.00,99.64
2653.00,99.63
2652.00,99.63
2651.00,99.63
2650.00,99.64
2649.00,99.64
2648.00,99.63
2647.00,99.63
2646.00,99.62
2645.00,99.62
2644.00,99.61
2643.00,99.61
2642.00,99.60
2641.00,99.60
2640.00,99.59
2639.00,99.59
2638.00,99.59
2637.00,99.59
2636.00,99.60
2635.00,99.60
2634.00,99.60
2633.00,99.60
2632.00,99.60
2631.00,99.61
2630.00,99.62
2629.00,99.62
2628.00,99.62
2627.00,99.62
2626.00,99.64
2625.00,99.65
2624.00,99.66
2623.00,99.65
2622.00,99.64
2621.00,99.64
2620.00,99.64
2619.00,99.65
2618.00,99.65
2617.00,99.65
2616.00,99.63
2615.00,99.61
2614.00,99.60
2613.00,99.59
2612.00,99.61
2611.00,99.64
2610.00,99.67
2609.00,99.68
2608.00,99.68
2607.00,99.67
2606.00,99.67
2605.00,99.66
2604.00,99.66
2603.00,99.65
2602.00,99.65
2601.00,99.66
2600.00,99.66
2599.00,99.65
2598.00,99.65
2597.00,99.65
2596.00,99.66
2595.00,99.67
2594.00,99.67
2593.00,99.67
2592.00,99.66
2591.00,99.65
2590.00,99.63
2589.00,99.62
2588.00,99.62
2587.00,99.63
2586.00,99.64
2585.00,99.65
2584.00,99.64
2583.00,99.63
2582.00,99.64
2581.00,99.66
2580.00,99.69
2579.00,99.70
2578.00,99.69
2577.00,99.68
2576.00,99.68
2575.00,99.69
2574.00,99.69
2573.00,99.69
2572.00,99.67
2571.00,99.66
2570.00,99.64
2569.00,99.64
2568.00,99.64
2567.00,99.65
2566.00,99.68
2565.00,99.70
2564.00,99.71
2563.00,99.71
2562.00,99.70
2561.00,99.68
2560.00,99.66
2559.00,99.65
2558.00,99.64
2557.00,99.65
2556.00,99.67
2555.00,99.68
2554.00,99.69
2553.00,99.69
2552.00,99.67
2551.00,99.66
2550.00,99.64
2549.00,99.63
2548.00,99.62
2547.00,99.61
2546.00,99.61
2545.00,99.62
2544.00,99.64
2543.00,99.66
2542.00,99.67
2541.00,99.67
2540.00,99.68
2539.00,99.68
2538.00,99.67
2537.00,99.66
2536.00,99.66
2535.00,99.67
2534.00,99.69
2533.00,99.70
2532.00,99.71
2531.00,99.72
2530.00,99.71
2529.00,99.70
2528.00,99.69
2527.00,99.70
2526.00,99.70
2525.00,99.70
2524.00,99.69
2523.00,99.68
2522.00,99.68
2521.00,99.68
2520.00,99.69
2519.00,99.69
2518.00,99.69
2517.00,99.67
2516.00,99.66
2515.00,99.65
2514.00,99.66
2513.00,99.67
2512.00,99.69
2511.00,99.70
2510.00,99.70
2509.00,99.70
2508.00,99.70
2507.00,99.71
2506.00,99.72
2505.00,99.72
2504.00,99.72
2503.00,99.72
2502.00,99.72
2501.00,99.72
2500.00,99.73
2499.00,99.75
2498.00,99.76
2497.00,99.77
2496.00,99.77
2495.00,99.78
2494.00,99.78
2493.00,99.80
2492.00,99.81
2491.00,99.83
2490.00,99.83
2489.00,99.82
2488.00,99.80
2487.00,99.77
2486.00,99.76
2485.00,99.76
2484.00,99.76
2483.00,99.75
2482.00,99.74
2481.00,99.74
2480.00,99.74
2479.00,99.76
2478.00,99.78
2477.00,99.80
2476.00,99.82
2475.00,99.83
2474.00,99.84
2473.00,99.83
2472.00,99.82
2471.00,99.80
2470.00,99.80
2469.00,99.80
2468.00,99.82
2467.00,99.84
2466.00,99.85
2465.00,99.86
2464.00,99.85
2463.00,99.83
2462.00,99.81
2461.00,99.79
2460.00,99.79
2459.00,99.80
2458.00,99.81
2457.00,99.81
2456.00,99.80
2455.00,99.80
2454.00,99.81
2453.00,99.85
2452.00,99.88
2451.00,99.90
2450.00,99.89
2449.00,99.87
2448.00,99.86
2447.00,99.87
2446.00,99.89
2445.00,99.91
2444.00,99.93
2443.00,99.93
2442.00,99.92
2441.00,99.91
2440.00,99.90
2439.00,99.90
2438.00,99.90
2437.00,99.91
2436.00,99.92
2435.00,99.93
2434.00,99.92
2433.00,99.91
2432.00,99.90
2431.00,99.91
2430.00,99.93
2429.00,99.96
2428.00,99.97
2427.00,99.96
2426.00,99.93
2425.00,99.91
2424.00,99.91
2423.00,99.93
2422.00,99.94
2421.00,99.94
2420.00,99.92
2419.00,99.91
2418.00,99.91
2417.00,99.92
2416.00,99.94
2415.00,99.96
2414.00,99.98
2413.00,99.99
2412.00,99.98
2411.00,99.97
2410.00,99.95
2409.00,99.93
2408.00,99.94
2407.00,99.97
2406.00,100.00
2405.00,100.02
2404.00,100.05
2403.00,100.07
2402.00,100.09
2401.00,100.08
2400.00,100.05
2399.00,100.02
2398.00,100.01
2397.00,100.01
2396.00,100.02
2395.00,100.03
2394.00,100.03
2393.00,100.02
2392.00,100.02
2391.00,100.04
2390.00,100.06
2389.00,100.08
2388.00,100.09
2387.00,100.10
2386.00,100.10
2385.00,100.11
2384.00,100.13
2383.00,100.14
2382.00,100.14
2381.00,100.15
2380.00,100.18
2379.00,100.21
2378.00,100.24
2377.00,100.25
2376.00,100.24
2375.00,100.21
2374.00,100.18
2373.00,100.15
2372.00,100.15
2371.00,100.16
2370.00,100.19
2369.00,100.20
2368.00,100.18
2367.00,100.16
2366.00,100.17
2365.00,100.19
2364.00,100.21
2363.00,100.22
2362.00,100.22
2361.00,100.20
2360.00,100.17
2359.00,100.09
2358.00,100.00
2357.00,99.95
2356.00,99.95
2355.00,100.02
2354.00,100.10
2353.00,100.16
2352.00,100.17
2351.00,100.16
2350.00,100.16
2349.00,100.19
2348.00,100.25
2347.00,100.31
2346.00,100.34
2345.00,100.32
2344.00,100.28
2343.00,100.22
2342.00,100.16
2341.00,100.14
2340.00,100.15
2339.00,100.17
2338.00,100.17
2337.00,100.16
2336.00,100.14
2335.00,100.13
2334.00,100.13
2333.00,100.12
2332.00,100.12
2331.00,100.12
2330.00,100.14
2329.00,100.15
2328.00,100.13
2327.00,100.09
2326.00,100.04
2325.00,100.02
2324.00,100.01
2323.00,100.01
2322.00,100.01
2321.00,100.00
2320.00,99.99
2319.00,100.01
2318.00,100.01
2317.00,100.01
2316.00,100.01
2315.00,100.01
2314.00,100.00
2313.00,99.99
2312.00,99.97
2311.00,99.97
2310.00,99.98
2309.00,100.01
2308.00,100.02
2307.00,100.00
2306.00,99.96
2305.00,99.92
2304.00,99.90
2303.00,99.90
2302.00,99.91
2301.00,99.91
2300.00,99.89
2299.00,99.87
2298.00,99.86
2297.00,99.84
2296.00,99.84
2295.00,99.83
2294.00,99.82
2293.00,99.81
2292.00,99.79
2291.00,99.77
2290.00,99.76
2289.00,99.74
2288.00,99.74
2287.00,99.74
2286.00,99.72
2285.00,99.70
2284.00,99.67
2283.00,99.65
2282.00,99.63
2281.00,99.61
2280.00,99.59
2279.00,99.58
2278.00,99.59
2277.00,99.60
2276.00,99.60
2275.00,99.58
2274.00,99.56
2273.00,99.56
2272.00,99.59
2271.00,99.61
2270.00,99.61
2269.00,99.58
2268.00,99.55
2267.00,99.53
2266.00,99.53
2265.00,99.52
2264.00,99.51
2263.00,99.49
2262.00,99.47
2261.00,99.45
2260.00,99.41
2259.00,99.38
2258.00,99.37
2257.00,99.37
2256.00,99.37
2255.00,99.37
2254.00,99.38
2253.00,99.41
2252.00,99.45
2251.00,99.46
2250.00,99.44
2249.00,99.40
2248.00,99.37
2247.00,99.35
2246.00,99.35
2245.00,99.36
2244.00,99.37
2243.00,99.39
2242.00,99.41
2241.00,99.40
2240.00,99.36
2239.00,99.30
2238.00,99.26
2237.00,99.24
2236.00,99.25
2235.00,99.27
2234.00,99.30
2233.00,99.31
2232.00,99.31
2231.00,99.30
2230.00,99.28
2229.00,99.24
2228.00,99.18
2227.00,99.15
2226.00,99.16
2225.00,99.18
2224.00,99.18
2223.00,99.17
2222.00,99.16
2221.00,99.18
2220.00,99.19
2219.00,99.21
2218.00,99.21
2217.00,99.20
2216.00,99.17
2215.00,99.15
2214.00,99.14
2213.00,99.14
2212.00,99.15
2211.00,99.15
2210.00,99.15
2209.00,99.15
2208.00,99.15
2207.00,99.14
2206.00,99.10
2205.00,99.05
2204.00,99.02
2203.00,99.02
2202.00,99.03
2201.00,99.01
2200.00,98.98
2199.00,98.97
2198.00,98.98
2197.00,99.00
2196.00,99.01
2195.00,99.00
2194.00,98.98
2193.00,98.96
2192.00,98.93
2191.00,98.90
2190.00,98.87
2189.00,98.83
2188.00,98.78
2187.00,98.73
2186.00,98.71
2185.00,98.70
2184.00,98.69
2183.00,98.65
2182.00,98.61
2181.00,98.60
2180.00,98.65
2179.00,98.71
2178.00,98.77
2177.00,98.79
2176.00,98.79
2175.00,98.79
2174.00,98.79
2173.00,98.75
2172.00,98.70
2171.00,98.65
2170.00,98.63
2169.00,98.62
2168.00,98.60
2167.00,98.57
2166.00,98.58
2165.00,98.61
2164.00,98.63
2163.00,98.59
2162.00,98.52
2161.00,98.51
2160.00,98.58
2159.00,98.67
2158.00,98.74
2157.00,98.79
2156.00,98.84
2155.00,98.89
2154.00,98.94
2153.00,99.00
2152.00,99.09
2151.00,99.17
2150.00,99.21
2149.00,99.18
2148.00,99.11
2147.00,99.05
2146.00,99.04
2145.00,99.07
2144.00,99.11
2143.00,99.15
2142.00,99.20
2141.00,99.23
2140.00,99.23
2139.00,99.21
2138.00,99.17
2137.00,99.14
2136.00,99.14
2135.00,99.16
2134.00,99.21
2133.00,99.27
2132.00,99.35
2131.00,99.43
2130.00,99.49
2129.00,99.52
2128.00,99.51
2127.00,99.50
2126.00,99.51
2125.00,99.52
2124.00,99.50
2123.00,99.48
2122.00,99.44
2121.00,99.40
2120.00,99.37
2119.00,99.36
2118.00,99.35
2117.00,99.35
2116.00,99.33
2115.00,99.29
2114.00,99.26
2113.00,99.25
2112.00,99.27
2111.00,99.31
2110.00,99.35
2109.00,99.36
2108.00,99.36
2107.00,99.34
2106.00,99.33
2105.00,99.32
2104.00,99.31
2103.00,99.32
2102.00,99.34
2101.00,99.34
2100.00,99.34
2099.00,99.32
2098.00,99.31
2097.00,99.30
2096.00,99.31
2095.00,99.32
2094.00,99.34
2093.00,99.35
2092.00,99.36
2091.00,99.36
2090.00,99.36
2089.00,99.35
2088.00,99.33
2087.00,99.30
2086.00,99.26
2085.00,99.26
2084.00,99.29
2083.00,99.33
2082.00,99.34
2081.00,99.32
2080.00,99.30
2079.00,99.29
2078.00,99.29
2077.00,99.29
2076.00,99.28
2075.00,99.27
2074.00,99.27
2073.00,99.28
2072.00,99.26
2071.00,99.22
2070.00,99.18
2069.00,99.15
2068.00,99.15
2067.00,99.16
2066.00,99.18
2065.00,99.21
2064.00,99.24
2063.00,99.26
2062.00,99.27
2061.00,99.26
2060.00,99.23
2059.00,99.19
2058.00,99.12
2057.00,99.06
2056.00,99.04
2055.00,99.06
2054.00,99.09
2053.00,99.07
2052.00,99.01
2051.00,98.95
2050.00,98.93
2049.00,98.93
2048.00,98.92
2047.00,98.92
2046.00,98.90
2045.00,98.89
2044.00,98.87
2043.00,98.87
2042.00,98.85
2041.00,98.81
2040.00,98.72
2039.00,98.62
2038.00,98.57
2037.00,98.56
2036.00,98.59
2035.00,98.64
2034.00,98.70
2033.00,98.77
2032.00,98.82
2031.00,98.81
2030.00,98.76
2029.00,98.69
2028.00,98.65
2027.00,98.67
2026.00,98.74
2025.00,98.83
2024.00,98.89
2023.00,98.91
2022.00,98.89
2021.00,98.86
2020.00,98.82
2019.00,98.82
2018.00,98.85
2017.00,98.92
2016.00,99.00
2015.00,99.05
2014.00,99.03
2013.00,98.97
2012.00,98.88
2011.00,98.82
2010.00,98.79
2009.00,98.80
2008.00,98.84
2007.00,98.91
2006.00,98.97
2005.00,98.99
2004.00,98.98
2003.00,98.95
2002.00,98.93
2001.00,98.92
2000.00,98.92
1999.00,98.94
1998.00,98.98
1997.00,99.00
1996.00,99.02
1995.00,99.06
1994.00,99.12
1993.00,99.16
1992.00,99.16
1991.00,99.09
1990.00,99.01
1989.00,98.95
1988.00,98.94
1987.00,98.97
1986.00,99.01
1985.00,99.05
1984.00,99.05
1983.00,99.00
1982.00,98.91
1981.00,98.80
1980.00,98.73
1979.00,98.74
1978.00,98.80
1977.00,98.87
1976.00,98.93
1975.00,98.96
1974.00,98.98
1973.00,98.99
1972.00,99.01
1971.00,99.04
1970.00,99.08
1969.00,99.09
1968.00,99.06
1967.00,98.99
1966.00,98.95
1965.00,98.95
1964.00,99.00
1963.00,99.07
1962.00,99.12
1961.00,99.16
1960.00,99.21
1959.00,99.29
1958.00,99.39
1957.00,99.48
1956.00,99.52
1955.00,99.51
1954.00,99.48
1953.00,99.47
1952.00,99.48
1951.00,99.52
1950.00,99.53
1949.00,99.50
1948.00,99.45
1947.00,99.41
1946.00,99.40
1945.00,99.41
1944.00,99.44
1943.00,99.47
1942.00,99.48
1941.00,99.50
1940.00,99.53
1939.00,99.58
1938.00,99.60
1937.00,99.59
1936.00,99.58
1935.00,99.59
1934.00,99.61
1933.00,99.64
1932.00,99.66
1931.00,99.68
1930.00,99.71
1929.00,99.73
1928.00,99.72
1927.00,99.70
1926.00,99.65
1925.00,99.62
1924.00,99.61
1923.00,99.63
1922.00,99.67
1921.00,99.70
1920.00,99.71
1919.00,99.70
1918.00,99.69
1917.00,99.69
1916.00,99.69
1915.00,99.70
1914.00,99.70
1913.00,99.71
1912.00,99.71
1911.00,99.73
1910.00,99.76
1909.00,99.80
1908.00,99.81
1907.00,99.82
1906.00,99.81
1905.00,99.81
1904.00,99.82
1903.00,99.84
1902.00,99.86
1901.00,99.87
1900.00,99.86
1899.00,99.85
1898.00,99.85
1897.00,99.85
1896.00,99.85
1895.00,99.83
1894.00,99.81
1893.00,99.78
1892.00,99.76
1891.00,99.76
1890.00,99.78
1889.00,99.80
1888.00,99.82
1887.00,99.85
1886.00,99.86
1885.00,99.87
1884.00,99.88
1883.00,99.89
1882.00,99.88
1881.00,99.87
1880.00,99.85
1879.00,99.83
1878.00,99.82
1877.00,99.82
1876.00,99.83
1875.00,99.86
1874.00,99.88
1873.00,99.89
1872.00,99.88
1871.00,99.88
1870.00,99.89
1869.00,99.90
1868.00,99.89
1867.00,99.86
1866.00,99.83
1865.00,99.81
1864.00,99.82
1863.00,99.84
1862.00,99.85
1861.00,99.84
1860.00,99.83
1859.00,99.83
1858.00,99.84
1857.00,99.86
1856.00,99.87
1855.00,99.88
1854.00,99.90
1853.00,99.92
1852.00,99.94
1851.00,99.94
1850.00,99.92
1849.00,99.91
1848.00,99.91
1847.00,99.92
1846.00,99.93
1845.00,99.92
1844.00,99.89
1843.00,99.86
1842.00,99.86
1841.00,99.88
1840.00,99.91
1839.00,99.94
1838.00,99.96
1837.00,99.95
1836.00,99.94
1835.00,99.93
1834.00,99.93
1833.00,99.93
1832.00,99.93
1831.00,99.93
1830.00,99.93
1829.00,99.91
1828.00,99.90
1827.00,99.89
1826.00,99.90
1825.00,99.90
1824.00,99.89
1823.00,99.88
1822.00,99.87
1821.00,99.86
1820.00,99.88
1819.00,99.92
1818.00,99.95
1817.00,99.97
1816.00,99.96
1815.00,99.94
1814.00,99.94
1813.00,99.94
1812.00,99.94
1811.00,99.93
1810.00,99.93
1809.00,99.93
1808.00,99.93
1807.00,99.94
1806.00,99.94
1805.00,99.93
1804.00,99.92
1803.00,99.92
1802.00,99.90
1801.00,99.89
1800.00,99.88
1799.00,99.89
1798.00,99.91
1797.00,99.92
1796.00,99.91
1795.00,99.89
1794.00,99.88
1793.00,99.88
1792.00,99.88
1791.00,99.88
1790.00,99.88
1789.00,99.87
1788.00,99.86
1787.00,99.85
1786.00,99.84
1785.00,99.83
1784.00,99.82
1783.00,99.82
1782.00,99.82
1781.00,99.84
1780.00,99.84
1779.00,99.84
1778.00,99.83
1777.00,99.81
1776.00,99.79
1775.00,99.79
1774.00,99.78
1773.00,99.76
1772.00,99.72
1771.00,99.68
1770.00,99.67
1769.00,99.65
1768.00,99.63
1767.00,99.61
1766.00,99.59
1765.00,99.58
1764.00,99.56
1763.00,99.54
1762.00,99.53
1761.00,99.52
1760.00,99.51
1759.00,99.50
1758.00,99.48
1757.00,99.46
1756.00,99.42
1755.00,99.38
1754.00,99.34
1753.00,99.31
1752.00,99.26
1751.00,99.21
1750.00,99.14
1749.00,99.06
1748.00,98.98
1747.00,98.91
1746.00,98.85
1745.00,98.79
1744.00,98.69
1743.00,98.58
1742.00,98.46
1741.00,98.34
1740.00,98.22
1739.00,98.11
1738.00,98.03
1737.00,97.97
1736.00,97.94
1735.00,97.93
1734.00,97.94
1733.00,97.94
1732.00,97.94
1731.00,97.95
1730.00,97.97
1729.00,98.00
1728.00,98.03
1727.00,98.06
1726.00,98.08
1725.00,98.10
1724.00,98.10
1723.00,98.10
1722.00,98.10
1721.00,98.10
1720.00,98.10
1719.00,98.11
1718.00,98.14
1717.00,98.17
1716.00,98.19
1715.00,98.19
1714.00,98.18
1713.00,98.18
1712.00,98.18
1711.00,98.18
1710.00,98.19
1709.00,98.19
1708.00,98.19
1707.00,98.19
1706.00,98.19
1705.00,98.19
1704.00,98.19
1703.00,98.17
1702.00,98.16
1701.00,98.16
1700.00,98.16
1699.00,98.16
1698.00,98.16
1697.00,98.14
1696.00,98.11
1695.00,98.08
1694.00,98.07
1693.00,98.06
1692.00,98.04
1691.00,98.02
1690.00,97.99
1689.00,97.95
1688.00,97.91
1687.00,97.88
1686.00,97.83
1685.00,97.78
1684.00,97.71
1683.00,97.67
1682.00,97.63
1681.00,97.59
1680.00,97.52
1679.00,97.45
1678.00,97.37
1677.00,97.28
1676.00,97.20
1675.00,97.14
1674.00,97.09
1673.00,97.05
1672.00,96.99
1671.00,96.92
1670.00,96.85
1669.00,96.80
1668.00,96.74
1667.00,96.67
1666.00,96.60
1665.00,96.51
1664.00,96.43
1663.00,96.35
1662.00,96.28
1661.00,96.22
1660.00,96.16
1659.00,96.10
1658.00,96.03
1657.00,95.95
1656.00,95.87
1655.00,95.78
1654.00,95.72
1653.00,95.69
1652.00,95.68
1651.00,95.65
1650.00,95.61
1649.00,95.56
1648.00,95.50
1647.00,95.46
1646.00,95.44
1645.00,95.44
1644.00,95.44
1643.00,95.43
1642.00,95.42
1641.00,95.39
1640.00,95.35
1639.00,95.30
1638.00,95.26
1637.00,95.22
1636.00,95.18
1635.00,95.16
1634.00,95.16
1633.00,95.17
1632.00,95.16
1631.00,95.16
1630.00,95.16
1629.00,95.16
1628.00,95.14
1627.00,95.12
1626.00,95.09
1625.00,95.07
1624.00,95.07
1623.00,95.09
1622.00,95.11
1621.00,95.13
1620.00,95.14
1619.00,95.15
1618.00,95.17
1617.00,95.19
1616.00,95.19
1615.00,95.19
1614.00,95.18
1613.00,95.18
1612.00,95.19
1611.00,95.21
1610.00,95.23
1609.00,95.25
1608.00,95.27
1607.00,95.29
1606.00,95.31
1605.00,95.33
1604.00,95.35
1603.00,95.37
1602.00,95.40
1601.00,95.44
1600.00,95.48
1599.00,95.51
1598.00,95.54
1597.00,95.56
1596.00,95.59
1595.00,95.64
1594.00,95.69
1593.00,95.74
1592.00,95.80
1591.00,95.87
1590.00,95.93
1589.00,95.99
1588.00,96.04
1587.00,96.10
1586.00,96.17
1585.00,96.24
1584.00,96.30
1583.00,96.35
1582.00,96.40
1581.00,96.45
1580.00,96.49
1579.00,96.54
1578.00,96.61
1577.00,96.69
1576.00,96.78
1575.00,96.85
1574.00,96.89
1573.00,96.92
1572.00,96.95
1571.00,96.99
1570.00,97.05
1569.00,97.10
1568.00,97.15
1567.00,97.19
1566.00,97.22
1565.00,97.26
1564.00,97.29
1563.00,97.32
1562.00,97.33
1561.00,97.32
1560.00,97.36
1559.00,97.43
1558.00,97.48
1557.00,97.50
1556.00,97.50
1555.00,97.50
1554.00,97.51
1553.00,97.53
1552.00,97.55
1551.00,97.57
1550.00,97.59
1549.00,97.60
1548.00,97.61
1547.00,97.62
1546.00,97.63
1545.00,97.65
1544.00,97.66
1543.00,97.67
1542.00,97.67
1541.00,97.69
1540.00,97.72
1539.00,97.76
1538.00,97.79
1537.00,97.81
1536.00,97.82
1535.00,97.83
1534.00,97.86
1533.00,97.90
1532.00,97.93
1531.00,97.95
1530.00,97.96
1529.00,97.97
1528.00,97.99
1527.00,98.02
1526.00,98.05
1525.00,98.05
1524.00,98.04
1523.00,98.02
1522.00,98.02
1521.00,98.04
1520.00,98.06
1519.00,98.06
1518.00,98.08
1517.00,98.09
1516.00,98.10
1515.00,98.10
1514.00,98.12
1513.00,98.13
1512.00,98.14
1511.00,98.14
1510.00,98.14
1509.00,98.15
1508.00,98.17
1507.00,98.19
1506.00,98.19
1505.00,98.19
1504.00,98.19
1503.00,98.19
1502.00,98.19
1501.00,98.17
1500.00,98.14
1499.00,98.12
1498.00,98.11
1497.00,98.11
1496.00,98.10
1495.00,98.09
1494.00,98.06
1493.00,98.04
1492.00,98.00
1491.00,97.96
1490.00,97.91
1489.00,97.86
1488.00,97.79
1487.00,97.71
1486.00,97.62
1485.00,97.54
1484.00,97.47
1483.00,97.40
1482.00,97.32
1481.00,97.24
1480.00,97.16
1479.00,97.09
1478.00,97.03
1477.00,96.95
1476.00,96.87
1475.00,96.79
1474.00,96.74
1473.00,96.68
1472.00,96.61
1471.00,96.53
1470.00,96.45
1469.00,96.38
1468.00,96.31
1467.00,96.22
1466.00,96.13
1465.00,96.04
1464.00,95.95
1463.00,95.86
1462.00,95.76
1461.00,95.65
1460.00,95.52
1459.00,95.40
1458.00,95.29
1457.00,95.18
1456.00,95.11
1455.00,95.06
1454.00,95.00
1453.00,94.93
1452.00,94.86
1451.00,94.79
1450.00,94.74
1449.00,94.69
1448.00,94.65
1447.00,94.60
1446.00,94.55
1445.00,94.50
1444.00,94.45
1443.00,94.40
1442.00,94.32
1441.00,94.24
1440.00,94.14
1439.00,94.04
1438.00,93.91
1437.00,93.76
1436.00,93.60
1435.00,93.46
1434.00,93.33
1433.00,93.19
1432.00,93.05
1431.00,92.93
1430.00,92.83
1429.00,92.75
1428.00,92.68
1427.00,92.64
1426.00,92.63
1425.00,92.64
1424.00,92.69
1423.00,92.76
1422.00,92.83
1421.00,92.90
1420.00,93.00
1419.00,93.15
1418.00,93.28
1417.00,93.38
1416.00,93.46
1415.00,93.53
1414.00,93.62
1413.00,93.70
1412.00,93.79
1411.00,93.88
1410.00,93.95
1409.00,93.99
1408.00,94.03
1407.00,94.06
1406.00,94.11
1405.00,94.16
1404.00,94.22
1403.00,94.26
1402.00,94.30
1401.00,94.32
1400.00,94.34
1399.00,94.38
1398.00,94.41
1397.00,94.43
1396.00,94.44
1395.00,94.46
1394.00,94.48
1393.00,94.48
1392.00,94.47
1391.00,94.44
1390.00,94.40
1389.00,94.34
1388.00,94.26
1387.00,94.18
1386.00,94.07
1385.00,93.95
1384.00,93.82
1383.00,93.68
1382.00,93.53
1381.00,93.38
1380.00,93.23
1379.00,93.06
1378.00,92.89
1377.00,92.72
1376.00,92.54
1375.00,92.37
1374.00,92.19
1373.00,92.01
1372.00,91.86
1371.00,91.75
1370.00,91.69
1369.00,91.67
1368.00,91.67
1367.00,91.69
1366.00,91.70
1365.00,91.71
1364.00,91.70
1363.00,91.68
1362.00,91.69
1361.00,91.72
1360.00,91.77
1359.00,91.83
1358.00,91.89
1357.00,91.94
1356.00,92.00
1355.00,92.07
1354.00,92.15
1353.00,92.23
1352.00,92.31
1351.00,92.37
1350.00,92.40
1349.00,92.40
1348.00,92.38
1347.00,92.33
1346.00,92.25
1345.00,92.15
1344.00,92.03
1343.00,91.89
1342.00,91.74
1341.00,91.59
1340.00,91.45
1339.00,91.33
1338.00,91.23
1337.00,91.14
1336.00,91.08
1335.00,91.05
1334.00,91.04
1333.00,91.06
1332.00,91.11
1331.00,91.17
1330.00,91.23
1329.00,91.28
1328.00,91.30
1327.00,91.29
1326.00,91.26
1325.00,91.20
1324.00,91.11
1323.00,90.98
1322.00,90.84
1321.00,90.68
1320.00,90.51
1319.00,90.34
1318.00,90.16
1317.00,90.02
1316.00,89.92
1315.00,89.87
1314.00,89.89
1313.00,89.96
1312.00,90.08
1311.00,90.25
1310.00,90.45
1309.00,90.67
1308.00,90.90
1307.00,91.14
1306.00,91.38
1305.00,91.63
1304.00,91.86
1303.00,92.08
1302.00,92.28
1301.00,92.47
1300.00,92.64
1299.00,92.79
1298.00,92.91
1297.00,93.01
1296.00,93.08
1295.00,93.14
1294.00,93.18
1293.00,93.21
1292.00,93.24
1291.00,93.27
1290.00,93.29
1289.00,93.32
1288.00,93.34
1287.00,93.33
1286.00,93.29
1285.00,93.22
1284.00,93.13
1283.00,93.04
1282.00,92.97
1281.00,92.92
1280.00,92.91
1279.00,92.92
1278.00,92.94
1277.00,92.96
1276.00,92.98
1275.00,93.01
1274.00,93.05
1273.00,93.10
1272.00,93.14
1271.00,93.18
1270.00,93.22
1269.00,93.24
1268.00,93.26
1267.00,93.26
1266.00,93.26
1265.00,93.27
1264.00,93.29
1263.00,93.30
1262.00,93.32
1261.00,93.33
1260.00,93.35
1259.00,93.37
1258.00,93.40
1257.00,93.42
1256.00,93.42
1255.00,93.40
1254.00,93.37
1253.00,93.33
1252.00,93.30
1251.00,93.28
1250.00,93.26
1249.00,93.24
1248.00,93.23
1247.00,93.23
1246.00,93.24
1245.00,93.27
1244.00,93.32
1243.00,93.38
1242.00,93.45
1241.00,93.51
1240.00,93.54
1239.00,93.54
1238.00,93.52
1237.00,93.49
1236.00,93.49
1235.00,93.52
1234.00,93.60
1233.00,93.68
1232.00,93.77
1231.00,93.86
1230.00,93.96
1229.00,94.06
1228.00,94.18
1227.00,94.30
1226.00,94.43
1225.00,94.55
1224.00,94.67
1223.00,94.78
1222.00,94.86
1221.00,94.94
1220.00,95.02
1219.00,95.10
1218.00,95.18
1217.00,95.23
1216.00,95.25
1215.00,95.23
1214.00,95.18
1213.00,95.10
1212.00,94.98
1211.00,94.84
1210.00,94.67
1209.00,94.50
1208.00,94.32
1207.00,94.17
1206.00,94.06
1205.00,93.99
1204.00,93.95
1203.00,93.96
1202.00,93.99
1201.00,94.05
1200.00,94.12
1199.00,94.21
1198.00,94.30
1197.00,94.40
1196.00,94.50
1195.00,94.62
1194.00,94.73
1193.00,94.84
1192.00,94.93
1191.00,95.02
1190.00,95.09
1189.00,95.14
1188.00,95.17
1187.00,95.18
1186.00,95.16
1185.00,95.12
1184.00,95.05
1183.00,94.95
1182.00,94.83
1181.00,94.68
1180.00,94.50
1179.00,94.28
1178.00,94.04
1177.00,93.79
1176.00,93.54
1175.00,93.27
1174.00,92.97
1173.00,92.63
1172.00,92.24
1171.00,91.80
1170.00,91.34
1169.00,90.87
1168.00,90.41
1167.00,89.97
1166.00,89.55
1165.00,89.15
1164.00,88.80
1163.00,88.49
1162.00,88.25
1161.00,88.08
1160.00,87.97
1159.00,87.92
1158.00,87.90
1157.00,87.92
1156.00,87.95
1155.00,88.01
1154.00,88.07
1153.00,88.13
1152.00,88.22
1151.00,88.33
1150.00,88.47
1149.00,88.59
1148.00,88.71
1147.00,88.82
1146.00,88.95
1145.00,89.10
1144.00,89.25
1143.00,89.42
1142.00,89.58
1141.00,89.72
1140.00,89.83
1139.00,89.91
1138.00,89.93
1137.00,89.90
1136.00,89.81
1135.00,89.68
1134.00,89.54
1133.00,89.40
1132.00,89.23
1131.00,89.03
1130.00,88.80
1129.00,88.53
1128.00,88.22
1127.00,87.89
1126.00,87.54
1125.00,87.20
1124.00,86.86
1123.00,86.55
1122.00,86.26
1121.00,85.96
1120.00,85.65
1119.00,85.29
1118.00,84.89
1117.00,84.44
1116.00,83.94
1115.00,83.42
1114.00,82.87
1113.00,82.34
1112.00,81.86
1111.00,81.45
1110.00,81.12
1109.00,80.83
1108.00,80.58
1107.00,80.40
1106.00,80.29
1105.00,80.20
1104.00,80.14
1103.00,80.13
1102.00,80.16
1101.00,80.24
1100.00,80.34
1099.00,80.46
1098.00,80.60
1097.00,80.76
1096.00,80.93
1095.00,81.11
1094.00,81.28
1093.00,81.40
1092.00,81.48
1091.00,81.55
1090.00,81.62
1089.00,81.67
1088.00,81.70
1087.00,81.73
1086.00,81.76
1085.00,81.79
1084.00,81.78
1083.00,81.74
1082.00,81.65
1081.00,81.52
1080.00,81.35
1079.00,81.17
1078.00,80.95
1077.00,80.70
1076.00,80.44
1075.00,80.19
1074.00,79.96
1073.00,79.72
1072.00,79.45
1071.00,79.16
1070.00,78.84
1069.00,78.50
1068.00,78.12
1067.00,77.72
1066.00,77.28
1065.00,76.80
1064.00,76.26
1063.00,75.70
1062.00,75.14
1061.00,74.57
1060.00,74.03
1059.00,73.55
1058.00,73.14
1057.00,72.79
1056.00,72.49
1055.00,72.24
1054.00,72.04
1053.00,71.90
1052.00,71.83
1051.00,71.82
1050.00,71.84
1049.00,71.89
1048.00,71.98
1047.00,72.11
1046.00,72.27
1045.00,72.42
1044.00,72.54
1043.00,72.60
1042.00,72.61
1041.00,72.56
1040.00,72.44
1039.00,72.26
1038.00,72.05
1037.00,71.80
1036.00,71.53
1035.00,71.28
1034.00,71.04
1033.00,70.80
1032.00,70.58
1031.00,70.40
1030.00,70.27
1029.00,70.18
1028.00,70.14
1027.00,70.16
1026.00,70.23
1025.00,70.31
1024.00,70.39
1023.00,70.46
1022.00,70.55
1021.00,70.66
1020.00,70.78
1019.00,70.91
1018.00,71.05
1017.00,71.16
1016.00,71.26
1015.00,71.34
1014.00,71.41
1013.00,71.46
1012.00,71.48
1011.00,71.50
1010.00,71.51
1009.00,71.50
1008.00,71.46
1007.00,71.41
1006.00,71.36
1005.00,71.33
1004.00,71.32
1003.00,71.35
1002.00,71.41
1001.00,71.51
1000.00,71.63
999.00,71.78
998.00,71.97
997.00,72.19
996.00,72.40
995.00,72.59
994.00,72.76
993.00,72.91
992.00,73.03
991.00,73.13
990.00,73.19
989.00,73.19
988.00,73.15
987.00,73.11
986.00,73.10
985.00,73.13
984.00,73.23
983.00,73.42
982.00,73.71
981.00,74.10
980.00,74.55
979.00,75.05
978.00,75.58
977.00,76.12
976.00,76.64
975.00,77.13
974.00,77.59
973.00,78.01
972.00,78.40
971.00,78.79
970.00,79.16
969.00,79.52
968.00,79.87
967.00,80.19
966.00,80.47
965.00,80.72
964.00,80.96
963.00,81.22
962.00,81.48
961.00,81.73
960.00,81.96
959.00,82.17
958.00,82.38
957.00,82.58
956.00,82.80
955.00,83.02
954.00,83.25
953.00,83.49
952.00,83.72
951.00,83.95
950.00,84.18
949.00,84.40
948.00,84.61
947.00,84.83
946.00,85.06
945.00,85.27
944.00,85.47
943.00,85.67
942.00,85.84
941.00,86.00
940.00,86.17
939.00,86.34
938.00,86.53
937.00,86.69
936.00,86.82
935.00,86.93
934.00,87.04
933.00,87.16
932.00,87.28
931.00,87.39
930.00,87.50
929.00,87.61
928.00,87.70
927.00,87.80
926.00,87.88
925.00,87.96
924.00,88.04
923.00,88.11
922.00,88.19
921.00,88.26
920.00,88.32
919.00,88.38
918.00,88.44
917.00,88.50
916.00,88.53
915.00,88.52
914.00,88.49
913.00,88.45
912.00,88.42
911.00,88.39
910.00,88.36
909.00,88.32
908.00,88.28
907.00,88.22
906.00,88.15
905.00,88.06
904.00,87.97
903.00,87.87
902.00,87.76
901.00,87.66
900.00,87.57
899.00,87.50
898.00,87.46
897.00,87.45
896.00,87.48
895.00,87.52
894.00,87.57
893.00,87.61
892.00,87.66
891.00,87.73
890.00,87.85
889.00,88.00
888.00,88.16
887.00,88.30
886.00,88.44
885.00,88.57
884.00,88.69
883.00,88.82
882.00,88.95
881.00,89.08
880.00,89.18
879.00,89.27
878.00,89.36
877.00,89.47
876.00,89.61
875.00,89.74
874.00,89.85
873.00,89.93
872.00,89.97
871.00,90.00
870.00,90.04
869.00,90.11
868.00,90.20
867.00,90.30
866.00,90.39
865.00,90.46
864.00,90.50
863.00,90.51
862.00,90.54
861.00,90.59
860.00,90.68
859.00,90.77
858.00,90.84
857.00,90.88
856.00,90.90
855.00,90.90
854.00,90.93
853.00,90.98
852.00,91.04
851.00,91.08
850.00,91.10
849.00,91.12
848.00,91.13
847.00,91.14
846.00,91.14
845.00,91.12
844.00,91.10
843.00,91.07
842.00,91.04
841.00,91.00
840.00,90.98
839.00,90.97
838.00,90.97
837.00,90.97
836.00,90.97
835.00,90.98
834.00,90.98
833.00,90.99
832.00,91.00
831.00,91.02
830.00,91.03
829.00,91.02
828.00,91.01
827.00,91.00
826.00,90.98
825.00,90.95
824.00,90.92
823.00,90.86
822.00,90.78
821.00,90.69
820.00,90.60
819.00,90.51
818.00,90.43
817.00,90.35
816.00,90.27
815.00,90.22
814.00,90.20
813.00,90.19
812.00,90.19
811.00,90.17
810.00,90.14
809.00,90.09
808.00,90.04
807.00,90.02
806.00,90.01
805.00,89.99
804.00,89.97
803.00,89.96
802.00,89.96
801.00,89.96
800.00,89.96
799.00,89.95
798.00,89.95
797.00,89.97
796.00,89.97
795.00,89.94
794.00,89.88
793.00,89.81
792.00,89.76
791.00,89.73
790.00,89.71
789.00,89.68
788.00,89.63
787.00,89.56
786.00,89.51
785.00,89.48
784.00,89.46
783.00,89.43
782.00,89.39
781.00,89.36
780.00,89.33
779.00,89.30
778.00,89.27
777.00,89.23
776.00,89.21
775.00,89.19
774.00,89.18
773.00,89.15
772.00,89.09
771.00,89.01
770.00,88.93
769.00,88.85
768.00,88.80
767.00,88.76
766.00,88.72
765.00,88.66
764.00,88.58
763.00,88.51
762.00,88.45
761.00,88.40
760.00,88.35
759.00,88.31
758.00,88.25
757.00,88.19
756.00,88.12
755.00,88.03
754.00,87.94
753.00,87.84
752.00,87.75
751.00,87.69
750.00,87.66
749.00,87.66
748.00,87.65
747.00,87.63
746.00,87.58
745.00,87.52
744.00,87.45
743.00,87.38
742.00,87.32
741.00,87.25
740.00,87.16
739.00,87.07
738.00,87.00
737.00,86.93
736.00,86.85
735.00,86.75
734.00,86.65
733.00,86.55
732.00,86.47
731.00,86.39
730.00,86.29
729.00,86.16
728.00,86.00
727.00,85.86
726.00,85.74
725.00,85.61
724.00,85.43
723.00,85.20
722.00,84.97
721.00,84.74
720.00,84.53
719.00,84.34
718.00,84.15
717.00,83.98
716.00,83.83
715.00,83.70
714.00,83.58
713.00,83.46
712.00,83.34
711.00,83.21
710.00,83.08
709.00,82.96
708.00,82.87
707.00,82.81
706.00,82.77
705.00,82.71
704.00,82.61
703.00,82.49
702.00,82.41
701.00,82.37
700.00,82.35
699.00,82.32
698.00,82.28
697.00,82.24
696.00,82.23
695.00,82.24
694.00,82.23
693.00,82.19
692.00,82.13
691.00,82.10
690.00,82.10
689.00,82.08
688.00,82.01
687.00,81.91
686.00,81.81
685.00,81.73
684.00,81.67
683.00,81.61
682.00,81.54
681.00,81.41
680.00,81.23
679.00,81.00
678.00,80.75
677.00,80.47
676.00,80.16
675.00,79.85
674.00,79.56
673.00,79.27
672.00,78.98
671.00,78.67
670.00,78.33
669.00,77.93
668.00,77.54
667.00,77.31
666.00,77.24
665.00,77.21
664.00,77.17
663.00,77.14
662.00,77.16
661.00,77.21
660.00,77.26
659.00,77.30
658.00,77.35
657.00,77.42
656.00,77.56
655.00,77.75
654.00,77.93
653.00,78.05
652.00,78.11
651.00,78.15
650.00,78.15
649.00,78.10
648.00,78.04
647.00,78.02
646.00,77.98
645.00,77.86
644.00,77.67
643.00,77.48
642.00,77.34
641.00,77.26
640.00,77.23
639.00,77.26
638.00,77.31
637.00,77.30
636.00,77.20
635.00,77.05
634.00,76.90
633.00,76.76
632.00,76.61
631.00,76.47
630.00,76.33
629.00,76.17
628.00,75.99
627.00,75.82
626.00,75.66
625.00,75.51
624.00,75.38
623.00,75.27
622.00,75.13
621.00,74.90
620.00,74.59
619.00,74.31
618.00,74.11
617.00,73.97
616.00,73.89
615.00,73.90
614.00,73.92
613.00,73.84
612.00,73.71
611.00,73.67
610.00,73.77
609.00,73.90
608.00,74.00
607.00,74.05
606.00,74.02
605.00,73.83
604.00,73.54
603.00,73.29
602.00,73.17
601.00,73.11
600.00,73.03
599.00,72.95
598.00,72.92
597.00,72.94
596.00,72.94
595.00,72.88
594.00,72.74
593.00,72.50
592.00,72.25
591.00,72.10
590.00,72.07
589.00,72.11
588.00,72.24
587.00,72.51
586.00,72.82
585.00,72.98
584.00,73.02
583.00,73.14
582.00,73.42
581.00,73.71
580.00,73.80
579.00,73.64
578.00,73.28
577.00,72.83
576.00,72.45
575.00,72.31
574.00,72.29
573.00,72.22
572.00,72.18
571.00,72.40
570.00,72.77
569.00,72.90
568.00,72.61
567.00,72.02
566.00,71.33
565.00,70.67
564.00,70.16
563.00,69.94
562.00,69.92
561.00,69.84
560.00,69.60
559.00,69.37
558.00,69.32
557.00,69.53
556.00,70.09
555.00,70.87
554.00,71.41
553.00,71.35
552.00,71.01
551.00,70.96
550.00,71.18
