Created as New Dataset,56 Lenzing
cm-1,%T
4000.00,101.37
3999.00,101.35
3998.00,101.32
3997.00,101.30
3996.00,101.28
3995.00,101.29
3994.00,101.32
3993.00,101.35
3992.00,101.37
3991.00,101.37
3990.00,101.37
3989.00,101.36
3988.00,101.36
3987.00,101.36
3986.00,101.37
3985.00,101.37
3984.00,101.37
3983.00,101.37
3982.00,101.37
3981.00,101.37
3980.00,101.39
3979.00,101.40
3978.00,101.40
3977.00,101.39
3976.00,101.37
3975.00,101.36
3974.00,101.35
3973.00,101.36
3972.00,101.36
3971.00,101.37
3970.00,101.36
3969.00,101.35
3968.00,101.33
3967.00,101.32
3966.00,101.33
3965.00,101.34
3964.00,101.35
3963.00,101.36
3962.00,101.36
3961.00,101.36
3960.00,101.35
3959.00,101.34
3958.00,101.33
3957.00,101.32
3956.00,101.32
3955.00,101.32
3954.00,101.31
3953.00,101.31
3952.00,101.31
3951.00,101.31
3950.00,101.32
3949.00,101.34
3948.00,101.36
3947.00,101.37
3946.00,101.35
3945.00,101.33
3944.00,101.32
3943.00,101.34
3942.00,101.36
3941.00,101.39
3940.00,101.39
3939.00,101.38
3938.00,101.36
3937.00,101.34
3936.00,101.32
3935.00,101.32
3934.00,101.32
3933.00,101.33
3932.00,101.34
3931.00,101.34
3930.00,101.34
3929.00,101.33
3928.00,101.34
3927.00,101.35
3926.00,101.36
3925.00,101.36
3924.00,101.35
3923.00,101.34
3922.00,101.32
3921.00,101.30
3920.00,101.30
3919.00,101.31
3918.00,101.32
3917.00,101.32
3916.00,101.32
3915.00,101.31
3914.00,101.30
3913.00,101.30
3912.00,101.31
3911.00,101.33
3910.00,101.35
3909.00,101.37
3908.00,101.39
3907.00,101.40
3906.00,101.38
3905.00,101.36
3904.00,101.33
3903.00,101.30
3902.00,101.28
3901.00,101.28
3900.00,101.30
3899.00,101.33
3898.00,101.34
3897.00,101.33
3896.00,101.31
3895.00,101.31
3894.00,101.31
3893.00,101.31
3892.00,101.32
3891.00,101.32
3890.00,101.32
3889.00,101.31
3888.00,101.30
3887.00,101.29
3886.00,101.29
3885.00,101.29
3884.00,101.28
3883.00,101.26
3882.00,101.26
3881.00,101.28
3880.00,101.32
3879.00,101.35
3878.00,101.35
3877.00,101.34
3876.00,101.34
3875.00,101.36
3874.00,101.37
3873.00,101.36
3872.00,101.31
3871.00,101.26
3870.00,101.23
3869.00,101.22
3868.00,101.21
3867.00,101.20
3866.00,101.20
3865.00,101.23
3864.00,101.27
3863.00,101.31
3862.00,101.34
3861.00,101.34
3860.00,101.33
3859.00,101.31
3858.00,101.27
3857.00,101.23
3856.00,101.19
3855.00,101.15
3854.00,101.14
3853.00,101.15
3852.00,101.16
3851.00,101.15
3850.00,101.16
3849.00,101.20
3848.00,101.25
3847.00,101.28
3846.00,101.30
3845.00,101.30
3844.00,101.31
3843.00,101.31
3842.00,101.31
3841.00,101.30
3840.00,101.27
3839.00,101.26
3838.00,101.27
3837.00,101.29
3836.00,101.30
3835.00,101.30
3834.00,101.30
3833.00,101.30
3832.00,101.30
3831.00,101.31
3830.00,101.30
3829.00,101.29
3828.00,101.29
3827.00,101.31
3826.00,101.33
3825.00,101.35
3824.00,101.34
3823.00,101.32
3822.00,101.32
3821.00,101.33
3820.00,101.33
3819.00,101.29
3818.00,101.25
3817.00,101.23
3816.00,101.24
3815.00,101.24
3814.00,101.23
3813.00,101.23
3812.00,101.25
3811.00,101.29
3810.00,101.33
3809.00,101.35
3808.00,101.35
3807.00,101.34
3806.00,101.32
3805.00,101.30
3804.00,101.27
3803.00,101.28
3802.00,101.29
3801.00,101.29
3800.00,101.26
3799.00,101.21
3798.00,101.19
3797.00,101.21
3796.00,101.26
3795.00,101.30
3794.00,101.32
3793.00,101.33
3792.00,101.36
3791.00,101.38
3790.00,101.40
3789.00,101.39
3788.00,101.38
3787.00,101.36
3786.00,101.35
3785.00,101.34
3784.00,101.34
3783.00,101.33
3782.00,101.32
3781.00,101.32
3780.00,101.34
3779.00,101.35
3778.00,101.35
3777.00,101.33
3776.00,101.31
3775.00,101.30
3774.00,101.30
3773.00,101.30
3772.00,101.30
3771.00,101.29
3770.00,101.28
3769.00,101.27
3768.00,101.28
3767.00,101.30
3766.00,101.33
3765.00,101.35
3764.00,101.34
3763.00,101.30
3762.00,101.26
3761.00,101.23
3760.00,101.22
3759.00,101.22
3758.00,101.22
3757.00,101.22
3756.00,101.24
3755.00,101.24
3754.00,101.24
3753.00,101.23
3752.00,101.19
3751.00,101.15
3750.00,101.12
3749.00,101.12
3748.00,101.12
3747.00,101.11
3746.00,101.09
3745.00,101.09
3744.00,101.10
3743.00,101.11
3742.00,101.11
3741.00,101.13
3740.00,101.16
3739.00,101.20
3738.00,101.21
3737.00,101.21
3736.00,101.23
3735.00,101.26
3734.00,101.28
3733.00,101.28
3732.00,101.27
3731.00,101.26
3730.00,101.25
3729.00,101.23
3728.00,101.22
3727.00,101.21
3726.00,101.20
3725.00,101.19
3724.00,101.18
3723.00,101.19
3722.00,101.22
3721.00,101.24
3720.00,101.25
3719.00,101.25
3718.00,101.26
3717.00,101.27
3716.00,101.28
3715.00,101.27
3714.00,101.26
3713.00,101.25
3712.00,101.23
3711.00,101.21
3710.00,101.20
3709.00,101.21
3708.00,101.21
3707.00,101.21
3706.00,101.21
3705.00,101.21
3704.00,101.20
3703.00,101.20
3702.00,101.20
3701.00,101.21
3700.00,101.22
3699.00,101.24
3698.00,101.27
3697.00,101.30
3696.00,101.31
3695.00,101.30
3694.00,101.27
3693.00,101.23
3692.00,101.20
3691.00,101.18
3690.00,101.16
3689.00,101.15
3688.00,101.14
3687.00,101.15
3686.00,101.17
3685.00,101.19
3684.00,101.22
3683.00,101.24
3682.00,101.23
3681.00,101.20
3680.00,101.19
3679.00,101.19
3678.00,101.18
3677.00,101.16
3676.00,101.14
3675.00,101.13
3674.00,101.11
3673.00,101.09
3672.00,101.08
3671.00,101.09
3670.00,101.13
3669.00,101.15
3668.00,101.15
3667.00,101.14
3666.00,101.13
3665.00,101.14
3664.00,101.17
3663.00,101.18
3662.00,101.18
3661.00,101.16
3660.00,101.13
3659.00,101.10
3658.00,101.08
3657.00,101.08
3656.00,101.07
3655.00,101.06
3654.00,101.04
3653.00,101.02
3652.00,101.02
3651.00,101.04
3650.00,101.07
3649.00,101.07
3648.00,101.05
3647.00,101.04
3646.00,101.03
3645.00,101.01
3644.00,101.00
3643.00,101.00
3642.00,100.99
3641.00,100.99
3640.00,100.98
3639.00,100.98
3638.00,100.98
3637.00,100.99
3636.00,100.99
3635.00,100.97
3634.00,100.94
3633.00,100.91
3632.00,100.86
3631.00,100.82
3630.00,100.80
3629.00,100.81
3628.00,100.81
3627.00,100.80
3626.00,100.77
3625.00,100.75
3624.00,100.77
3623.00,100.79
3622.00,100.80
3621.00,100.80
3620.00,100.78
3619.00,100.76
3618.00,100.73
3617.00,100.70
3616.00,100.66
3615.00,100.63
3614.00,100.60
3613.00,100.59
3612.00,100.58
3611.00,100.57
3610.00,100.57
3609.00,100.57
3608.00,100.57
3607.00,100.57
3606.00,100.57
3605.00,100.56
3604.00,100.54
3603.00,100.52
3602.00,100.50
3601.00,100.49
3600.00,100.48
3599.00,100.46
3598.00,100.42
3597.00,100.36
3596.00,100.32
3595.00,100.29
3594.00,100.28
3593.00,100.27
3592.00,100.26
3591.00,100.24
3590.00,100.23
3589.00,100.22
3588.00,100.22
3587.00,100.20
3586.00,100.18
3585.00,100.15
3584.00,100.12
3583.00,100.10
3582.00,100.09
3581.00,100.08
3580.00,100.08
3579.00,100.06
3578.00,100.04
3577.00,100.03
3576.00,100.01
3575.00,100.00
3574.00,99.98
3573.00,99.95
3572.00,99.91
3571.00,99.87
3570.00,99.82
3569.00,99.76
3568.00,99.71
3567.00,99.69
3566.00,99.70
3565.00,99.72
3564.00,99.75
3563.00,99.77
3562.00,99.77
3561.00,99.76
3560.00,99.71
3559.00,99.65
3558.00,99.60
3557.00,99.57
3556.00,99.56
3555.00,99.56
3554.00,99.56
3553.00,99.53
3552.00,99.50
3551.00,99.46
3550.00,99.43
3549.00,99.38
3548.00,99.34
3547.00,99.31
3546.00,99.29
3545.00,99.29
3544.00,99.30
3543.00,99.30
3542.00,99.27
3541.00,99.22
3540.00,99.16
3539.00,99.10
3538.00,99.07
3537.00,99.06
3536.00,99.07
3535.00,99.06
3534.00,99.04
3533.00,99.00
3532.00,98.96
3531.00,98.93
3530.00,98.91
3529.00,98.89
3528.00,98.86
3527.00,98.83
3526.00,98.80
3525.00,98.76
3524.00,98.71
3523.00,98.67
3522.00,98.62
3521.00,98.57
3520.00,98.52
3519.00,98.47
3518.00,98.42
3517.00,98.39
3516.00,98.35
3515.00,98.32
3514.00,98.29
3513.00,98.24
3512.00,98.20
3511.00,98.14
3510.00,98.09
3509.00,98.04
3508.00,97.99
3507.00,97.93
3506.00,97.87
3505.00,97.82
3504.00,97.76
3503.00,97.69
3502.00,97.61
3501.00,97.52
3500.00,97.43
3499.00,97.36
3498.00,97.31
3497.00,97.26
3496.00,97.21
3495.00,97.16
3494.00,97.10
3493.00,97.01
3492.00,96.91
3491.00,96.81
3490.00,96.72
3489.00,96.67
3488.00,96.64
3487.00,96.62
3486.00,96.59
3485.00,96.58
3484.00,96.57
3483.00,96.58
3482.00,96.58
3481.00,96.58
3480.00,96.57
3479.00,96.56
3478.00,96.54
3477.00,96.51
3476.00,96.48
3475.00,96.46
3474.00,96.45
3473.00,96.42
3472.00,96.37
3471.00,96.32
3470.00,96.28
3469.00,96.25
3468.00,96.24
3467.00,96.22
3466.00,96.20
3465.00,96.16
3464.00,96.10
3463.00,96.04
3462.00,95.99
3461.00,95.94
3460.00,95.90
3459.00,95.86
3458.00,95.82
3457.00,95.78
3456.00,95.74
3455.00,95.70
3454.00,95.64
3453.00,95.57
3452.00,95.50
3451.00,95.44
3450.00,95.38
3449.00,95.31
3448.00,95.24
3447.00,95.16
3446.00,95.09
3445.00,95.03
3444.00,94.99
3443.00,94.95
3442.00,94.92
3441.00,94.89
3440.00,94.86
3439.00,94.83
3438.00,94.81
3437.00,94.80
3436.00,94.79
3435.00,94.79
3434.00,94.80
3433.00,94.82
3432.00,94.84
3431.00,94.86
3430.00,94.88
3429.00,94.89
3428.00,94.88
3427.00,94.87
3426.00,94.85
3425.00,94.84
3424.00,94.84
3423.00,94.85
3422.00,94.85
3421.00,94.84
3420.00,94.83
3419.00,94.81
3418.00,94.79
3417.00,94.77
3416.00,94.77
3415.00,94.78
3414.00,94.79
3413.00,94.79
3412.00,94.79
3411.00,94.78
3410.00,94.76
3409.00,94.75
3408.00,94.74
3407.00,94.73
3406.00,94.71
3405.00,94.68
3404.00,94.65
3403.00,94.61
3402.00,94.59
3401.00,94.57
3400.00,94.57
3399.00,94.57
3398.00,94.56
3397.00,94.54
3396.00,94.52
3395.00,94.50
3394.00,94.49
3393.00,94.47
3392.00,94.45
3391.00,94.43
3390.00,94.41
3389.00,94.41
3388.00,94.40
3387.00,94.38
3386.00,94.37
3385.00,94.35
3384.00,94.34
3383.00,94.32
3382.00,94.30
3381.00,94.30
3380.00,94.29
3379.00,94.28
3378.00,94.25
3377.00,94.23
3376.00,94.22
3375.00,94.21
3374.00,94.21
3373.00,94.21
3372.00,94.20
3371.00,94.20
3370.00,94.19
3369.00,94.18
3368.00,94.16
3367.00,94.15
3366.00,94.14
3365.00,94.14
3364.00,94.14
3363.00,94.15
3362.00,94.14
3361.00,94.12
3360.00,94.09
3359.00,94.07
3358.00,94.05
3357.00,94.04
3356.00,94.04
3355.00,94.05
3354.00,94.07
3353.00,94.08
3352.00,94.09
3351.00,94.08
3350.00,94.06
3349.00,94.04
3348.00,94.03
3347.00,94.03
3346.00,94.03
3345.00,94.02
3344.00,94.00
3343.00,93.99
3342.00,93.98
3341.00,93.98
3340.00,93.97
3339.00,93.96
3338.00,93.95
3337.00,93.95
3336.00,93.95
3335.00,93.95
3334.00,93.95
3333.00,93.95
3332.00,93.95
3331.00,93.96
3330.00,93.97
3329.00,93.98
3328.00,93.98
3327.00,93.97
3326.00,93.96
3325.00,93.94
3324.00,93.92
3323.00,93.92
3322.00,93.92
3321.00,93.92
3320.00,93.92
3319.00,93.93
3318.00,93.93
3317.00,93.95
3316.00,93.97
3315.00,93.98
3314.00,93.97
3313.00,93.95
3312.00,93.94
3311.00,93.94
3310.00,93.95
3309.00,93.96
3308.00,93.95
3307.00,93.96
3306.00,93.97
3305.00,93.99
3304.00,94.00
3303.00,94.00
3302.00,93.98
3301.00,93.98
3300.00,93.99
3299.00,94.01
3298.00,94.02
3297.00,94.03
3296.00,94.03
3295.00,94.03
3294.00,94.03
3293.00,94.02
3292.00,94.00
3291.00,93.99
3290.00,93.99
3289.00,94.00
3288.00,94.03
3287.00,94.06
3286.00,94.06
3285.00,94.05
3284.00,94.02
3283.00,94.01
3282.00,94.02
3281.00,94.05
3280.00,94.08
3279.00,94.10
3278.00,94.13
3277.00,94.14
3276.00,94.14
3275.00,94.14
3274.00,94.14
3273.00,94.14
3272.00,94.15
3271.00,94.16
3270.00,94.18
3269.00,94.20
3268.00,94.20
3267.00,94.20
3266.00,94.20
3265.00,94.21
3264.00,94.24
3263.00,94.27
3262.00,94.28
3261.00,94.27
3260.00,94.25
3259.00,94.24
3258.00,94.24
3257.00,94.25
3256.00,94.27
3255.00,94.30
3254.00,94.32
3253.00,94.34
3252.00,94.35
3251.00,94.35
3250.00,94.35
3249.00,94.35
3248.00,94.37
3247.00,94.39
3246.00,94.41
3245.00,94.42
3244.00,94.43
3243.00,94.43
3242.00,94.43
3241.00,94.44
3240.00,94.45
3239.00,94.46
3238.00,94.48
3237.00,94.49
3236.00,94.51
3235.00,94.52
3234.00,94.54
3233.00,94.55
3232.00,94.57
3231.00,94.59
3230.00,94.61
3229.00,94.62
3228.00,94.63
3227.00,94.63
3226.00,94.63
3225.00,94.63
3224.00,94.62
3223.00,94.63
3222.00,94.65
3221.00,94.68
3220.00,94.71
3219.00,94.74
3218.00,94.76
3217.00,94.79
3216.00,94.81
3215.00,94.82
3214.00,94.82
3213.00,94.82
3212.00,94.81
3211.00,94.81
3210.00,94.80
3209.00,94.80
3208.00,94.79
3207.00,94.80
3206.00,94.82
3205.00,94.86
3204.00,94.89
3203.00,94.91
3202.00,94.92
3201.00,94.93
3200.00,94.94
3199.00,94.96
3198.00,94.98
3197.00,94.99
3196.00,95.00
3195.00,95.01
3194.00,95.03
3193.00,95.05
3192.00,95.07
3191.00,95.09
3190.00,95.11
3189.00,95.12
3188.00,95.13
3187.00,95.13
3186.00,95.14
3185.00,95.15
3184.00,95.17
3183.00,95.19
3182.00,95.20
3181.00,95.21
3180.00,95.23
3179.00,95.26
3178.00,95.29
3177.00,95.30
3176.00,95.31
3175.00,95.31
3174.00,95.32
3173.00,95.33
3172.00,95.35
3171.00,95.37
3170.00,95.37
3169.00,95.37
3168.00,95.36
3167.00,95.36
3166.00,95.37
3165.00,95.41
3164.00,95.45
3163.00,95.48
3162.00,95.50
3161.00,95.51
3160.00,95.51
3159.00,95.53
3158.00,95.55
3157.00,95.56
3156.00,95.56
3155.00,95.57
3154.00,95.58
3153.00,95.60
3152.00,95.64
3151.00,95.67
3150.00,95.69
3149.00,95.70
3148.00,95.71
3147.00,95.72
3146.00,95.75
3145.00,95.79
3144.00,95.83
3143.00,95.85
3142.00,95.87
3141.00,95.87
3140.00,95.86
3139.00,95.87
3138.00,95.89
3137.00,95.92
3136.00,95.94
3135.00,95.97
3134.00,96.00
3133.00,96.03
3132.00,96.05
3131.00,96.06
3130.00,96.06
3129.00,96.07
3128.00,96.08
3127.00,96.10
3126.00,96.13
3125.00,96.16
3124.00,96.18
3123.00,96.22
3122.00,96.24
3121.00,96.27
3120.00,96.29
3119.00,96.31
3118.00,96.35
3117.00,96.38
3116.00,96.41
3115.00,96.43
3114.00,96.44
3113.00,96.46
3112.00,96.47
3111.00,96.49
3110.00,96.52
3109.00,96.54
3108.00,96.56
3107.00,96.58
3106.00,96.60
3105.00,96.63
3104.00,96.65
3103.00,96.67
3102.00,96.70
3101.00,96.72
3100.00,96.75
3099.00,96.78
3098.00,96.81
3097.00,96.82
3096.00,96.84
3095.00,96.86
3094.00,96.88
3093.00,96.90
3092.00,96.92
3091.00,96.94
3090.00,96.97
3089.00,97.01
3088.00,97.04
3087.00,97.06
3086.00,97.08
3085.00,97.10
3084.00,97.12
3083.00,97.15
3082.00,97.18
3081.00,97.20
3080.00,97.22
3079.00,97.24
3078.00,97.27
3077.00,97.31
3076.00,97.34
3075.00,97.36
3074.00,97.37
3073.00,97.37
3072.00,97.37
3071.00,97.38
3070.00,97.39
3069.00,97.41
3068.00,97.44
3067.00,97.46
3066.00,97.48
3065.00,97.51
3064.00,97.52
3063.00,97.54
3062.00,97.56
3061.00,97.57
3060.00,97.59
3059.00,97.62
3058.00,97.65
3057.00,97.67
3056.00,97.68
3055.00,97.68
3054.00,97.67
3053.00,97.67
3052.00,97.70
3051.00,97.73
3050.00,97.77
3049.00,97.80
3048.00,97.81
3047.00,97.83
3046.00,97.86
3045.00,97.88
3044.00,97.90
3043.00,97.92
3042.00,97.94
3041.00,97.96
3040.00,97.98
3039.00,97.98
3038.00,97.98
3037.00,97.98
3036.00,97.99
3035.00,98.00
3034.00,98.02
3033.00,98.03
3032.00,98.05
3031.00,98.06
3030.00,98.08
3029.00,98.09
3028.00,98.11
3027.00,98.13
3026.00,98.16
3025.00,98.19
3024.00,98.20
3023.00,98.21
3022.00,98.22
3021.00,98.23
3020.00,98.23
3019.00,98.23
3018.00,98.23
3017.00,98.24
3016.00,98.25
3015.00,98.27
3014.00,98.29
3013.00,98.31
3012.00,98.33
3011.00,98.33
3010.00,98.33
3009.00,98.33
3008.00,98.33
3007.00,98.34
3006.00,98.35
3005.00,98.36
3004.00,98.37
3003.00,98.37
3002.00,98.37
3001.00,98.37
3000.00,98.39
2999.00,98.42
2998.00,98.45
2997.00,98.47
2996.00,98.47
2995.00,98.48
2994.00,98.48
2993.00,98.48
2992.00,98.48
2991.00,98.47
2990.00,98.46
2989.00,98.44
2988.00,98.41
2987.00,98.40
2986.00,98.39
2985.00,98.39
2984.00,98.39
2983.00,98.38
2982.00,98.37
2981.00,98.35
2980.00,98.34
2979.00,98.34
2978.00,98.35
2977.00,98.35
2976.00,98.35
2975.00,98.34
2974.00,98.32
2973.00,98.29
2972.00,98.27
2971.00,98.25
2970.00,98.24
2969.00,98.24
2968.00,98.24
2967.00,98.23
2966.00,98.23
2965.00,98.22
2964.00,98.20
2963.00,98.18
2962.00,98.15
2961.00,98.13
2960.00,98.11
2959.00,98.10
2958.00,98.09
2957.00,98.07
2956.00,98.05
2955.00,98.03
2954.00,98.02
2953.00,98.01
2952.00,98.00
2951.00,98.00
2950.00,97.99
2949.00,97.97
2948.00,97.95
2947.00,97.91
2946.00,97.86
2945.00,97.81
2944.00,97.76
2943.00,97.73
2942.00,97.70
2941.00,97.67
2940.00,97.64
2939.00,97.59
2938.00,97.55
2937.00,97.51
2936.00,97.47
2935.00,97.43
2934.00,97.40
2933.00,97.37
2932.00,97.34
2931.00,97.33
2930.00,97.31
2929.00,97.31
2928.00,97.30
2927.00,97.30
2926.00,97.27
2925.00,97.24
2924.00,97.20
2923.00,97.17
2922.00,97.15
2921.00,97.14
2920.00,97.14
2919.00,97.13
2918.00,97.10
2917.00,97.07
2916.00,97.03
2915.00,96.98
2914.00,96.94
2913.00,96.91
2912.00,96.89
2911.00,96.86
2910.00,96.83
2909.00,96.78
2908.00,96.73
2907.00,96.67
2906.00,96.62
2905.00,96.58
2904.00,96.55
2903.00,96.53
2902.00,96.52
2901.00,96.52
2900.00,96.52
2899.00,96.52
2898.00,96.51
2897.00,96.50
2896.00,96.48
2895.00,96.46
2894.00,96.44
2893.00,96.43
2892.00,96.42
2891.00,96.42
2890.00,96.42
2889.00,96.43
2888.00,96.44
2887.00,96.44
2886.00,96.45
2885.00,96.46
2884.00,96.48
2883.00,96.50
2882.00,96.51
2881.00,96.53
2880.00,96.54
2879.00,96.56
2878.00,96.58
2877.00,96.60
2876.00,96.62
2875.00,96.64
2874.00,96.66
2873.00,96.67
2872.00,96.68
2871.00,96.69
2870.00,96.71
2869.00,96.74
2868.00,96.78
2867.00,96.83
2866.00,96.88
2865.00,96.92
2864.00,96.96
2863.00,97.00
2862.00,97.04
2861.00,97.06
2860.00,97.08
2859.00,97.09
2858.00,97.10
2857.00,97.13
2856.00,97.17
2855.00,97.21
2854.00,97.25
2853.00,97.29
2852.00,97.31
2851.00,97.33
2850.00,97.36
2849.00,97.40
2848.00,97.44
2847.00,97.46
2846.00,97.48
2845.00,97.50
2844.00,97.51
2843.00,97.53
2842.00,97.56
2841.00,97.60
2840.00,97.64
2839.00,97.68
2838.00,97.71
2837.00,97.72
2836.00,97.73
2835.00,97.73
2834.00,97.74
2833.00,97.75
2832.00,97.76
2831.00,97.77
2830.00,97.79
2829.00,97.82
2828.00,97.85
2827.00,97.87
2826.00,97.88
2825.00,97.89
2824.00,97.90
2823.00,97.90
2822.00,97.92
2821.00,97.93
2820.00,97.95
2819.00,97.96
2818.00,97.97
2817.00,97.97
2816.00,97.97
2815.00,97.98
2814.00,97.98
2813.00,97.99
2812.00,98.00
2811.00,98.01
2810.00,98.02
2809.00,98.04
2808.00,98.07
2807.00,98.09
2806.00,98.11
2805.00,98.11
2804.00,98.11
2803.00,98.11
2802.00,98.11
2801.00,98.11
2800.00,98.11
2799.00,98.11
2798.00,98.12
2797.00,98.14
2796.00,98.15
2795.00,98.16
2794.00,98.17
2793.00,98.18
2792.00,98.20
2791.00,98.22
2790.00,98.23
2789.00,98.24
2788.00,98.24
2787.00,98.24
2786.00,98.25
2785.00,98.25
2784.00,98.26
2783.00,98.26
2782.00,98.27
2781.00,98.28
2780.00,98.30
2779.00,98.31
2778.00,98.31
2777.00,98.30
2776.00,98.30
2775.00,98.31
2774.00,98.31
2773.00,98.32
2772.00,98.33
2771.00,98.34
2770.00,98.36
2769.00,98.37
2768.00,98.38
2767.00,98.38
2766.00,98.38
2765.00,98.39
2764.00,98.40
2763.00,98.41
2762.00,98.42
2761.00,98.43
2760.00,98.45
2759.00,98.46
2758.00,98.47
2757.00,98.47
2756.00,98.46
2755.00,98.45
2754.00,98.44
2753.00,98.43
2752.00,98.44
2751.00,98.44
2750.00,98.44
2749.00,98.43
2748.00,98.41
2747.00,98.40
2746.00,98.41
2745.00,98.44
2744.00,98.46
2743.00,98.46
2742.00,98.46
2741.00,98.46
2740.00,98.46
2739.00,98.45
2738.00,98.44
2737.00,98.44
2736.00,98.44
2735.00,98.46
2734.00,98.47
2733.00,98.47
2732.00,98.46
2731.00,98.45
2730.00,98.44
2729.00,98.44
2728.00,98.45
2727.00,98.46
2726.00,98.46
2725.00,98.46
2724.00,98.45
2723.00,98.45
2722.00,98.45
2721.00,98.47
2720.00,98.50
2719.00,98.52
2718.00,98.54
2717.00,98.54
2716.00,98.54
2715.00,98.53
2714.00,98.53
2713.00,98.54
2712.00,98.55
2711.00,98.55
2710.00,98.55
2709.00,98.56
2708.00,98.56
2707.00,98.57
2706.00,98.58
2705.00,98.59
2704.00,98.59
2703.00,98.60
2702.00,98.61
2701.00,98.61
2700.00,98.60
2699.00,98.59
2698.00,98.58
2697.00,98.58
2696.00,98.58
2695.00,98.58
2694.00,98.58
2693.00,98.57
2692.00,98.57
2691.00,98.57
2690.00,98.58
2689.00,98.59
2688.00,98.60
2687.00,98.61
2686.00,98.62
2685.00,98.62
2684.00,98.62
2683.00,98.62
2682.00,98.63
2681.00,98.65
2680.00,98.66
2679.00,98.67
2678.00,98.67
2677.00,98.67
2676.00,98.66
2675.00,98.66
2674.00,98.66
2673.00,98.66
2672.00,98.66
2671.00,98.66
2670.00,98.66
2669.00,98.66
2668.00,98.67
2667.00,98.68
2666.00,98.70
2665.00,98.71
2664.00,98.71
2663.00,98.71
2662.00,98.70
2661.00,98.70
2660.00,98.69
2659.00,98.68
2658.00,98.67
2657.00,98.67
2656.00,98.67
2655.00,98.66
2654.00,98.66
2653.00,98.66
2652.00,98.66
2651.00,98.66
2650.00,98.66
2649.00,98.66
2648.00,98.66
2647.00,98.67
2646.00,98.67
2645.00,98.68
2644.00,98.68
2643.00,98.68
2642.00,98.68
2641.00,98.68
2640.00,98.67
2639.00,98.66
2638.00,98.65
2637.00,98.65
2636.00,98.66
2635.00,98.67
2634.00,98.68
2633.00,98.69
2632.00,98.68
2631.00,98.68
2630.00,98.67
2629.00,98.66
2628.00,98.65
2627.00,98.64
2626.00,98.63
2625.00,98.63
2624.00,98.64
2623.00,98.64
2622.00,98.65
2621.00,98.66
2620.00,98.68
2619.00,98.70
2618.00,98.70
2617.00,98.71
2616.00,98.71
2615.00,98.72
2614.00,98.72
2613.00,98.70
2612.00,98.67
2611.00,98.64
2610.00,98.62
2609.00,98.62
2608.00,98.62
2607.00,98.63
2606.00,98.63
2605.00,98.64
2604.00,98.65
2603.00,98.66
2602.00,98.65
2601.00,98.65
2600.00,98.65
2599.00,98.65
2598.00,98.65
2597.00,98.64
2596.00,98.63
2595.00,98.63
2594.00,98.62
2593.00,98.62
2592.00,98.61
2591.00,98.60
2590.00,98.60
2589.00,98.59
2588.00,98.58
2587.00,98.57
2586.00,98.58
2585.00,98.60
2584.00,98.62
2583.00,98.63
2582.00,98.64
2581.00,98.63
2580.00,98.63
2579.00,98.62
2578.00,98.63
2577.00,98.64
2576.00,98.65
2575.00,98.64
2574.00,98.61
2573.00,98.59
2572.00,98.59
2571.00,98.61
2570.00,98.65
2569.00,98.67
2568.00,98.68
2567.00,98.68
2566.00,98.67
2565.00,98.66
2564.00,98.64
2563.00,98.62
2562.00,98.61
2561.00,98.62
2560.00,98.63
2559.00,98.64
2558.00,98.64
2557.00,98.65
2556.00,98.64
2555.00,98.64
2554.00,98.63
2553.00,98.63
2552.00,98.62
2551.00,98.62
2550.00,98.62
2549.00,98.64
2548.00,98.65
2547.00,98.66
2546.00,98.65
2545.00,98.64
2544.00,98.64
2543.00,98.65
2542.00,98.66
2541.00,98.66
2540.00,98.64
2539.00,98.60
2538.00,98.58
2537.00,98.58
2536.00,98.60
2535.00,98.63
2534.00,98.64
2533.00,98.64
2532.00,98.65
2531.00,98.66
2530.00,98.66
2529.00,98.66
2528.00,98.66
2527.00,98.65
2526.00,98.64
2525.00,98.65
2524.00,98.66
2523.00,98.68
2522.00,98.69
2521.00,98.68
2520.00,98.67
2519.00,98.67
2518.00,98.66
2517.00,98.66
2516.00,98.66
2515.00,98.65
2514.00,98.65
2513.00,98.66
2512.00,98.68
2511.00,98.70
2510.00,98.71
2509.00,98.70
2508.00,98.68
2507.00,98.67
2506.00,98.67
2505.00,98.68
2504.00,98.68
2503.00,98.68
2502.00,98.68
2501.00,98.68
2500.00,98.68
2499.00,98.67
2498.00,98.68
2497.00,98.68
2496.00,98.68
2495.00,98.67
2494.00,98.65
2493.00,98.64
2492.00,98.65
2491.00,98.67
2490.00,98.69
2489.00,98.69
2488.00,98.69
2487.00,98.67
2486.00,98.66
2485.00,98.66
2484.00,98.67
2483.00,98.69
2482.00,98.69
2481.00,98.69
2480.00,98.69
2479.00,98.69
2478.00,98.69
2477.00,98.68
2476.00,98.69
2475.00,98.71
2474.00,98.73
2473.00,98.74
2472.00,98.75
2471.00,98.76
2470.00,98.77
2469.00,98.77
2468.00,98.76
2467.00,98.73
2466.00,98.70
2465.00,98.67
2464.00,98.65
2463.00,98.65
2462.00,98.66
2461.00,98.67
2460.00,98.67
2459.00,98.66
2458.00,98.66
2457.00,98.67
2456.00,98.68
2455.00,98.70
2454.00,98.72
2453.00,98.74
2452.00,98.75
2451.00,98.74
2450.00,98.72
2449.00,98.71
2448.00,98.71
2447.00,98.70
2446.00,98.70
2445.00,98.69
2444.00,98.69
2443.00,98.69
2442.00,98.70
2441.00,98.71
2440.00,98.73
2439.00,98.75
2438.00,98.78
2437.00,98.81
2436.00,98.82
2435.00,98.81
2434.00,98.81
2433.00,98.81
2432.00,98.81
2431.00,98.82
2430.00,98.80
2429.00,98.78
2428.00,98.76
2427.00,98.76
2426.00,98.77
2425.00,98.78
2424.00,98.78
2423.00,98.78
2422.00,98.77
2421.00,98.76
2420.00,98.75
2419.00,98.75
2418.00,98.76
2417.00,98.76
2416.00,98.77
2415.00,98.77
2414.00,98.76
2413.00,98.75
2412.00,98.75
2411.00,98.75
2410.00,98.76
2409.00,98.78
2408.00,98.79
2407.00,98.80
2406.00,98.82
2405.00,98.83
2404.00,98.84
2403.00,98.83
2402.00,98.83
2401.00,98.83
2400.00,98.85
2399.00,98.87
2398.00,98.88
2397.00,98.88
2396.00,98.87
2395.00,98.88
2394.00,98.89
2393.00,98.89
2392.00,98.89
2391.00,98.89
2390.00,98.89
2389.00,98.90
2388.00,98.91
2387.00,98.93
2386.00,98.94
2385.00,98.96
2384.00,98.96
2383.00,98.95
2382.00,98.94
2381.00,98.93
2380.00,98.94
2379.00,98.95
2378.00,98.96
2377.00,98.94
2376.00,98.90
2375.00,98.88
2374.00,98.88
2373.00,98.91
2372.00,98.95
2371.00,98.99
2370.00,99.00
2369.00,98.97
2368.00,98.96
2367.00,98.98
2366.00,98.99
2365.00,98.96
2364.00,98.92
2363.00,98.89
2362.00,98.90
2361.00,98.92
2360.00,98.94
2359.00,98.98
2358.00,98.99
2357.00,98.96
2356.00,98.90
2355.00,98.89
2354.00,98.92
2353.00,98.96
2352.00,98.98
2351.00,98.97
2350.00,98.94
2349.00,98.91
2348.00,98.89
2347.00,98.88
2346.00,98.89
2345.00,98.89
2344.00,98.87
2343.00,98.84
2342.00,98.82
2341.00,98.81
2340.00,98.81
2339.00,98.82
2338.00,98.84
2337.00,98.85
2336.00,98.83
2335.00,98.79
2334.00,98.75
2333.00,98.75
2332.00,98.78
2331.00,98.83
2330.00,98.86
2329.00,98.87
2328.00,98.86
2327.00,98.82
2326.00,98.77
2325.00,98.72
2324.00,98.68
2323.00,98.66
2322.00,98.68
2321.00,98.70
2320.00,98.72
2319.00,98.75
2318.00,98.77
2317.00,98.78
2316.00,98.78
2315.00,98.77
2314.00,98.76
2313.00,98.76
2312.00,98.76
2311.00,98.75
2310.00,98.73
2309.00,98.72
2308.00,98.71
2307.00,98.71
2306.00,98.72
2305.00,98.75
2304.00,98.79
2303.00,98.79
2302.00,98.77
2301.00,98.72
2300.00,98.69
2299.00,98.69
2298.00,98.71
2297.00,98.73
2296.00,98.74
2295.00,98.73
2294.00,98.69
2293.00,98.66
2292.00,98.63
2291.00,98.63
2290.00,98.63
2289.00,98.62
2288.00,98.59
2287.00,98.54
2286.00,98.50
2285.00,98.49
2284.00,98.52
2283.00,98.55
2282.00,98.56
2281.00,98.54
2280.00,98.52
2279.00,98.51
2278.00,98.50
2277.00,98.49
2276.00,98.45
2275.00,98.43
2274.00,98.45
2273.00,98.49
2272.00,98.54
2271.00,98.55
2270.00,98.53
2269.00,98.48
2268.00,98.44
2267.00,98.41
2266.00,98.39
2265.00,98.37
2264.00,98.35
2263.00,98.34
2262.00,98.36
2261.00,98.38
2260.00,98.41
2259.00,98.41
2258.00,98.40
2257.00,98.38
2256.00,98.35
2255.00,98.32
2254.00,98.30
2253.00,98.30
2252.00,98.31
2251.00,98.32
2250.00,98.33
2249.00,98.34
2248.00,98.35
2247.00,98.35
2246.00,98.33
2245.00,98.32
2244.00,98.33
2243.00,98.35
2242.00,98.34
2241.00,98.31
2240.00,98.26
2239.00,98.21
2238.00,98.19
2237.00,98.18
2236.00,98.18
2235.00,98.15
2234.00,98.12
2233.00,98.11
2232.00,98.13
2231.00,98.17
2230.00,98.20
2229.00,98.20
2228.00,98.19
2227.00,98.18
2226.00,98.20
2225.00,98.23
2224.00,98.25
2223.00,98.26
2222.00,98.28
2221.00,98.30
2220.00,98.32
2219.00,98.31
2218.00,98.29
2217.00,98.26
2216.00,98.24
2215.00,98.24
2214.00,98.22
2213.00,98.17
2212.00,98.11
2211.00,98.09
2210.00,98.11
2209.00,98.14
2208.00,98.14
2207.00,98.10
2206.00,98.06
2205.00,98.05
2204.00,98.06
2203.00,98.08
2202.00,98.09
2201.00,98.09
2200.00,98.08
2199.00,98.06
2198.00,98.06
2197.00,98.06
2196.00,98.09
2195.00,98.12
2194.00,98.15
2193.00,98.16
2192.00,98.12
2191.00,98.04
2190.00,97.94
2189.00,97.86
2188.00,97.83
2187.00,97.87
2186.00,97.93
2185.00,97.98
2184.00,97.99
2183.00,97.97
2182.00,97.96
2181.00,97.97
2180.00,97.99
2179.00,97.98
2178.00,97.92
2177.00,97.82
2176.00,97.75
2175.00,97.72
2174.00,97.75
2173.00,97.81
2172.00,97.87
2171.00,97.93
2170.00,97.95
2169.00,97.91
2168.00,97.82
2167.00,97.73
2166.00,97.67
2165.00,97.65
2164.00,97.66
2163.00,97.66
2162.00,97.66
2161.00,97.69
2160.00,97.78
2159.00,97.90
2158.00,98.02
2157.00,98.08
2156.00,98.08
2155.00,98.07
2154.00,98.09
2153.00,98.13
2152.00,98.14
2151.00,98.11
2150.00,98.05
2149.00,98.00
2148.00,97.97
2147.00,97.97
2146.00,97.99
2145.00,98.05
2144.00,98.12
2143.00,98.19
2142.00,98.23
2141.00,98.23
2140.00,98.21
2139.00,98.20
2138.00,98.20
2137.00,98.21
2136.00,98.21
2135.00,98.22
2134.00,98.24
2133.00,98.27
2132.00,98.32
2131.00,98.37
2130.00,98.41
2129.00,98.42
2128.00,98.41
2127.00,98.38
2126.00,98.35
2125.00,98.35
2124.00,98.35
2123.00,98.35
2122.00,98.33
2121.00,98.31
2120.00,98.29
2119.00,98.27
2118.00,98.25
2117.00,98.24
2116.00,98.25
2115.00,98.27
2114.00,98.27
2113.00,98.26
2112.00,98.24
2111.00,98.22
2110.00,98.20
2109.00,98.18
2108.00,98.19
2107.00,98.23
2106.00,98.30
2105.00,98.37
2104.00,98.40
2103.00,98.39
2102.00,98.36
2101.00,98.32
2100.00,98.30
2099.00,98.29
2098.00,98.27
2097.00,98.25
2096.00,98.24
2095.00,98.26
2094.00,98.31
2093.00,98.36
2092.00,98.37
2091.00,98.34
2090.00,98.29
2089.00,98.25
2088.00,98.24
2087.00,98.25
2086.00,98.26
2085.00,98.25
2084.00,98.22
2083.00,98.20
2082.00,98.20
2081.00,98.23
2080.00,98.25
2079.00,98.25
2078.00,98.22
2077.00,98.17
2076.00,98.12
2075.00,98.10
2074.00,98.10
2073.00,98.13
2072.00,98.16
2071.00,98.17
2070.00,98.17
2069.00,98.16
2068.00,98.14
2067.00,98.14
2066.00,98.14
2065.00,98.15
2064.00,98.18
2063.00,98.20
2062.00,98.19
2061.00,98.15
2060.00,98.11
2059.00,98.07
2058.00,98.02
2057.00,97.98
2056.00,97.97
2055.00,98.00
2054.00,98.04
2053.00,98.07
2052.00,98.06
2051.00,98.02
2050.00,97.97
2049.00,97.92
2048.00,97.87
2047.00,97.82
2046.00,97.79
2045.00,97.79
2044.00,97.82
2043.00,97.87
2042.00,97.88
2041.00,97.83
2040.00,97.74
2039.00,97.66
2038.00,97.63
2037.00,97.66
2036.00,97.71
2035.00,97.75
2034.00,97.78
2033.00,97.79
2032.00,97.77
2031.00,97.75
2030.00,97.77
2029.00,97.84
2028.00,97.93
2027.00,98.00
2026.00,98.04
2025.00,98.04
2024.00,98.00
2023.00,97.95
2022.00,97.92
2021.00,97.92
2020.00,97.92
2019.00,97.89
2018.00,97.87
2017.00,97.86
2016.00,97.88
2015.00,97.91
2014.00,97.91
2013.00,97.89
2012.00,97.87
2011.00,97.87
2010.00,97.90
2009.00,97.95
2008.00,97.98
2007.00,98.01
2006.00,98.03
2005.00,98.07
2004.00,98.10
2003.00,98.10
2002.00,98.09
2001.00,98.09
2000.00,98.09
1999.00,98.09
1998.00,98.07
1997.00,98.07
1996.00,98.08
1995.00,98.09
1994.00,98.07
1993.00,98.03
1992.00,97.99
1991.00,97.95
1990.00,97.93
1989.00,97.94
1988.00,97.98
1987.00,98.02
1986.00,98.03
1985.00,98.02
1984.00,97.99
1983.00,97.94
1982.00,97.87
1981.00,97.77
1980.00,97.70
1979.00,97.70
1978.00,97.77
1977.00,97.88
1976.00,97.99
1975.00,98.05
1974.00,98.08
1973.00,98.09
1972.00,98.10
1971.00,98.12
1970.00,98.13
1969.00,98.11
1968.00,98.07
1967.00,98.03
1966.00,98.04
1965.00,98.11
1964.00,98.19
1963.00,98.24
1962.00,98.24
1961.00,98.22
1960.00,98.21
1959.00,98.21
1958.00,98.20
1957.00,98.19
1956.00,98.17
1955.00,98.17
1954.00,98.16
1953.00,98.13
1952.00,98.12
1951.00,98.13
1950.00,98.16
1949.00,98.18
1948.00,98.19
1947.00,98.21
1946.00,98.23
1945.00,98.27
1944.00,98.30
1943.00,98.33
1942.00,98.36
1941.00,98.39
1940.00,98.41
1939.00,98.42
1938.00,98.42
1937.00,98.42
1936.00,98.42
1935.00,98.42
1934.00,98.40
1933.00,98.37
1932.00,98.34
1931.00,98.31
1930.00,98.29
1929.00,98.29
1928.00,98.27
1927.00,98.26
1926.00,98.28
1925.00,98.33
1924.00,98.41
1923.00,98.47
1922.00,98.50
1921.00,98.51
1920.00,98.52
1919.00,98.52
1918.00,98.51
1917.00,98.50
1916.00,98.48
1915.00,98.47
1914.00,98.46
1913.00,98.47
1912.00,98.49
1911.00,98.51
1910.00,98.52
1909.00,98.53
1908.00,98.53
1907.00,98.53
1906.00,98.54
1905.00,98.54
1904.00,98.54
1903.00,98.54
1902.00,98.54
1901.00,98.55
1900.00,98.56
1899.00,98.59
1898.00,98.61
1897.00,98.64
1896.00,98.65
1895.00,98.64
1894.00,98.62
1893.00,98.60
1892.00,98.58
1891.00,98.58
1890.00,98.61
1889.00,98.64
1888.00,98.65
1887.00,98.62
1886.00,98.59
1885.00,98.57
1884.00,98.56
1883.00,98.56
1882.00,98.55
1881.00,98.54
1880.00,98.54
1879.00,98.54
1878.00,98.56
1877.00,98.60
1876.00,98.63
1875.00,98.63
1874.00,98.62
1873.00,98.60
1872.00,98.59
1871.00,98.61
1870.00,98.63
1869.00,98.63
1868.00,98.62
1867.00,98.59
1866.00,98.57
1865.00,98.57
1864.00,98.58
1863.00,98.61
1862.00,98.63
1861.00,98.66
1860.00,98.66
1859.00,98.65
1858.00,98.63
1857.00,98.61
1856.00,98.61
1855.00,98.62
1854.00,98.61
1853.00,98.59
1852.00,98.57
1851.00,98.56
1850.00,98.56
1849.00,98.57
1848.00,98.60
1847.00,98.64
1846.00,98.69
1845.00,98.72
1844.00,98.72
1843.00,98.71
1842.00,98.70
1841.00,98.70
1840.00,98.71
1839.00,98.70
1838.00,98.68
1837.00,98.65
1836.00,98.62
1835.00,98.61
1834.00,98.63
1833.00,98.64
1832.00,98.65
1831.00,98.66
1830.00,98.67
1829.00,98.69
1828.00,98.69
1827.00,98.68
1826.00,98.66
1825.00,98.65
1824.00,98.65
1823.00,98.66
1822.00,98.68
1821.00,98.69
1820.00,98.69
1819.00,98.68
1818.00,98.67
1817.00,98.67
1816.00,98.67
1815.00,98.67
1814.00,98.67
1813.00,98.68
1812.00,98.70
1811.00,98.72
1810.00,98.73
1809.00,98.73
1808.00,98.72
1807.00,98.71
1806.00,98.71
1805.00,98.72
1804.00,98.73
1803.00,98.74
1802.00,98.74
1801.00,98.74
1800.00,98.73
1799.00,98.71
1798.00,98.70
1797.00,98.71
1796.00,98.72
1795.00,98.73
1794.00,98.73
1793.00,98.74
1792.00,98.74
1791.00,98.75
1790.00,98.75
1789.00,98.74
1788.00,98.73
1787.00,98.72
1786.00,98.72
1785.00,98.72
1784.00,98.72
1783.00,98.72
1782.00,98.71
1781.00,98.70
1780.00,98.69
1779.00,98.70
1778.00,98.71
1777.00,98.73
1776.00,98.74
1775.00,98.74
1774.00,98.74
1773.00,98.74
1772.00,98.73
1771.00,98.73
1770.00,98.72
1769.00,98.72
1768.00,98.71
1767.00,98.70
1766.00,98.69
1765.00,98.69
1764.00,98.70
1763.00,98.72
1762.00,98.73
1761.00,98.72
1760.00,98.70
1759.00,98.68
1758.00,98.66
1757.00,98.65
1756.00,98.64
1755.00,98.65
1754.00,98.65
1753.00,98.66
1752.00,98.65
1751.00,98.64
1750.00,98.62
1749.00,98.61
1748.00,98.61
1747.00,98.60
1746.00,98.59
1745.00,98.57
1744.00,98.55
1743.00,98.53
1742.00,98.53
1741.00,98.53
1740.00,98.55
1739.00,98.57
1738.00,98.59
1737.00,98.59
1736.00,98.60
1735.00,98.60
1734.00,98.60
1733.00,98.60
1732.00,98.60
1731.00,98.59
1730.00,98.58
1729.00,98.58
1728.00,98.58
1727.00,98.57
1726.00,98.57
1725.00,98.57
1724.00,98.57
1723.00,98.57
1722.00,98.56
1721.00,98.55
1720.00,98.53
1719.00,98.52
1718.00,98.51
1717.00,98.52
1716.00,98.54
1715.00,98.56
1714.00,98.56
1713.00,98.56
1712.00,98.56
1711.00,98.55
1710.00,98.53
1709.00,98.51
1708.00,98.50
1707.00,98.49
1706.00,98.50
1705.00,98.50
1704.00,98.52
1703.00,98.53
1702.00,98.53
1701.00,98.51
1700.00,98.48
1699.00,98.45
1698.00,98.44
1697.00,98.43
1696.00,98.42
1695.00,98.41
1694.00,98.40
1693.00,98.39
1692.00,98.37
1691.00,98.35
1690.00,98.33
1689.00,98.32
1688.00,98.31
1687.00,98.31
1686.00,98.30
1685.00,98.28
1684.00,98.25
1683.00,98.22
1682.00,98.20
1681.00,98.19
1680.00,98.17
1679.00,98.14
1678.00,98.11
1677.00,98.08
1676.00,98.06
1675.00,98.04
1674.00,98.03
1673.00,98.01
1672.00,97.99
1671.00,97.95
1670.00,97.91
1669.00,97.86
1668.00,97.82
1667.00,97.79
1666.00,97.77
1665.00,97.75
1664.00,97.73
1663.00,97.71
1662.00,97.69
1661.00,97.67
1660.00,97.64
1659.00,97.61
1658.00,97.59
1657.00,97.56
1656.00,97.54
1655.00,97.52
1654.00,97.52
1653.00,97.52
1652.00,97.51
1651.00,97.48
1650.00,97.46
1649.00,97.44
1648.00,97.41
1647.00,97.38
1646.00,97.37
1645.00,97.37
1644.00,97.37
1643.00,97.37
1642.00,97.37
1641.00,97.36
1640.00,97.35
1639.00,97.34
1638.00,97.33
1637.00,97.34
1636.00,97.36
1635.00,97.37
1634.00,97.37
1633.00,97.37
1632.00,97.37
1631.00,97.38
1630.00,97.38
1629.00,97.39
1628.00,97.39
1627.00,97.40
1626.00,97.40
1625.00,97.40
1624.00,97.40
1623.00,97.41
1622.00,97.44
1621.00,97.49
1620.00,97.53
1619.00,97.56
1618.00,97.59
1617.00,97.62
1616.00,97.64
1615.00,97.65
1614.00,97.65
1613.00,97.66
1612.00,97.67
1611.00,97.69
1610.00,97.72
1609.00,97.75
1608.00,97.77
1607.00,97.79
1606.00,97.80
1605.00,97.81
1604.00,97.82
1603.00,97.84
1602.00,97.85
1601.00,97.86
1600.00,97.86
1599.00,97.86
1598.00,97.87
1597.00,97.87
1596.00,97.88
1595.00,97.90
1594.00,97.92
1593.00,97.94
1592.00,97.96
1591.00,97.97
1590.00,97.98
1589.00,97.99
1588.00,97.98
1587.00,97.99
1586.00,98.00
1585.00,98.03
1584.00,98.06
1583.00,98.08
1582.00,98.09
1581.00,98.10
1580.00,98.11
1579.00,98.13
1578.00,98.15
1577.00,98.17
1576.00,98.17
1575.00,98.16
1574.00,98.16
1573.00,98.18
1572.00,98.20
1571.00,98.22
1570.00,98.25
1569.00,98.27
1568.00,98.27
1567.00,98.26
1566.00,98.26
1565.00,98.26
1564.00,98.27
1563.00,98.28
1562.00,98.29
1561.00,98.28
1560.00,98.28
1559.00,98.27
1558.00,98.27
1557.00,98.27
1556.00,98.27
1555.00,98.28
1554.00,98.28
1553.00,98.29
1552.00,98.31
1551.00,98.32
1550.00,98.33
1549.00,98.34
1548.00,98.34
1547.00,98.33
1546.00,98.33
1545.00,98.33
1544.00,98.33
1543.00,98.33
1542.00,98.34
1541.00,98.34
1540.00,98.35
1539.00,98.34
1538.00,98.34
1537.00,98.34
1536.00,98.35
1535.00,98.37
1534.00,98.38
1533.00,98.39
1532.00,98.39
1531.00,98.38
1530.00,98.37
1529.00,98.37
1528.00,98.37
1527.00,98.38
1526.00,98.40
1525.00,98.41
1524.00,98.42
1523.00,98.44
1522.00,98.46
1521.00,98.46
1520.00,98.44
1519.00,98.41
1518.00,98.40
1517.00,98.41
1516.00,98.42
1515.00,98.43
1514.00,98.43
1513.00,98.42
1512.00,98.42
1511.00,98.41
1510.00,98.41
1509.00,98.40
1508.00,98.39
1507.00,98.37
1506.00,98.35
1505.00,98.34
1504.00,98.34
1503.00,98.34
1502.00,98.34
1501.00,98.32
1500.00,98.31
1499.00,98.29
1498.00,98.28
1497.00,98.26
1496.00,98.25
1495.00,98.23
1494.00,98.22
1493.00,98.19
1492.00,98.15
1491.00,98.10
1490.00,98.05
1489.00,98.01
1488.00,97.97
1487.00,97.95
1486.00,97.92
1485.00,97.89
1484.00,97.85
1483.00,97.80
1482.00,97.74
1481.00,97.69
1480.00,97.64
1479.00,97.59
1478.00,97.54
1477.00,97.49
1476.00,97.44
1475.00,97.39
1474.00,97.34
1473.00,97.27
1472.00,97.20
1471.00,97.13
1470.00,97.08
1469.00,97.04
1468.00,97.00
1467.00,96.97
1466.00,96.94
1465.00,96.91
1464.00,96.87
1463.00,96.84
1462.00,96.82
1461.00,96.81
1460.00,96.81
1459.00,96.80
1458.00,96.79
1457.00,96.76
1456.00,96.72
1455.00,96.69
1454.00,96.66
1453.00,96.64
1452.00,96.61
1451.00,96.58
1450.00,96.54
1449.00,96.50
1448.00,96.46
1447.00,96.42
1446.00,96.39
1445.00,96.35
1444.00,96.32
1443.00,96.29
1442.00,96.26
1441.00,96.24
1440.00,96.21
1439.00,96.20
1438.00,96.18
1437.00,96.17
1436.00,96.14
1435.00,96.11
1434.00,96.08
1433.00,96.05
1432.00,96.03
1431.00,96.01
1430.00,96.00
1429.00,95.99
1428.00,95.98
1427.00,95.95
1426.00,95.92
1425.00,95.90
1424.00,95.88
1423.00,95.88
1422.00,95.89
1421.00,95.88
1420.00,95.86
1419.00,95.83
1418.00,95.81
1417.00,95.80
1416.00,95.81
1415.00,95.83
1414.00,95.85
1413.00,95.86
1412.00,95.87
1411.00,95.89
1410.00,95.92
1409.00,95.95
1408.00,95.97
1407.00,96.00
1406.00,96.01
1405.00,96.03
1404.00,96.04
1403.00,96.05
1402.00,96.06
1401.00,96.06
1400.00,96.05
1399.00,96.03
1398.00,96.01
1397.00,95.99
1396.00,95.97
1395.00,95.95
1394.00,95.92
1393.00,95.89
1392.00,95.86
1391.00,95.83
1390.00,95.80
1389.00,95.76
1388.00,95.71
1387.00,95.65
1386.00,95.58
1385.00,95.48
1384.00,95.37
1383.00,95.24
1382.00,95.11
1381.00,94.97
1380.00,94.83
1379.00,94.68
1378.00,94.53
1377.00,94.41
1376.00,94.32
1375.00,94.22
1374.00,94.13
1373.00,94.04
1372.00,93.96
1371.00,93.90
1370.00,93.85
1369.00,93.80
1368.00,93.75
1367.00,93.71
1366.00,93.68
1365.00,93.68
1364.00,93.69
1363.00,93.73
1362.00,93.79
1361.00,93.85
1360.00,93.92
1359.00,94.00
1358.00,94.08
1357.00,94.17
1356.00,94.25
1355.00,94.33
1354.00,94.41
1353.00,94.49
1352.00,94.56
1351.00,94.61
1350.00,94.64
1349.00,94.67
1348.00,94.68
1347.00,94.69
1346.00,94.68
1345.00,94.67
1344.00,94.66
1343.00,94.64
1342.00,94.61
1341.00,94.58
1340.00,94.54
1339.00,94.51
1338.00,94.48
1337.00,94.46
1336.00,94.44
1335.00,94.43
1334.00,94.44
1333.00,94.46
1332.00,94.49
1331.00,94.52
1330.00,94.55
1329.00,94.57
1328.00,94.59
1327.00,94.61
1326.00,94.62
1325.00,94.62
1324.00,94.59
1323.00,94.54
1322.00,94.48
1321.00,94.41
1320.00,94.32
1319.00,94.22
1318.00,94.12
1317.00,94.03
1316.00,93.95
1315.00,93.89
1314.00,93.85
1313.00,93.83
1312.00,93.84
1311.00,93.89
1310.00,93.96
1309.00,94.04
1308.00,94.13
1307.00,94.22
1306.00,94.32
1305.00,94.40
1304.00,94.49
1303.00,94.56
1302.00,94.63
1301.00,94.69
1300.00,94.75
1299.00,94.81
1298.00,94.87
1297.00,94.95
1296.00,95.03
1295.00,95.11
1294.00,95.20
1293.00,95.29
1292.00,95.37
1291.00,95.45
1290.00,95.51
1289.00,95.57
1288.00,95.61
1287.00,95.66
1286.00,95.69
1285.00,95.70
1284.00,95.70
1283.00,95.68
1282.00,95.65
1281.00,95.60
1280.00,95.54
1279.00,95.49
1278.00,95.46
1277.00,95.45
1276.00,95.46
1275.00,95.48
1274.00,95.51
1273.00,95.52
1272.00,95.53
1271.00,95.53
1270.00,95.54
1269.00,95.53
1268.00,95.53
1267.00,95.51
1266.00,95.48
1265.00,95.47
1264.00,95.47
1263.00,95.49
1262.00,95.51
1261.00,95.53
1260.00,95.55
1259.00,95.57
1258.00,95.60
1257.00,95.64
1256.00,95.69
1255.00,95.76
1254.00,95.82
1253.00,95.88
1252.00,95.92
1251.00,95.96
1250.00,96.00
1249.00,96.03
1248.00,96.07
1247.00,96.09
1246.00,96.11
1245.00,96.13
1244.00,96.15
1243.00,96.16
1242.00,96.17
1241.00,96.15
1240.00,96.14
1239.00,96.12
1238.00,96.09
1237.00,96.07
1236.00,96.04
1235.00,96.03
1234.00,96.02
1233.00,96.02
1232.00,96.02
1231.00,96.00
1230.00,95.97
1229.00,95.95
1228.00,95.94
1227.00,95.96
1226.00,95.99
1225.00,96.03
1224.00,96.10
1223.00,96.18
1222.00,96.26
1221.00,96.35
1220.00,96.43
1219.00,96.52
1218.00,96.61
1217.00,96.70
1216.00,96.78
1215.00,96.84
1214.00,96.87
1213.00,96.88
1212.00,96.88
1211.00,96.86
1210.00,96.83
1209.00,96.78
1208.00,96.73
1207.00,96.67
1206.00,96.61
1205.00,96.53
1204.00,96.45
1203.00,96.38
1202.00,96.31
1201.00,96.24
1200.00,96.19
1199.00,96.17
1198.00,96.18
1197.00,96.21
1196.00,96.27
1195.00,96.34
1194.00,96.43
1193.00,96.53
1192.00,96.65
1191.00,96.77
1190.00,96.88
1189.00,96.97
1188.00,97.04
1187.00,97.10
1186.00,97.15
1185.00,97.17
1184.00,97.16
1183.00,97.12
1182.00,97.08
1181.00,97.07
1180.00,97.05
1179.00,97.01
1178.00,96.92
1177.00,96.80
1176.00,96.64
1175.00,96.48
1174.00,96.32
1173.00,96.17
1172.00,96.01
1171.00,95.84
1170.00,95.64
1169.00,95.41
1168.00,95.13
1167.00,94.83
1166.00,94.51
1165.00,94.18
1164.00,93.86
1163.00,93.55
1162.00,93.23
1161.00,92.92
1160.00,92.65
1159.00,92.42
1158.00,92.25
1157.00,92.15
1156.00,92.10
1155.00,92.11
1154.00,92.16
1153.00,92.25
1152.00,92.36
1151.00,92.49
1150.00,92.64
1149.00,92.79
1148.00,92.95
1147.00,93.12
1146.00,93.29
1145.00,93.46
1144.00,93.61
1143.00,93.74
1142.00,93.82
1141.00,93.87
1140.00,93.89
1139.00,93.88
1138.00,93.86
1137.00,93.80
1136.00,93.70
1135.00,93.58
1134.00,93.45
1133.00,93.30
1132.00,93.15
1131.00,92.98
1130.00,92.79
1129.00,92.57
1128.00,92.35
1127.00,92.14
1126.00,91.93
1125.00,91.72
1124.00,91.50
1123.00,91.28
1122.00,91.06
1121.00,90.84
1120.00,90.63
1119.00,90.44
1118.00,90.26
1117.00,90.08
1116.00,89.89
1115.00,89.69
1114.00,89.49
1113.00,89.29
1112.00,89.10
1111.00,88.94
1110.00,88.83
1109.00,88.75
1108.00,88.69
1107.00,88.63
1106.00,88.56
1105.00,88.48
1104.00,88.36
1103.00,88.22
1102.00,88.04
1101.00,87.83
1100.00,87.61
1099.00,87.38
1098.00,87.18
1097.00,87.00
1096.00,86.86
1095.00,86.74
1094.00,86.66
1093.00,86.58
1092.00,86.49
1091.00,86.39
1090.00,86.30
1089.00,86.20
1088.00,86.08
1087.00,85.93
1086.00,85.75
1085.00,85.58
1084.00,85.42
1083.00,85.27
1082.00,85.13
1081.00,84.96
1080.00,84.77
1079.00,84.54
1078.00,84.30
1077.00,84.03
1076.00,83.78
1075.00,83.56
1074.00,83.40
1073.00,83.25
1072.00,83.10
1071.00,82.94
1070.00,82.75
1069.00,82.54
1068.00,82.29
1067.00,82.00
1066.00,81.69
1065.00,81.35
1064.00,81.01
1063.00,80.69
1062.00,80.39
1061.00,80.11
1060.00,79.86
1059.00,79.67
1058.00,79.51
1057.00,79.39
1056.00,79.29
1055.00,79.22
1054.00,79.19
1053.00,79.15
1052.00,79.11
1051.00,79.07
1050.00,79.05
1049.00,79.02
1048.00,78.98
1047.00,78.94
1046.00,78.89
1045.00,78.83
1044.00,78.78
1043.00,78.76
1042.00,78.77
1041.00,78.79
1040.00,78.79
1039.00,78.77
1038.00,78.74
1037.00,78.68
1036.00,78.60
1035.00,78.52
1034.00,78.44
1033.00,78.33
1032.00,78.19
1031.00,78.02
1030.00,77.84
1029.00,77.65
1028.00,77.46
1027.00,77.27
1026.00,77.09
1025.00,76.92
1024.00,76.77
1023.00,76.64
1022.00,76.54
1021.00,76.46
1020.00,76.39
1019.00,76.34
1018.00,76.30
1017.00,76.27
1016.00,76.26
1015.00,76.30
1014.00,76.39
1013.00,76.52
1012.00,76.69
1011.00,76.87
1010.00,77.06
1009.00,77.23
1008.00,77.38
1007.00,77.55
1006.00,77.72
1005.00,77.87
1004.00,77.99
1003.00,78.04
1002.00,78.03
1001.00,77.92
1000.00,77.74
999.00,77.52
998.00,77.29
997.00,77.06
996.00,76.86
995.00,76.71
994.00,76.63
993.00,76.59
992.00,76.60
991.00,76.67
990.00,76.80
989.00,76.98
988.00,77.21
987.00,77.50
986.00,77.82
985.00,78.17
984.00,78.54
983.00,78.91
982.00,79.30
981.00,79.69
980.00,80.08
979.00,80.47
978.00,80.85
977.00,81.20
976.00,81.50
975.00,81.77
974.00,82.02
973.00,82.24
972.00,82.44
971.00,82.63
970.00,82.81
969.00,82.96
968.00,83.08
967.00,83.19
966.00,83.30
965.00,83.43
964.00,83.55
963.00,83.69
962.00,83.83
961.00,83.98
960.00,84.14
959.00,84.31
958.00,84.49
957.00,84.69
956.00,84.88
955.00,85.08
954.00,85.30
953.00,85.51
952.00,85.73
951.00,85.95
950.00,86.16
949.00,86.34
948.00,86.51
947.00,86.68
946.00,86.84
945.00,86.99
944.00,87.12
943.00,87.25
942.00,87.38
941.00,87.53
940.00,87.67
939.00,87.79
938.00,87.89
937.00,87.96
936.00,88.03
935.00,88.11
934.00,88.22
933.00,88.33
932.00,88.42
931.00,88.50
930.00,88.59
929.00,88.67
928.00,88.76
927.00,88.84
926.00,88.93
925.00,89.04
924.00,89.15
923.00,89.25
922.00,89.34
921.00,89.43
920.00,89.51
919.00,89.61
918.00,89.68
917.00,89.72
916.00,89.73
915.00,89.73
914.00,89.75
913.00,89.77
912.00,89.79
911.00,89.80
910.00,89.80
909.00,89.76
908.00,89.67
907.00,89.55
906.00,89.42
905.00,89.29
904.00,89.15
903.00,89.00
902.00,88.85
901.00,88.67
900.00,88.47
899.00,88.26
898.00,88.04
897.00,87.84
896.00,87.68
895.00,87.56
894.00,87.51
893.00,87.51
892.00,87.55
891.00,87.64
890.00,87.78
889.00,87.94
888.00,88.13
887.00,88.33
886.00,88.55
885.00,88.77
884.00,88.97
883.00,89.16
882.00,89.34
881.00,89.52
880.00,89.69
879.00,89.86
878.00,90.01
877.00,90.14
876.00,90.24
875.00,90.33
874.00,90.41
873.00,90.49
872.00,90.56
871.00,90.61
870.00,90.64
869.00,90.66
868.00,90.70
867.00,90.76
866.00,90.85
865.00,90.92
864.00,90.98
863.00,91.02
862.00,91.04
861.00,91.03
860.00,91.03
859.00,91.06
858.00,91.14
857.00,91.25
856.00,91.36
855.00,91.45
854.00,91.50
853.00,91.51
852.00,91.49
851.00,91.46
850.00,91.46
849.00,91.48
848.00,91.49
847.00,91.50
846.00,91.51
845.00,91.52
844.00,91.54
843.00,91.59
842.00,91.63
841.00,91.66
840.00,91.67
839.00,91.68
838.00,91.71
837.00,91.72
836.00,91.71
835.00,91.69
834.00,91.68
833.00,91.69
832.00,91.70
831.00,91.72
830.00,91.75
829.00,91.78
828.00,91.80
827.00,91.79
826.00,91.76
825.00,91.73
824.00,91.71
823.00,91.72
822.00,91.73
821.00,91.74
820.00,91.73
819.00,91.72
818.00,91.71
817.00,91.71
816.00,91.71
815.00,91.73
814.00,91.75
813.00,91.76
812.00,91.75
811.00,91.73
810.00,91.68
809.00,91.63
808.00,91.61
807.00,91.62
806.00,91.65
805.00,91.68
804.00,91.70
803.00,91.70
802.00,91.69
801.00,91.68
800.00,91.66
799.00,91.65
798.00,91.65
797.00,91.65
796.00,91.64
795.00,91.61
794.00,91.58
793.00,91.56
792.00,91.55
791.00,91.55
790.00,91.55
789.00,91.55
788.00,91.52
787.00,91.50
786.00,91.47
785.00,91.45
784.00,91.43
783.00,91.43
782.00,91.43
781.00,91.43
780.00,91.43
779.00,91.43
778.00,91.43
777.00,91.42
776.00,91.40
775.00,91.37
774.00,91.34
773.00,91.31
772.00,91.27
771.00,91.23
770.00,91.19
769.00,91.17
768.00,91.15
767.00,91.13
766.00,91.13
765.00,91.13
764.00,91.12
763.00,91.09
762.00,91.05
761.00,91.01
760.00,90.95
759.00,90.91
758.00,90.89
757.00,90.88
756.00,90.87
755.00,90.86
754.00,90.86
753.00,90.85
752.00,90.82
751.00,90.79
750.00,90.76
749.00,90.74
748.00,90.73
747.00,90.71
746.00,90.68
745.00,90.64
744.00,90.60
743.00,90.56
742.00,90.53
741.00,90.50
740.00,90.47
739.00,90.45
738.00,90.43
737.00,90.40
736.00,90.35
735.00,90.30
734.00,90.24
733.00,90.19
732.00,90.12
731.00,90.06
730.00,90.03
729.00,90.01
728.00,89.98
727.00,89.93
726.00,89.88
725.00,89.82
724.00,89.74
723.00,89.66
722.00,89.59
721.00,89.55
720.00,89.53
719.00,89.50
718.00,89.48
717.00,89.46
716.00,89.45
715.00,89.43
714.00,89.39
713.00,89.32
712.00,89.25
711.00,89.21
710.00,89.18
709.00,89.16
708.00,89.11
707.00,89.06
706.00,89.02
705.00,89.00
704.00,88.97
703.00,88.96
702.00,88.96
701.00,88.99
700.00,89.03
699.00,89.05
698.00,89.04
697.00,89.02
696.00,89.00
695.00,89.01
694.00,89.03
693.00,89.04
692.00,89.03
691.00,89.00
690.00,89.00
689.00,89.01
688.00,88.99
687.00,88.94
686.00,88.89
685.00,88.84
684.00,88.77
683.00,88.65
682.00,88.46
681.00,88.21
680.00,87.94
679.00,87.67
678.00,87.39
677.00,87.04
676.00,86.60
675.00,86.11
674.00,85.66
673.00,85.28
672.00,85.01
671.00,84.82
670.00,84.69
669.00,84.58
668.00,84.51
667.00,84.49
666.00,84.55
665.00,84.64
664.00,84.72
663.00,84.74
662.00,84.74
661.00,84.75
660.00,84.79
659.00,84.85
658.00,84.89
657.00,84.89
656.00,84.83
655.00,84.76
654.00,84.71
653.00,84.74
652.00,84.85
651.00,85.02
650.00,85.17
649.00,85.22
648.00,85.19
647.00,85.14
646.00,85.09
645.00,85.02
644.00,84.91
643.00,84.87
642.00,84.94
641.00,85.09
640.00,85.19
639.00,85.16
638.00,85.00
637.00,84.82
636.00,84.68
635.00,84.63
634.00,84.65
633.00,84.69
632.00,84.71
631.00,84.72
630.00,84.75
629.00,84.75
628.00,84.64
627.00,84.39
626.00,84.06
625.00,83.78
624.00,83.64
623.00,83.63
622.00,83.67
621.00,83.69
620.00,83.72
619.00,83.79
618.00,83.83
617.00,83.71
616.00,83.46
615.00,83.17
614.00,82.86
613.00,82.46
612.00,81.96
611.00,81.52
610.00,81.32
609.00,81.43
608.00,81.77
607.00,82.16
606.00,82.40
605.00,82.44
604.00,82.39
603.00,82.38
602.00,82.30
601.00,82.07
600.00,81.77
599.00,81.64
598.00,81.78
597.00,82.00
596.00,82.15
595.00,82.24
594.00,82.33
593.00,82.36
592.00,82.26
591.00,82.08
590.00,81.87
589.00,81.64
588.00,81.42
587.00,81.35
586.00,81.54
585.00,81.91
584.00,82.27
583.00,82.53
582.00,82.63
581.00,82.51
580.00,82.15
579.00,81.65
578.00,81.18
577.00,80.91
576.00,80.92
575.00,81.21
574.00,81.51
573.00,81.51
572.00,81.23
571.00,80.91
570.00,80.74
569.00,80.69
568.00,80.82
567.00,81.18
566.00,81.52
565.00,81.45
564.00,80.99
563.00,80.63
562.00,80.78
561.00,81.29
560.00,81.74
559.00,81.81
558.00,81.53
557.00,81.22
556.00,81.32
555.00,81.95
554.00,82.59
553.00,82.56
552.00,81.78
551.00,80.87
550.00,80.29
