Created as New Dataset,55 Courtaulds
cm-1,%T
4000.00,98.49
3999.00,98.46
3998.00,98.43
3997.00,98.40
3996.00,98.39
3995.00,98.39
3994.00,98.40
3993.00,98.42
3992.00,98.43
3991.00,98.43
3990.00,98.42
3989.00,98.41
3988.00,98.40
3987.00,98.40
3986.00,98.39
3985.00,98.39
3984.00,98.40
3983.00,98.40
3982.00,98.40
3981.00,98.41
3980.00,98.43
3979.00,98.44
3978.00,98.45
3977.00,98.45
3976.00,98.45
3975.00,98.44
3974.00,98.44
3973.00,98.45
3972.00,98.45
3971.00,98.45
3970.00,98.43
3969.00,98.40
3968.00,98.38
3967.00,98.37
3966.00,98.38
3965.00,98.39
3964.00,98.40
3963.00,98.40
3962.00,98.40
3961.00,98.39
3960.00,98.39
3959.00,98.39
3958.00,98.39
3957.00,98.39
3956.00,98.39
3955.00,98.39
3954.00,98.39
3953.00,98.39
3952.00,98.40
3951.00,98.41
3950.00,98.43
3949.00,98.45
3948.00,98.46
3947.00,98.47
3946.00,98.47
3945.00,98.46
3944.00,98.45
3943.00,98.45
3942.00,98.46
3941.00,98.47
3940.00,98.47
3939.00,98.45
3938.00,98.43
3937.00,98.40
3936.00,98.39
3935.00,98.38
3934.00,98.39
3933.00,98.40
3932.00,98.41
3931.00,98.42
3930.00,98.43
3929.00,98.45
3928.00,98.46
3927.00,98.47
3926.00,98.47
3925.00,98.47
3924.00,98.45
3923.00,98.44
3922.00,98.42
3921.00,98.41
3920.00,98.41
3919.00,98.42
3918.00,98.43
3917.00,98.44
3916.00,98.44
3915.00,98.44
3914.00,98.43
3913.00,98.42
3912.00,98.43
3911.00,98.45
3910.00,98.48
3909.00,98.51
3908.00,98.53
3907.00,98.52
3906.00,98.50
3905.00,98.49
3904.00,98.47
3903.00,98.47
3902.00,98.48
3901.00,98.48
3900.00,98.47
3899.00,98.46
3898.00,98.43
3897.00,98.41
3896.00,98.40
3895.00,98.41
3894.00,98.45
3893.00,98.47
3892.00,98.49
3891.00,98.49
3890.00,98.49
3889.00,98.48
3888.00,98.45
3887.00,98.42
3886.00,98.39
3885.00,98.38
3884.00,98.38
3883.00,98.38
3882.00,98.38
3881.00,98.40
3880.00,98.44
3879.00,98.50
3878.00,98.54
3877.00,98.54
3876.00,98.53
3875.00,98.50
3874.00,98.48
3873.00,98.47
3872.00,98.45
3871.00,98.42
3870.00,98.39
3869.00,98.39
3868.00,98.40
3867.00,98.40
3866.00,98.37
3865.00,98.36
3864.00,98.37
3863.00,98.41
3862.00,98.44
3861.00,98.46
3860.00,98.46
3859.00,98.45
3858.00,98.43
3857.00,98.41
3856.00,98.38
3855.00,98.35
3854.00,98.32
3853.00,98.31
3852.00,98.31
3851.00,98.31
3850.00,98.31
3849.00,98.32
3848.00,98.36
3847.00,98.42
3846.00,98.47
3845.00,98.50
3844.00,98.52
3843.00,98.53
3842.00,98.53
3841.00,98.53
3840.00,98.51
3839.00,98.49
3838.00,98.46
3837.00,98.44
3836.00,98.43
3835.00,98.42
3834.00,98.41
3833.00,98.42
3832.00,98.43
3831.00,98.44
3830.00,98.43
3829.00,98.42
3828.00,98.41
3827.00,98.41
3826.00,98.42
3825.00,98.44
3824.00,98.45
3823.00,98.42
3822.00,98.38
3821.00,98.36
3820.00,98.35
3819.00,98.36
3818.00,98.35
3817.00,98.32
3816.00,98.30
3815.00,98.30
3814.00,98.31
3813.00,98.33
3812.00,98.35
3811.00,98.38
3810.00,98.40
3809.00,98.39
3808.00,98.37
3807.00,98.35
3806.00,98.35
3805.00,98.37
3804.00,98.40
3803.00,98.40
3802.00,98.38
3801.00,98.36
3800.00,98.33
3799.00,98.32
3798.00,98.31
3797.00,98.32
3796.00,98.35
3795.00,98.37
3794.00,98.38
3793.00,98.38
3792.00,98.38
3791.00,98.38
3790.00,98.38
3789.00,98.39
3788.00,98.39
3787.00,98.40
3786.00,98.41
3785.00,98.42
3784.00,98.42
3783.00,98.42
3782.00,98.39
3781.00,98.36
3780.00,98.34
3779.00,98.34
3778.00,98.36
3777.00,98.38
3776.00,98.37
3775.00,98.36
3774.00,98.34
3773.00,98.34
3772.00,98.33
3771.00,98.31
3770.00,98.28
3769.00,98.27
3768.00,98.28
3767.00,98.31
3766.00,98.32
3765.00,98.32
3764.00,98.31
3763.00,98.28
3762.00,98.25
3761.00,98.23
3760.00,98.22
3759.00,98.22
3758.00,98.22
3757.00,98.22
3756.00,98.22
3755.00,98.23
3754.00,98.22
3753.00,98.20
3752.00,98.18
3751.00,98.16
3750.00,98.16
3749.00,98.16
3748.00,98.17
3747.00,98.16
3746.00,98.15
3745.00,98.14
3744.00,98.15
3743.00,98.18
3742.00,98.20
3741.00,98.21
3740.00,98.23
3739.00,98.26
3738.00,98.28
3737.00,98.30
3736.00,98.32
3735.00,98.33
3734.00,98.34
3733.00,98.33
3732.00,98.31
3731.00,98.28
3730.00,98.25
3729.00,98.22
3728.00,98.18
3727.00,98.15
3726.00,98.13
3725.00,98.12
3724.00,98.11
3723.00,98.11
3722.00,98.12
3721.00,98.14
3720.00,98.15
3719.00,98.15
3718.00,98.14
3717.00,98.13
3716.00,98.15
3715.00,98.17
3714.00,98.18
3713.00,98.17
3712.00,98.15
3711.00,98.12
3710.00,98.11
3709.00,98.11
3708.00,98.13
3707.00,98.13
3706.00,98.13
3705.00,98.12
3704.00,98.11
3703.00,98.12
3702.00,98.12
3701.00,98.13
3700.00,98.14
3699.00,98.15
3698.00,98.14
3697.00,98.14
3696.00,98.14
3695.00,98.14
3694.00,98.13
3693.00,98.11
3692.00,98.08
3691.00,98.05
3690.00,98.03
3689.00,98.03
3688.00,98.03
3687.00,98.04
3686.00,98.03
3685.00,98.03
3684.00,98.05
3683.00,98.07
3682.00,98.07
3681.00,98.06
3680.00,98.05
3679.00,98.05
3678.00,98.05
3677.00,98.04
3676.00,98.01
3675.00,97.98
3674.00,97.97
3673.00,97.96
3672.00,97.95
3671.00,97.93
3670.00,97.92
3669.00,97.92
3668.00,97.93
3667.00,97.93
3666.00,97.93
3665.00,97.92
3664.00,97.92
3663.00,97.92
3662.00,97.91
3661.00,97.89
3660.00,97.86
3659.00,97.81
3658.00,97.77
3657.00,97.74
3656.00,97.72
3655.00,97.72
3654.00,97.71
3653.00,97.69
3652.00,97.68
3651.00,97.69
3650.00,97.70
3649.00,97.70
3648.00,97.67
3647.00,97.63
3646.00,97.58
3645.00,97.56
3644.00,97.55
3643.00,97.55
3642.00,97.55
3641.00,97.54
3640.00,97.52
3639.00,97.51
3638.00,97.51
3637.00,97.50
3636.00,97.48
3635.00,97.44
3634.00,97.40
3633.00,97.39
3632.00,97.38
3631.00,97.37
3630.00,97.32
3629.00,97.25
3628.00,97.18
3627.00,97.15
3626.00,97.12
3625.00,97.12
3624.00,97.14
3623.00,97.16
3622.00,97.15
3621.00,97.10
3620.00,97.04
3619.00,96.98
3618.00,96.94
3617.00,96.92
3616.00,96.90
3615.00,96.86
3614.00,96.81
3613.00,96.75
3612.00,96.71
3611.00,96.68
3610.00,96.66
3609.00,96.63
3608.00,96.59
3607.00,96.55
3606.00,96.52
3605.00,96.50
3604.00,96.48
3603.00,96.45
3602.00,96.42
3601.00,96.39
3600.00,96.36
3599.00,96.32
3598.00,96.27
3597.00,96.22
3596.00,96.16
3595.00,96.12
3594.00,96.08
3593.00,96.05
3592.00,96.02
3591.00,95.99
3590.00,95.95
3589.00,95.91
3588.00,95.86
3587.00,95.82
3586.00,95.77
3585.00,95.72
3584.00,95.66
3583.00,95.61
3582.00,95.56
3581.00,95.53
3580.00,95.50
3579.00,95.47
3578.00,95.43
3577.00,95.38
3576.00,95.33
3575.00,95.27
3574.00,95.22
3573.00,95.17
3572.00,95.12
3571.00,95.08
3570.00,95.03
3569.00,94.99
3568.00,94.95
3567.00,94.91
3566.00,94.88
3565.00,94.83
3564.00,94.79
3563.00,94.75
3562.00,94.71
3561.00,94.66
3560.00,94.60
3559.00,94.53
3558.00,94.46
3557.00,94.40
3556.00,94.36
3555.00,94.33
3554.00,94.27
3553.00,94.20
3552.00,94.12
3551.00,94.05
3550.00,94.00
3549.00,93.95
3548.00,93.89
3547.00,93.82
3546.00,93.75
3545.00,93.70
3544.00,93.65
3543.00,93.61
3542.00,93.55
3541.00,93.49
3540.00,93.42
3539.00,93.36
3538.00,93.30
3537.00,93.24
3536.00,93.18
3535.00,93.13
3534.00,93.08
3533.00,93.02
3532.00,92.96
3531.00,92.89
3530.00,92.81
3529.00,92.75
3528.00,92.69
3527.00,92.64
3526.00,92.59
3525.00,92.52
3524.00,92.44
3523.00,92.34
3522.00,92.26
3521.00,92.19
3520.00,92.11
3519.00,92.03
3518.00,91.94
3517.00,91.85
3516.00,91.76
3515.00,91.68
3514.00,91.60
3513.00,91.53
3512.00,91.45
3511.00,91.37
3510.00,91.28
3509.00,91.18
3508.00,91.07
3507.00,90.96
3506.00,90.85
3505.00,90.75
3504.00,90.64
3503.00,90.51
3502.00,90.38
3501.00,90.25
3500.00,90.13
3499.00,90.04
3498.00,89.95
3497.00,89.85
3496.00,89.74
3495.00,89.62
3494.00,89.51
3493.00,89.40
3492.00,89.30
3491.00,89.20
3490.00,89.11
3489.00,89.04
3488.00,88.99
3487.00,88.95
3486.00,88.90
3485.00,88.85
3484.00,88.81
3483.00,88.76
3482.00,88.71
3481.00,88.67
3480.00,88.63
3479.00,88.59
3478.00,88.55
3477.00,88.51
3476.00,88.46
3475.00,88.40
3474.00,88.35
3473.00,88.28
3472.00,88.20
3471.00,88.12
3470.00,88.04
3469.00,87.98
3468.00,87.94
3467.00,87.89
3466.00,87.83
3465.00,87.75
3464.00,87.65
3463.00,87.54
3462.00,87.45
3461.00,87.37
3460.00,87.30
3459.00,87.23
3458.00,87.16
3457.00,87.08
3456.00,87.00
3455.00,86.92
3454.00,86.83
3453.00,86.74
3452.00,86.65
3451.00,86.57
3450.00,86.47
3449.00,86.37
3448.00,86.27
3447.00,86.16
3446.00,86.06
3445.00,85.96
3444.00,85.88
3443.00,85.82
3442.00,85.77
3441.00,85.74
3440.00,85.70
3439.00,85.68
3438.00,85.66
3437.00,85.65
3436.00,85.64
3435.00,85.63
3434.00,85.62
3433.00,85.61
3432.00,85.60
3431.00,85.59
3430.00,85.58
3429.00,85.58
3428.00,85.57
3427.00,85.55
3426.00,85.54
3425.00,85.52
3424.00,85.50
3423.00,85.47
3422.00,85.44
3421.00,85.41
3420.00,85.40
3419.00,85.38
3418.00,85.36
3417.00,85.33
3416.00,85.31
3415.00,85.28
3414.00,85.26
3413.00,85.24
3412.00,85.21
3411.00,85.19
3410.00,85.17
3409.00,85.15
3408.00,85.13
3407.00,85.10
3406.00,85.08
3405.00,85.05
3404.00,85.01
3403.00,84.96
3402.00,84.90
3401.00,84.85
3400.00,84.82
3399.00,84.79
3398.00,84.76
3397.00,84.73
3396.00,84.71
3395.00,84.69
3394.00,84.67
3393.00,84.65
3392.00,84.61
3391.00,84.59
3390.00,84.57
3389.00,84.55
3388.00,84.53
3387.00,84.50
3386.00,84.46
3385.00,84.43
3384.00,84.40
3383.00,84.38
3382.00,84.35
3381.00,84.32
3380.00,84.29
3379.00,84.27
3378.00,84.25
3377.00,84.24
3376.00,84.22
3375.00,84.20
3374.00,84.18
3373.00,84.17
3372.00,84.15
3371.00,84.14
3370.00,84.12
3369.00,84.10
3368.00,84.07
3367.00,84.04
3366.00,84.02
3365.00,84.00
3364.00,83.98
3363.00,83.97
3362.00,83.95
3361.00,83.93
3360.00,83.91
3359.00,83.89
3358.00,83.87
3357.00,83.86
3356.00,83.85
3355.00,83.84
3354.00,83.82
3353.00,83.80
3352.00,83.79
3351.00,83.79
3350.00,83.78
3349.00,83.77
3348.00,83.76
3347.00,83.76
3346.00,83.77
3345.00,83.77
3344.00,83.77
3343.00,83.76
3342.00,83.75
3341.00,83.74
3340.00,83.73
3339.00,83.72
3338.00,83.70
3337.00,83.68
3336.00,83.67
3335.00,83.68
3334.00,83.69
3333.00,83.69
3332.00,83.70
3331.00,83.71
3330.00,83.72
3329.00,83.73
3328.00,83.72
3327.00,83.72
3326.00,83.72
3325.00,83.73
3324.00,83.74
3323.00,83.75
3322.00,83.74
3321.00,83.74
3320.00,83.74
3319.00,83.75
3318.00,83.77
3317.00,83.79
3316.00,83.82
3315.00,83.84
3314.00,83.85
3313.00,83.86
3312.00,83.87
3311.00,83.88
3310.00,83.89
3309.00,83.90
3308.00,83.89
3307.00,83.89
3306.00,83.89
3305.00,83.90
3304.00,83.91
3303.00,83.91
3302.00,83.91
3301.00,83.92
3300.00,83.94
3299.00,83.97
3298.00,84.00
3297.00,84.04
3296.00,84.06
3295.00,84.07
3294.00,84.08
3293.00,84.08
3292.00,84.07
3291.00,84.06
3290.00,84.06
3289.00,84.08
3288.00,84.10
3287.00,84.13
3286.00,84.15
3285.00,84.17
3284.00,84.18
3283.00,84.19
3282.00,84.20
3281.00,84.21
3280.00,84.23
3279.00,84.26
3278.00,84.30
3277.00,84.34
3276.00,84.37
3275.00,84.40
3274.00,84.42
3273.00,84.44
3272.00,84.46
3271.00,84.48
3270.00,84.50
3269.00,84.53
3268.00,84.54
3267.00,84.55
3266.00,84.57
3265.00,84.61
3264.00,84.64
3263.00,84.67
3262.00,84.67
3261.00,84.67
3260.00,84.66
3259.00,84.67
3258.00,84.68
3257.00,84.71
3256.00,84.76
3255.00,84.81
3254.00,84.86
3253.00,84.90
3252.00,84.92
3251.00,84.94
3250.00,84.96
3249.00,84.98
3248.00,85.00
3247.00,85.03
3246.00,85.04
3245.00,85.05
3244.00,85.06
3243.00,85.09
3242.00,85.13
3241.00,85.18
3240.00,85.23
3239.00,85.27
3238.00,85.30
3237.00,85.32
3236.00,85.35
3235.00,85.37
3234.00,85.39
3233.00,85.41
3232.00,85.42
3231.00,85.45
3230.00,85.49
3229.00,85.55
3228.00,85.60
3227.00,85.63
3226.00,85.65
3225.00,85.67
3224.00,85.70
3223.00,85.74
3222.00,85.78
3221.00,85.82
3220.00,85.84
3219.00,85.87
3218.00,85.91
3217.00,85.95
3216.00,85.99
3215.00,86.03
3214.00,86.05
3213.00,86.08
3212.00,86.11
3211.00,86.14
3210.00,86.17
3209.00,86.20
3208.00,86.22
3207.00,86.24
3206.00,86.27
3205.00,86.31
3204.00,86.35
3203.00,86.40
3202.00,86.44
3201.00,86.48
3200.00,86.53
3199.00,86.57
3198.00,86.60
3197.00,86.62
3196.00,86.64
3195.00,86.65
3194.00,86.68
3193.00,86.72
3192.00,86.77
3191.00,86.82
3190.00,86.85
3189.00,86.87
3188.00,86.89
3187.00,86.93
3186.00,86.98
3185.00,87.04
3184.00,87.10
3183.00,87.14
3182.00,87.18
3181.00,87.20
3180.00,87.21
3179.00,87.22
3178.00,87.24
3177.00,87.27
3176.00,87.31
3175.00,87.35
3174.00,87.39
3173.00,87.43
3172.00,87.48
3171.00,87.51
3170.00,87.53
3169.00,87.56
3168.00,87.59
3167.00,87.64
3166.00,87.70
3165.00,87.76
3164.00,87.82
3163.00,87.86
3162.00,87.89
3161.00,87.90
3160.00,87.91
3159.00,87.93
3158.00,87.96
3157.00,88.00
3156.00,88.04
3155.00,88.08
3154.00,88.13
3153.00,88.19
3152.00,88.25
3151.00,88.30
3150.00,88.33
3149.00,88.36
3148.00,88.39
3147.00,88.43
3146.00,88.49
3145.00,88.56
3144.00,88.64
3143.00,88.71
3142.00,88.77
3141.00,88.80
3140.00,88.83
3139.00,88.87
3138.00,88.92
3137.00,88.98
3136.00,89.04
3135.00,89.09
3134.00,89.14
3133.00,89.20
3132.00,89.25
3131.00,89.29
3130.00,89.32
3129.00,89.36
3128.00,89.41
3127.00,89.47
3126.00,89.53
3125.00,89.60
3124.00,89.66
3123.00,89.72
3122.00,89.76
3121.00,89.81
3120.00,89.86
3119.00,89.92
3118.00,89.99
3117.00,90.05
3116.00,90.11
3115.00,90.16
3114.00,90.20
3113.00,90.24
3112.00,90.29
3111.00,90.35
3110.00,90.40
3109.00,90.45
3108.00,90.50
3107.00,90.55
3106.00,90.61
3105.00,90.65
3104.00,90.70
3103.00,90.75
3102.00,90.81
3101.00,90.88
3100.00,90.94
3099.00,90.99
3098.00,91.02
3097.00,91.06
3096.00,91.10
3095.00,91.16
3094.00,91.21
3093.00,91.27
3092.00,91.33
3091.00,91.40
3090.00,91.46
3089.00,91.52
3088.00,91.58
3087.00,91.63
3086.00,91.68
3085.00,91.73
3084.00,91.79
3083.00,91.84
3082.00,91.89
3081.00,91.94
3080.00,91.99
3079.00,92.03
3078.00,92.08
3077.00,92.13
3076.00,92.19
3075.00,92.23
3074.00,92.27
3073.00,92.30
3072.00,92.33
3071.00,92.38
3070.00,92.43
3069.00,92.48
3068.00,92.51
3067.00,92.54
3066.00,92.58
3065.00,92.62
3064.00,92.66
3063.00,92.71
3062.00,92.76
3061.00,92.80
3060.00,92.85
3059.00,92.90
3058.00,92.95
3057.00,92.99
3056.00,93.03
3055.00,93.05
3054.00,93.08
3053.00,93.11
3052.00,93.15
3051.00,93.20
3050.00,93.26
3049.00,93.30
3048.00,93.34
3047.00,93.37
3046.00,93.42
3045.00,93.46
3044.00,93.49
3043.00,93.53
3042.00,93.56
3041.00,93.61
3040.00,93.66
3039.00,93.70
3038.00,93.72
3037.00,93.74
3036.00,93.76
3035.00,93.79
3034.00,93.82
3033.00,93.86
3032.00,93.89
3031.00,93.93
3030.00,93.96
3029.00,93.99
3028.00,94.02
3027.00,94.05
3026.00,94.08
3025.00,94.11
3024.00,94.13
3023.00,94.16
3022.00,94.18
3021.00,94.19
3020.00,94.20
3019.00,94.21
3018.00,94.23
3017.00,94.26
3016.00,94.29
3015.00,94.31
3014.00,94.33
3013.00,94.35
3012.00,94.38
3011.00,94.40
3010.00,94.43
3009.00,94.45
3008.00,94.47
3007.00,94.49
3006.00,94.50
3005.00,94.51
3004.00,94.52
3003.00,94.53
3002.00,94.54
3001.00,94.56
3000.00,94.58
2999.00,94.60
2998.00,94.62
2997.00,94.63
2996.00,94.64
2995.00,94.64
2994.00,94.63
2993.00,94.63
2992.00,94.63
2991.00,94.61
2990.00,94.59
2989.00,94.55
2988.00,94.51
2987.00,94.48
2986.00,94.47
2985.00,94.46
2984.00,94.45
2983.00,94.43
2982.00,94.42
2981.00,94.41
2980.00,94.42
2979.00,94.43
2978.00,94.43
2977.00,94.40
2976.00,94.37
2975.00,94.32
2974.00,94.28
2973.00,94.25
2972.00,94.22
2971.00,94.19
2970.00,94.16
2969.00,94.12
2968.00,94.10
2967.00,94.08
2966.00,94.05
2965.00,94.02
2964.00,93.98
2963.00,93.94
2962.00,93.90
2961.00,93.85
2960.00,93.80
2959.00,93.75
2958.00,93.70
2957.00,93.64
2956.00,93.59
2955.00,93.54
2954.00,93.48
2953.00,93.44
2952.00,93.40
2951.00,93.36
2950.00,93.32
2949.00,93.26
2948.00,93.19
2947.00,93.12
2946.00,93.03
2945.00,92.94
2944.00,92.86
2943.00,92.77
2942.00,92.68
2941.00,92.59
2940.00,92.49
2939.00,92.40
2938.00,92.32
2937.00,92.24
2936.00,92.15
2935.00,92.06
2934.00,91.98
2933.00,91.90
2932.00,91.83
2931.00,91.78
2930.00,91.72
2929.00,91.67
2928.00,91.62
2927.00,91.58
2926.00,91.54
2925.00,91.50
2924.00,91.45
2923.00,91.39
2922.00,91.32
2921.00,91.25
2920.00,91.20
2919.00,91.16
2918.00,91.12
2917.00,91.07
2916.00,91.00
2915.00,90.91
2914.00,90.83
2913.00,90.75
2912.00,90.69
2911.00,90.62
2910.00,90.55
2909.00,90.46
2908.00,90.37
2907.00,90.28
2906.00,90.21
2905.00,90.16
2904.00,90.12
2903.00,90.09
2902.00,90.07
2901.00,90.05
2900.00,90.03
2899.00,90.02
2898.00,90.00
2897.00,89.97
2896.00,89.93
2895.00,89.90
2894.00,89.88
2893.00,89.88
2892.00,89.90
2891.00,89.92
2890.00,89.95
2889.00,89.99
2888.00,90.03
2887.00,90.07
2886.00,90.12
2885.00,90.17
2884.00,90.21
2883.00,90.25
2882.00,90.28
2881.00,90.30
2880.00,90.33
2879.00,90.36
2878.00,90.40
2877.00,90.44
2876.00,90.48
2875.00,90.52
2874.00,90.58
2873.00,90.66
2872.00,90.74
2871.00,90.82
2870.00,90.90
2869.00,90.99
2868.00,91.09
2867.00,91.20
2866.00,91.30
2865.00,91.39
2864.00,91.47
2863.00,91.55
2862.00,91.64
2861.00,91.72
2860.00,91.80
2859.00,91.88
2858.00,91.96
2857.00,92.04
2856.00,92.13
2855.00,92.22
2854.00,92.31
2853.00,92.40
2852.00,92.48
2851.00,92.56
2850.00,92.65
2849.00,92.75
2848.00,92.84
2847.00,92.92
2846.00,92.99
2845.00,93.04
2844.00,93.10
2843.00,93.16
2842.00,93.22
2841.00,93.28
2840.00,93.33
2839.00,93.36
2838.00,93.40
2837.00,93.43
2836.00,93.47
2835.00,93.52
2834.00,93.56
2833.00,93.59
2832.00,93.62
2831.00,93.65
2830.00,93.68
2829.00,93.73
2828.00,93.78
2827.00,93.84
2826.00,93.88
2825.00,93.92
2824.00,93.96
2823.00,93.99
2822.00,94.02
2821.00,94.04
2820.00,94.06
2819.00,94.08
2818.00,94.10
2817.00,94.13
2816.00,94.16
2815.00,94.18
2814.00,94.21
2813.00,94.23
2812.00,94.24
2811.00,94.25
2810.00,94.27
2809.00,94.30
2808.00,94.34
2807.00,94.38
2806.00,94.41
2805.00,94.43
2804.00,94.44
2803.00,94.46
2802.00,94.48
2801.00,94.50
2800.00,94.51
2799.00,94.53
2798.00,94.55
2797.00,94.59
2796.00,94.62
2795.00,94.64
2794.00,94.67
2793.00,94.69
2792.00,94.71
2791.00,94.72
2790.00,94.73
2789.00,94.74
2788.00,94.76
2787.00,94.78
2786.00,94.81
2785.00,94.83
2784.00,94.85
2783.00,94.86
2782.00,94.88
2781.00,94.90
2780.00,94.93
2779.00,94.95
2778.00,94.96
2777.00,94.97
2776.00,94.98
2775.00,94.99
2774.00,95.01
2773.00,95.02
2772.00,95.04
2771.00,95.07
2770.00,95.10
2769.00,95.12
2768.00,95.14
2767.00,95.14
2766.00,95.15
2765.00,95.15
2764.00,95.16
2763.00,95.18
2762.00,95.18
2761.00,95.19
2760.00,95.20
2759.00,95.21
2758.00,95.23
2757.00,95.25
2756.00,95.25
2755.00,95.25
2754.00,95.25
2753.00,95.24
2752.00,95.25
2751.00,95.24
2750.00,95.24
2749.00,95.24
2748.00,95.23
2747.00,95.25
2746.00,95.27
2745.00,95.29
2744.00,95.30
2743.00,95.31
2742.00,95.31
2741.00,95.31
2740.00,95.32
2739.00,95.32
2738.00,95.33
2737.00,95.34
2736.00,95.35
2735.00,95.36
2734.00,95.36
2733.00,95.36
2732.00,95.35
2731.00,95.35
2730.00,95.35
2729.00,95.37
2728.00,95.39
2727.00,95.41
2726.00,95.42
2725.00,95.42
2724.00,95.41
2723.00,95.40
2722.00,95.41
2721.00,95.42
2720.00,95.44
2719.00,95.46
2718.00,95.47
2717.00,95.48
2716.00,95.48
2715.00,95.49
2714.00,95.50
2713.00,95.52
2712.00,95.55
2711.00,95.57
2710.00,95.58
2709.00,95.59
2708.00,95.59
2707.00,95.60
2706.00,95.61
2705.00,95.62
2704.00,95.62
2703.00,95.63
2702.00,95.64
2701.00,95.65
2700.00,95.66
2699.00,95.66
2698.00,95.66
2697.00,95.67
2696.00,95.68
2695.00,95.69
2694.00,95.70
2693.00,95.71
2692.00,95.72
2691.00,95.73
2690.00,95.74
2689.00,95.75
2688.00,95.76
2687.00,95.77
2686.00,95.78
2685.00,95.78
2684.00,95.78
2683.00,95.79
2682.00,95.81
2681.00,95.83
2680.00,95.85
2679.00,95.86
2678.00,95.87
2677.00,95.86
2676.00,95.86
2675.00,95.87
2674.00,95.88
2673.00,95.90
2672.00,95.92
2671.00,95.93
2670.00,95.94
2669.00,95.94
2668.00,95.95
2667.00,95.96
2666.00,95.97
2665.00,95.98
2664.00,95.99
2663.00,96.00
2662.00,96.00
2661.00,96.00
2660.00,96.00
2659.00,95.99
2658.00,95.97
2657.00,95.95
2656.00,95.94
2655.00,95.94
2654.00,95.94
2653.00,95.94
2652.00,95.92
2651.00,95.91
2650.00,95.90
2649.00,95.91
2648.00,95.92
2647.00,95.93
2646.00,95.94
2645.00,95.94
2644.00,95.94
2643.00,95.93
2642.00,95.92
2641.00,95.90
2640.00,95.88
2639.00,95.87
2638.00,95.87
2637.00,95.89
2636.00,95.91
2635.00,95.93
2634.00,95.94
2633.00,95.93
2632.00,95.91
2631.00,95.89
2630.00,95.87
2629.00,95.86
2628.00,95.86
2627.00,95.86
2626.00,95.86
2625.00,95.85
2624.00,95.84
2623.00,95.84
2622.00,95.84
2621.00,95.85
2620.00,95.87
2619.00,95.88
2618.00,95.87
2617.00,95.86
2616.00,95.84
2615.00,95.83
2614.00,95.81
2613.00,95.81
2612.00,95.80
2611.00,95.80
2610.00,95.81
2609.00,95.82
2608.00,95.82
2607.00,95.81
2606.00,95.81
2605.00,95.81
2604.00,95.82
2603.00,95.82
2602.00,95.82
2601.00,95.82
2600.00,95.82
2599.00,95.81
2598.00,95.80
2597.00,95.79
2596.00,95.79
2595.00,95.79
2594.00,95.80
2593.00,95.80
2592.00,95.79
2591.00,95.76
2590.00,95.74
2589.00,95.73
2588.00,95.73
2587.00,95.73
2586.00,95.73
2585.00,95.74
2584.00,95.76
2583.00,95.79
2582.00,95.80
2581.00,95.80
2580.00,95.77
2579.00,95.74
2578.00,95.72
2577.00,95.72
2576.00,95.73
2575.00,95.75
2574.00,95.76
2573.00,95.77
2572.00,95.78
2571.00,95.78
2570.00,95.79
2569.00,95.79
2568.00,95.78
2567.00,95.77
2566.00,95.76
2565.00,95.75
2564.00,95.74
2563.00,95.73
2562.00,95.72
2561.00,95.71
2560.00,95.70
2559.00,95.71
2558.00,95.72
2557.00,95.74
2556.00,95.75
2555.00,95.75
2554.00,95.75
2553.00,95.75
2552.00,95.76
2551.00,95.77
2550.00,95.77
2549.00,95.78
2548.00,95.78
2547.00,95.77
2546.00,95.76
2545.00,95.76
2544.00,95.76
2543.00,95.77
2542.00,95.78
2541.00,95.78
2540.00,95.76
2539.00,95.72
2538.00,95.69
2537.00,95.68
2536.00,95.69
2535.00,95.71
2534.00,95.74
2533.00,95.77
2532.00,95.78
2531.00,95.79
2530.00,95.78
2529.00,95.77
2528.00,95.76
2527.00,95.77
2526.00,95.77
2525.00,95.78
2524.00,95.78
2523.00,95.77
2522.00,95.75
2521.00,95.74
2520.00,95.74
2519.00,95.76
2518.00,95.78
2517.00,95.80
2516.00,95.81
2515.00,95.81
2514.00,95.81
2513.00,95.81
2512.00,95.82
2511.00,95.84
2510.00,95.85
2509.00,95.86
2508.00,95.86
2507.00,95.87
2506.00,95.87
2505.00,95.89
2504.00,95.91
2503.00,95.92
2502.00,95.92
2501.00,95.91
2500.00,95.91
2499.00,95.91
2498.00,95.90
2497.00,95.89
2496.00,95.88
2495.00,95.88
2494.00,95.88
2493.00,95.89
2492.00,95.91
2491.00,95.93
2490.00,95.94
2489.00,95.95
2488.00,95.94
2487.00,95.93
2486.00,95.92
2485.00,95.92
2484.00,95.93
2483.00,95.93
2482.00,95.94
2481.00,95.94
2480.00,95.95
2479.00,95.96
2478.00,95.98
2477.00,96.00
2476.00,96.03
2475.00,96.04
2474.00,96.04
2473.00,96.03
2472.00,96.02
2471.00,96.03
2470.00,96.05
2469.00,96.06
2468.00,96.06
2467.00,96.05
2466.00,96.04
2465.00,96.01
2464.00,95.99
2463.00,95.98
2462.00,95.98
2461.00,95.98
2460.00,95.98
2459.00,95.99
2458.00,95.99
2457.00,96.00
2456.00,96.01
2455.00,96.03
2454.00,96.06
2453.00,96.09
2452.00,96.12
2451.00,96.13
2450.00,96.12
2449.00,96.11
2448.00,96.10
2447.00,96.10
2446.00,96.10
2445.00,96.10
2444.00,96.10
2443.00,96.12
2442.00,96.13
2441.00,96.15
2440.00,96.16
2439.00,96.17
2438.00,96.16
2437.00,96.15
2436.00,96.14
2435.00,96.13
2434.00,96.13
2433.00,96.14
2432.00,96.18
2431.00,96.21
2430.00,96.23
2429.00,96.23
2428.00,96.23
2427.00,96.22
2426.00,96.20
2425.00,96.20
2424.00,96.21
2423.00,96.23
2422.00,96.25
2421.00,96.25
2420.00,96.24
2419.00,96.24
2418.00,96.25
2417.00,96.26
2416.00,96.26
2415.00,96.26
2414.00,96.26
2413.00,96.27
2412.00,96.29
2411.00,96.32
2410.00,96.34
2409.00,96.37
2408.00,96.40
2407.00,96.42
2406.00,96.43
2405.00,96.46
2404.00,96.48
2403.00,96.50
2402.00,96.51
2401.00,96.52
2400.00,96.53
2399.00,96.53
2398.00,96.53
2397.00,96.52
2396.00,96.51
2395.00,96.51
2394.00,96.52
2393.00,96.53
2392.00,96.55
2391.00,96.57
2390.00,96.60
2389.00,96.62
2388.00,96.65
2387.00,96.68
2386.00,96.72
2385.00,96.75
2384.00,96.76
2383.00,96.76
2382.00,96.75
2381.00,96.76
2380.00,96.78
2379.00,96.82
2378.00,96.84
2377.00,96.86
2376.00,96.87
2375.00,96.85
2374.00,96.82
2373.00,96.79
2372.00,96.78
2371.00,96.81
2370.00,96.86
2369.00,96.89
2368.00,96.90
2367.00,96.91
2366.00,96.91
2365.00,96.89
2364.00,96.88
2363.00,96.87
2362.00,96.85
2361.00,96.81
2360.00,96.73
2359.00,96.69
2358.00,96.69
2357.00,96.71
2356.00,96.72
2355.00,96.73
2354.00,96.74
2353.00,96.77
2352.00,96.81
2351.00,96.86
2350.00,96.87
2349.00,96.86
2348.00,96.85
2347.00,96.87
2346.00,96.91
2345.00,96.94
2344.00,96.95
2343.00,96.92
2342.00,96.88
2341.00,96.84
2340.00,96.80
2339.00,96.79
2338.00,96.78
2337.00,96.79
2336.00,96.80
2335.00,96.79
2334.00,96.75
2333.00,96.73
2332.00,96.75
2331.00,96.81
2330.00,96.85
2329.00,96.83
2328.00,96.75
2327.00,96.65
2326.00,96.56
2325.00,96.51
2324.00,96.51
2323.00,96.51
2322.00,96.51
2321.00,96.50
2320.00,96.50
2319.00,96.51
2318.00,96.53
2317.00,96.55
2316.00,96.55
2315.00,96.55
2314.00,96.55
2313.00,96.56
2312.00,96.56
2311.00,96.53
2310.00,96.49
2309.00,96.45
2308.00,96.43
2307.00,96.43
2306.00,96.45
2305.00,96.46
2304.00,96.48
2303.00,96.48
2302.00,96.46
2301.00,96.42
2300.00,96.38
2299.00,96.35
2298.00,96.33
2297.00,96.31
2296.00,96.29
2295.00,96.28
2294.00,96.25
2293.00,96.21
2292.00,96.16
2291.00,96.12
2290.00,96.08
2289.00,96.02
2288.00,95.95
2287.00,95.88
2286.00,95.84
2285.00,95.82
2284.00,95.82
2283.00,95.82
2282.00,95.81
2281.00,95.79
2280.00,95.78
2279.00,95.79
2278.00,95.79
2277.00,95.77
2276.00,95.74
2275.00,95.70
2274.00,95.67
2273.00,95.65
2272.00,95.64
2271.00,95.63
2270.00,95.61
2269.00,95.59
2268.00,95.56
2267.00,95.53
2266.00,95.51
2265.00,95.47
2264.00,95.41
2263.00,95.35
2262.00,95.33
2261.00,95.34
2260.00,95.35
2259.00,95.32
2258.00,95.26
2257.00,95.23
2256.00,95.23
2255.00,95.25
2254.00,95.28
2253.00,95.30
2252.00,95.29
2251.00,95.28
2250.00,95.26
2249.00,95.25
2248.00,95.24
2247.00,95.23
2246.00,95.19
2245.00,95.13
2244.00,95.09
2243.00,95.07
2242.00,95.06
2241.00,95.04
2240.00,95.02
2239.00,95.00
2238.00,95.00
2237.00,95.00
2236.00,94.97
2235.00,94.91
2234.00,94.84
2233.00,94.79
2232.00,94.78
2231.00,94.80
2230.00,94.81
2229.00,94.79
2228.00,94.76
2227.00,94.75
2226.00,94.76
2225.00,94.78
2224.00,94.78
2223.00,94.78
2222.00,94.77
2221.00,94.76
2220.00,94.73
2219.00,94.68
2218.00,94.62
2217.00,94.58
2216.00,94.55
2215.00,94.52
2214.00,94.50
2213.00,94.48
2212.00,94.44
2211.00,94.41
2210.00,94.40
2209.00,94.42
2208.00,94.44
2207.00,94.45
2206.00,94.44
2205.00,94.42
2204.00,94.40
2203.00,94.38
2202.00,94.37
2201.00,94.35
2200.00,94.33
2199.00,94.30
2198.00,94.25
2197.00,94.18
2196.00,94.09
2195.00,93.98
2194.00,93.92
2193.00,93.94
2192.00,94.02
2191.00,94.09
2190.00,94.09
2189.00,94.03
2188.00,93.96
2187.00,93.91
2186.00,93.91
2185.00,93.93
2184.00,93.93
2183.00,93.91
2182.00,93.87
2181.00,93.84
2180.00,93.83
2179.00,93.78
2178.00,93.69
2177.00,93.60
2176.00,93.58
2175.00,93.62
2174.00,93.69
2173.00,93.70
2172.00,93.65
2171.00,93.56
2170.00,93.44
2169.00,93.30
2168.00,93.14
2167.00,93.01
2166.00,92.92
2165.00,92.88
2164.00,92.85
2163.00,92.80
2162.00,92.75
2161.00,92.75
2160.00,92.88
2159.00,93.13
2158.00,93.43
2157.00,93.69
2156.00,93.84
2155.00,93.90
2154.00,93.93
2153.00,93.97
2152.00,93.99
2151.00,93.99
2150.00,93.97
2149.00,93.98
2148.00,94.01
2147.00,94.08
2146.00,94.17
2145.00,94.28
2144.00,94.41
2143.00,94.54
2142.00,94.63
2141.00,94.67
2140.00,94.66
2139.00,94.64
2138.00,94.66
2137.00,94.70
2136.00,94.78
2135.00,94.90
2134.00,95.06
2133.00,95.21
2132.00,95.33
2131.00,95.40
2130.00,95.41
2129.00,95.40
2128.00,95.37
2127.00,95.35
2126.00,95.33
2125.00,95.32
2124.00,95.34
2123.00,95.36
2122.00,95.37
2121.00,95.37
2120.00,95.35
2119.00,95.34
2118.00,95.33
2117.00,95.33
2116.00,95.33
2115.00,95.32
2114.00,95.29
2113.00,95.26
2112.00,95.25
2111.00,95.25
2110.00,95.25
2109.00,95.23
2108.00,95.20
2107.00,95.21
2106.00,95.26
2105.00,95.32
2104.00,95.36
2103.00,95.36
2102.00,95.32
2101.00,95.29
2100.00,95.29
2099.00,95.30
2098.00,95.30
2097.00,95.28
2096.00,95.27
2095.00,95.30
2094.00,95.34
2093.00,95.38
2092.00,95.41
2091.00,95.42
2090.00,95.44
2089.00,95.44
2088.00,95.43
2087.00,95.41
2086.00,95.38
2085.00,95.34
2084.00,95.30
2083.00,95.26
2082.00,95.23
2081.00,95.23
2080.00,95.23
2079.00,95.21
2078.00,95.17
2077.00,95.12
2076.00,95.09
2075.00,95.07
2074.00,95.07
2073.00,95.07
2072.00,95.06
2071.00,95.03
2070.00,95.01
2069.00,94.99
2068.00,94.97
2067.00,94.97
2066.00,94.97
2065.00,94.97
2064.00,94.97
2063.00,94.97
2062.00,94.97
2061.00,94.96
2060.00,94.96
2059.00,94.94
2058.00,94.89
2057.00,94.83
2056.00,94.80
2055.00,94.80
2054.00,94.80
2053.00,94.74
2052.00,94.61
2051.00,94.45
2050.00,94.32
2049.00,94.25
2048.00,94.23
2047.00,94.22
2046.00,94.22
2045.00,94.20
2044.00,94.18
2043.00,94.15
2042.00,94.10
2041.00,94.02
2040.00,93.93
2039.00,93.86
2038.00,93.82
2037.00,93.81
2036.00,93.80
2035.00,93.78
2034.00,93.74
2033.00,93.71
2032.00,93.68
2031.00,93.69
2030.00,93.75
2029.00,93.83
2028.00,93.88
2027.00,93.88
2026.00,93.84
2025.00,93.80
2024.00,93.79
2023.00,93.80
2022.00,93.84
2021.00,93.88
2020.00,93.91
2019.00,93.90
2018.00,93.87
2017.00,93.84
2016.00,93.85
2015.00,93.89
2014.00,93.96
2013.00,94.01
2012.00,94.02
2011.00,94.00
2010.00,94.01
2009.00,94.06
2008.00,94.12
2007.00,94.17
2006.00,94.23
2005.00,94.30
2004.00,94.39
2003.00,94.45
2002.00,94.48
2001.00,94.49
2000.00,94.48
1999.00,94.48
1998.00,94.49
1997.00,94.49
1996.00,94.50
1995.00,94.49
1994.00,94.48
1993.00,94.47
1992.00,94.48
1991.00,94.47
1990.00,94.45
1989.00,94.43
1988.00,94.42
1987.00,94.43
1986.00,94.44
1985.00,94.43
1984.00,94.37
1983.00,94.23
1982.00,94.05
1981.00,93.90
1980.00,93.83
1979.00,93.85
1978.00,93.90
1977.00,93.95
1976.00,94.01
1975.00,94.09
1974.00,94.18
1973.00,94.27
1972.00,94.35
1971.00,94.42
1970.00,94.46
1969.00,94.47
1968.00,94.47
1967.00,94.50
1966.00,94.55
1965.00,94.60
1964.00,94.66
1963.00,94.71
1962.00,94.76
1961.00,94.83
1960.00,94.90
1959.00,94.98
1958.00,95.04
1957.00,95.10
1956.00,95.15
1955.00,95.20
1954.00,95.23
1953.00,95.26
1952.00,95.27
1951.00,95.29
1950.00,95.31
1949.00,95.33
1948.00,95.37
1947.00,95.42
1946.00,95.48
1945.00,95.54
1944.00,95.59
1943.00,95.64
1942.00,95.67
1941.00,95.67
1940.00,95.67
1939.00,95.67
1938.00,95.70
1937.00,95.74
1936.00,95.77
1935.00,95.79
1934.00,95.80
1933.00,95.79
1932.00,95.78
1931.00,95.79
1930.00,95.83
1929.00,95.87
1928.00,95.91
1927.00,95.93
1926.00,95.95
1925.00,95.98
1924.00,96.03
1923.00,96.08
1922.00,96.13
1921.00,96.16
1920.00,96.17
1919.00,96.17
1918.00,96.15
1917.00,96.13
1916.00,96.11
1915.00,96.12
1914.00,96.15
1913.00,96.18
1912.00,96.21
1911.00,96.24
1910.00,96.27
1909.00,96.28
1908.00,96.29
1907.00,96.31
1906.00,96.34
1905.00,96.36
1904.00,96.37
1903.00,96.37
1902.00,96.37
1901.00,96.39
1900.00,96.44
1899.00,96.49
1898.00,96.53
1897.00,96.54
1896.00,96.55
1895.00,96.55
1894.00,96.55
1893.00,96.55
1892.00,96.54
1891.00,96.53
1890.00,96.53
1889.00,96.54
1888.00,96.55
1887.00,96.55
1886.00,96.55
1885.00,96.54
1884.00,96.54
1883.00,96.53
1882.00,96.54
1881.00,96.54
1880.00,96.56
1879.00,96.58
1878.00,96.61
1877.00,96.64
1876.00,96.64
1875.00,96.62
1874.00,96.60
1873.00,96.58
1872.00,96.60
1871.00,96.65
1870.00,96.71
1869.00,96.73
1868.00,96.72
1867.00,96.70
1866.00,96.68
1865.00,96.67
1864.00,96.67
1863.00,96.67
1862.00,96.68
1861.00,96.69
1860.00,96.70
1859.00,96.72
1858.00,96.73
1857.00,96.74
1856.00,96.76
1855.00,96.77
1854.00,96.78
1853.00,96.78
1852.00,96.77
1851.00,96.75
1850.00,96.74
1849.00,96.73
1848.00,96.75
1847.00,96.78
1846.00,96.82
1845.00,96.85
1844.00,96.87
1843.00,96.88
1842.00,96.89
1841.00,96.91
1840.00,96.91
1839.00,96.91
1838.00,96.90
1837.00,96.88
1836.00,96.86
1835.00,96.85
1834.00,96.86
1833.00,96.87
1832.00,96.89
1831.00,96.90
1830.00,96.91
1829.00,96.92
1828.00,96.93
1827.00,96.93
1826.00,96.94
1825.00,96.95
1824.00,96.96
1823.00,96.97
1822.00,96.97
1821.00,96.96
1820.00,96.95
1819.00,96.96
1818.00,96.98
1817.00,97.01
1816.00,97.03
1815.00,97.04
1814.00,97.04
1813.00,97.04
1812.00,97.05
1811.00,97.06
1810.00,97.07
1809.00,97.07
1808.00,97.07
1807.00,97.07
1806.00,97.09
1805.00,97.11
1804.00,97.11
1803.00,97.11
1802.00,97.09
1801.00,97.07
1800.00,97.06
1799.00,97.07
1798.00,97.08
1797.00,97.10
1796.00,97.11
1795.00,97.10
1794.00,97.09
1793.00,97.08
1792.00,97.09
1791.00,97.11
1790.00,97.12
1789.00,97.12
1788.00,97.11
1787.00,97.09
1786.00,97.09
1785.00,97.10
1784.00,97.12
1783.00,97.14
1782.00,97.14
1781.00,97.13
1780.00,97.11
1779.00,97.10
1778.00,97.10
1777.00,97.10
1776.00,97.10
1775.00,97.11
1774.00,97.11
1773.00,97.10
1772.00,97.10
1771.00,97.10
1770.00,97.10
1769.00,97.09
1768.00,97.08
1767.00,97.07
1766.00,97.06
1765.00,97.06
1764.00,97.05
1763.00,97.05
1762.00,97.05
1761.00,97.04
1760.00,97.04
1759.00,97.03
1758.00,97.03
1757.00,97.04
1756.00,97.05
1755.00,97.07
1754.00,97.08
1753.00,97.07
1752.00,97.05
1751.00,97.04
1750.00,97.03
1749.00,97.04
1748.00,97.03
1747.00,97.02
1746.00,97.00
1745.00,96.97
1744.00,96.95
1743.00,96.93
1742.00,96.94
1741.00,96.95
1740.00,96.96
1739.00,96.97
1738.00,96.98
1737.00,96.98
1736.00,96.98
1735.00,96.98
1734.00,96.97
1733.00,96.96
1732.00,96.94
1731.00,96.92
1730.00,96.91
1729.00,96.92
1728.00,96.92
1727.00,96.91
1726.00,96.90
1725.00,96.90
1724.00,96.89
1723.00,96.90
1722.00,96.90
1721.00,96.89
1720.00,96.87
1719.00,96.85
1718.00,96.83
1717.00,96.83
1716.00,96.83
1715.00,96.82
1714.00,96.80
1713.00,96.79
1712.00,96.78
1711.00,96.77
1710.00,96.75
1709.00,96.73
1708.00,96.70
1707.00,96.69
1706.00,96.68
1705.00,96.67
1704.00,96.67
1703.00,96.66
1702.00,96.65
1701.00,96.62
1700.00,96.58
1699.00,96.54
1698.00,96.51
1697.00,96.48
1696.00,96.45
1695.00,96.42
1694.00,96.40
1693.00,96.36
1692.00,96.32
1691.00,96.28
1690.00,96.25
1689.00,96.23
1688.00,96.22
1687.00,96.20
1686.00,96.17
1685.00,96.11
1684.00,96.04
1683.00,95.99
1682.00,95.95
1681.00,95.92
1680.00,95.89
1679.00,95.85
1678.00,95.80
1677.00,95.74
1676.00,95.67
1675.00,95.60
1674.00,95.54
1673.00,95.49
1672.00,95.43
1671.00,95.38
1670.00,95.33
1669.00,95.29
1668.00,95.24
1667.00,95.19
1666.00,95.15
1665.00,95.10
1664.00,95.04
1663.00,94.97
1662.00,94.92
1661.00,94.88
1660.00,94.84
1659.00,94.79
1658.00,94.75
1657.00,94.71
1656.00,94.67
1655.00,94.64
1654.00,94.60
1653.00,94.58
1652.00,94.57
1651.00,94.56
1650.00,94.54
1649.00,94.52
1648.00,94.50
1647.00,94.48
1646.00,94.47
1645.00,94.45
1644.00,94.44
1643.00,94.43
1642.00,94.44
1641.00,94.45
1640.00,94.44
1639.00,94.43
1638.00,94.41
1637.00,94.42
1636.00,94.44
1635.00,94.48
1634.00,94.51
1633.00,94.54
1632.00,94.57
1631.00,94.59
1630.00,94.62
1629.00,94.66
1628.00,94.69
1627.00,94.73
1626.00,94.76
1625.00,94.77
1624.00,94.79
1623.00,94.82
1622.00,94.88
1621.00,94.94
1620.00,95.00
1619.00,95.06
1618.00,95.10
1617.00,95.15
1616.00,95.20
1615.00,95.24
1614.00,95.27
1613.00,95.31
1612.00,95.35
1611.00,95.41
1610.00,95.46
1609.00,95.51
1608.00,95.54
1607.00,95.56
1606.00,95.59
1605.00,95.62
1604.00,95.65
1603.00,95.68
1602.00,95.71
1601.00,95.74
1600.00,95.76
1599.00,95.78
1598.00,95.81
1597.00,95.84
1596.00,95.87
1595.00,95.89
1594.00,95.92
1593.00,95.95
1592.00,95.99
1591.00,96.02
1590.00,96.05
1589.00,96.07
1588.00,96.08
1587.00,96.09
1586.00,96.10
1585.00,96.12
1584.00,96.15
1583.00,96.17
1582.00,96.19
1581.00,96.21
1580.00,96.22
1579.00,96.23
1578.00,96.25
1577.00,96.27
1576.00,96.31
1575.00,96.34
1574.00,96.36
1573.00,96.37
1572.00,96.38
1571.00,96.39
1570.00,96.41
1569.00,96.43
1568.00,96.44
1567.00,96.44
1566.00,96.44
1565.00,96.45
1564.00,96.46
1563.00,96.47
1562.00,96.47
1561.00,96.46
1560.00,96.44
1559.00,96.44
1558.00,96.48
1557.00,96.50
1556.00,96.51
1555.00,96.50
1554.00,96.50
1553.00,96.50
1552.00,96.51
1551.00,96.51
1550.00,96.52
1549.00,96.53
1548.00,96.54
1547.00,96.54
1546.00,96.54
1545.00,96.55
1544.00,96.56
1543.00,96.56
1542.00,96.55
1541.00,96.54
1540.00,96.53
1539.00,96.55
1538.00,96.55
1537.00,96.55
1536.00,96.54
1535.00,96.53
1534.00,96.52
1533.00,96.53
1532.00,96.53
1531.00,96.53
1530.00,96.53
1529.00,96.51
1528.00,96.50
1527.00,96.50
1526.00,96.50
1525.00,96.50
1524.00,96.50
1523.00,96.51
1522.00,96.51
1521.00,96.51
1520.00,96.50
1519.00,96.48
1518.00,96.46
1517.00,96.45
1516.00,96.44
1515.00,96.43
1514.00,96.41
1513.00,96.39
1512.00,96.37
1511.00,96.36
1510.00,96.35
1509.00,96.34
1508.00,96.31
1507.00,96.27
1506.00,96.22
1505.00,96.19
1504.00,96.16
1503.00,96.13
1502.00,96.10
1501.00,96.06
1500.00,96.00
1499.00,95.95
1498.00,95.91
1497.00,95.86
1496.00,95.82
1495.00,95.78
1494.00,95.74
1493.00,95.68
1492.00,95.60
1491.00,95.51
1490.00,95.41
1489.00,95.32
1488.00,95.22
1487.00,95.12
1486.00,95.02
1485.00,94.92
1484.00,94.82
1483.00,94.71
1482.00,94.60
1481.00,94.48
1480.00,94.36
1479.00,94.24
1478.00,94.13
1477.00,94.00
1476.00,93.89
1475.00,93.77
1474.00,93.65
1473.00,93.52
1472.00,93.38
1471.00,93.26
1470.00,93.16
1469.00,93.06
1468.00,92.97
1467.00,92.90
1466.00,92.82
1465.00,92.74
1464.00,92.66
1463.00,92.60
1462.00,92.56
1461.00,92.54
1460.00,92.52
1459.00,92.50
1458.00,92.45
1457.00,92.37
1456.00,92.31
1455.00,92.26
1454.00,92.22
1453.00,92.17
1452.00,92.12
1451.00,92.07
1450.00,92.02
1449.00,91.95
1448.00,91.88
1447.00,91.81
1446.00,91.75
1445.00,91.69
1444.00,91.63
1443.00,91.57
1442.00,91.51
1441.00,91.46
1440.00,91.42
1439.00,91.39
1438.00,91.35
1437.00,91.31
1436.00,91.27
1435.00,91.23
1434.00,91.20
1433.00,91.17
1432.00,91.14
1431.00,91.12
1430.00,91.10
1429.00,91.07
1428.00,91.03
1427.00,90.99
1426.00,90.97
1425.00,90.95
1424.00,90.95
1423.00,90.95
1422.00,90.96
1421.00,90.96
1420.00,90.94
1419.00,90.92
1418.00,90.92
1417.00,90.93
1416.00,90.95
1415.00,90.97
1414.00,90.99
1413.00,91.02
1412.00,91.04
1411.00,91.08
1410.00,91.12
1409.00,91.15
1408.00,91.17
1407.00,91.19
1406.00,91.20
1405.00,91.19
1404.00,91.19
1403.00,91.17
1402.00,91.15
1401.00,91.13
1400.00,91.10
1399.00,91.06
1398.00,91.03
1397.00,91.00
1396.00,90.97
1395.00,90.94
1394.00,90.89
1393.00,90.84
1392.00,90.79
1391.00,90.74
1390.00,90.69
1389.00,90.60
1388.00,90.49
1387.00,90.36
1386.00,90.22
1385.00,90.06
1384.00,89.88
1383.00,89.67
1382.00,89.45
1381.00,89.21
1380.00,88.96
1379.00,88.72
1378.00,88.50
1377.00,88.32
1376.00,88.16
1375.00,88.01
1374.00,87.86
1373.00,87.73
1372.00,87.61
1371.00,87.52
1370.00,87.45
1369.00,87.38
1368.00,87.33
1367.00,87.29
1366.00,87.28
1365.00,87.31
1364.00,87.36
1363.00,87.44
1362.00,87.53
1361.00,87.63
1360.00,87.73
1359.00,87.85
1358.00,88.00
1357.00,88.15
1356.00,88.28
1355.00,88.39
1354.00,88.49
1353.00,88.59
1352.00,88.67
1351.00,88.74
1350.00,88.79
1349.00,88.81
1348.00,88.81
1347.00,88.80
1346.00,88.79
1345.00,88.76
1344.00,88.74
1343.00,88.71
1342.00,88.67
1341.00,88.62
1340.00,88.56
1339.00,88.50
1338.00,88.45
1337.00,88.40
1336.00,88.38
1335.00,88.37
1334.00,88.39
1333.00,88.41
1332.00,88.44
1331.00,88.46
1330.00,88.48
1329.00,88.49
1328.00,88.50
1327.00,88.52
1326.00,88.52
1325.00,88.49
1324.00,88.43
1323.00,88.33
1322.00,88.21
1321.00,88.06
1320.00,87.88
1319.00,87.69
1318.00,87.52
1317.00,87.38
1316.00,87.29
1315.00,87.25
1314.00,87.26
1313.00,87.29
1312.00,87.36
1311.00,87.48
1310.00,87.63
1309.00,87.81
1308.00,88.01
1307.00,88.21
1306.00,88.42
1305.00,88.60
1304.00,88.77
1303.00,88.94
1302.00,89.10
1301.00,89.24
1300.00,89.38
1299.00,89.50
1298.00,89.63
1297.00,89.77
1296.00,89.91
1295.00,90.06
1294.00,90.21
1293.00,90.36
1292.00,90.52
1291.00,90.67
1290.00,90.83
1289.00,90.96
1288.00,91.07
1287.00,91.16
1286.00,91.22
1285.00,91.26
1284.00,91.27
1283.00,91.26
1282.00,91.21
1281.00,91.12
1280.00,91.02
1279.00,90.94
1278.00,90.88
1277.00,90.85
1276.00,90.82
1275.00,90.81
1274.00,90.79
1273.00,90.76
1272.00,90.72
1271.00,90.68
1270.00,90.62
1269.00,90.56
1268.00,90.51
1267.00,90.47
1266.00,90.43
1265.00,90.41
1264.00,90.39
1263.00,90.38
1262.00,90.37
1261.00,90.38
1260.00,90.40
1259.00,90.45
1258.00,90.52
1257.00,90.61
1256.00,90.71
1255.00,90.82
1254.00,90.92
1253.00,91.02
1252.00,91.11
1251.00,91.20
1250.00,91.27
1249.00,91.33
1248.00,91.38
1247.00,91.41
1246.00,91.45
1245.00,91.48
1244.00,91.49
1243.00,91.48
1242.00,91.45
1241.00,91.41
1240.00,91.37
1239.00,91.34
1238.00,91.31
1237.00,91.27
1236.00,91.24
1235.00,91.22
1234.00,91.21
1233.00,91.21
1232.00,91.20
1231.00,91.18
1230.00,91.16
1229.00,91.16
1228.00,91.17
1227.00,91.21
1226.00,91.28
1225.00,91.37
1224.00,91.51
1223.00,91.68
1222.00,91.87
1221.00,92.06
1220.00,92.23
1219.00,92.39
1218.00,92.53
1217.00,92.65
1216.00,92.76
1215.00,92.84
1214.00,92.90
1213.00,92.93
1212.00,92.92
1211.00,92.87
1210.00,92.79
1209.00,92.67
1208.00,92.53
1207.00,92.36
1206.00,92.17
1205.00,91.98
1204.00,91.78
1203.00,91.60
1202.00,91.45
1201.00,91.33
1200.00,91.26
1199.00,91.23
1198.00,91.25
1197.00,91.32
1196.00,91.43
1195.00,91.60
1194.00,91.81
1193.00,92.04
1192.00,92.28
1191.00,92.52
1190.00,92.72
1189.00,92.89
1188.00,93.02
1187.00,93.11
1186.00,93.17
1185.00,93.19
1184.00,93.17
1183.00,93.10
1182.00,93.01
1181.00,92.89
1180.00,92.77
1179.00,92.61
1178.00,92.42
1177.00,92.19
1176.00,91.92
1175.00,91.62
1174.00,91.30
1173.00,90.97
1172.00,90.64
1171.00,90.28
1170.00,89.88
1169.00,89.44
1168.00,88.95
1167.00,88.44
1166.00,87.92
1165.00,87.40
1164.00,86.88
1163.00,86.40
1162.00,85.95
1161.00,85.55
1160.00,85.21
1159.00,84.97
1158.00,84.82
1157.00,84.74
1156.00,84.72
1155.00,84.77
1154.00,84.88
1153.00,85.04
1152.00,85.23
1151.00,85.44
1150.00,85.65
1149.00,85.85
1148.00,86.04
1147.00,86.23
1146.00,86.43
1145.00,86.61
1144.00,86.76
1143.00,86.86
1142.00,86.90
1141.00,86.89
1140.00,86.82
1139.00,86.70
1138.00,86.54
1137.00,86.34
1136.00,86.11
1135.00,85.85
1134.00,85.57
1133.00,85.28
1132.00,84.97
1131.00,84.65
1130.00,84.30
1129.00,83.91
1128.00,83.49
1127.00,83.10
1126.00,82.74
1125.00,82.39
1124.00,82.05
1123.00,81.71
1122.00,81.38
1121.00,81.05
1120.00,80.72
1119.00,80.40
1118.00,80.12
1117.00,79.86
1116.00,79.62
1115.00,79.39
1114.00,79.16
1113.00,78.93
1112.00,78.71
1111.00,78.55
1110.00,78.42
1109.00,78.31
1108.00,78.20
1107.00,78.08
1106.00,77.94
1105.00,77.76
1104.00,77.52
1103.00,77.22
1102.00,76.87
1101.00,76.45
1100.00,76.00
1099.00,75.56
1098.00,75.16
1097.00,74.80
1096.00,74.47
1095.00,74.18
1094.00,73.91
1093.00,73.65
1092.00,73.40
1091.00,73.16
1090.00,72.94
1089.00,72.74
1088.00,72.53
1087.00,72.30
1086.00,72.02
1085.00,71.72
1084.00,71.44
1083.00,71.21
1082.00,71.04
1081.00,70.87
1080.00,70.70
1079.00,70.52
1078.00,70.30
1077.00,70.05
1076.00,69.78
1075.00,69.54
1074.00,69.34
1073.00,69.14
1072.00,68.94
1071.00,68.73
1070.00,68.51
1069.00,68.27
1068.00,68.01
1067.00,67.74
1066.00,67.44
1065.00,67.07
1064.00,66.67
1063.00,66.28
1062.00,65.91
1061.00,65.56
1060.00,65.22
1059.00,64.92
1058.00,64.67
1057.00,64.45
1056.00,64.24
1055.00,64.06
1054.00,63.90
1053.00,63.74
1052.00,63.60
1051.00,63.49
1050.00,63.39
1049.00,63.26
1048.00,63.12
1047.00,62.97
1046.00,62.81
1045.00,62.65
1044.00,62.51
1043.00,62.43
1042.00,62.40
1041.00,62.35
1040.00,62.25
1039.00,62.11
1038.00,61.95
1037.00,61.76
1036.00,61.54
1035.00,61.31
1034.00,61.07
1033.00,60.82
1032.00,60.55
1031.00,60.28
1030.00,60.02
1029.00,59.75
1028.00,59.50
1027.00,59.28
1026.00,59.10
1025.00,58.93
1024.00,58.76
1023.00,58.64
1022.00,58.56
1021.00,58.50
1020.00,58.45
1019.00,58.45
1018.00,58.50
1017.00,58.59
1016.00,58.72
1015.00,58.90
1014.00,59.12
1013.00,59.36
1012.00,59.60
1011.00,59.84
1010.00,60.08
1009.00,60.30
1008.00,60.49
1007.00,60.69
1006.00,60.88
1005.00,61.06
1004.00,61.19
1003.00,61.29
1002.00,61.35
1001.00,61.35
1000.00,61.30
999.00,61.25
998.00,61.22
997.00,61.22
996.00,61.26
995.00,61.36
994.00,61.52
993.00,61.74
992.00,61.99
991.00,62.32
990.00,62.73
989.00,63.22
988.00,63.76
987.00,64.36
986.00,65.00
985.00,65.66
984.00,66.33
983.00,67.02
982.00,67.71
981.00,68.39
980.00,69.05
979.00,69.70
978.00,70.34
977.00,70.93
976.00,71.47
975.00,71.95
974.00,72.39
973.00,72.80
972.00,73.16
971.00,73.51
970.00,73.84
969.00,74.15
968.00,74.43
967.00,74.69
966.00,74.95
965.00,75.22
964.00,75.50
963.00,75.79
962.00,76.12
961.00,76.45
960.00,76.79
959.00,77.14
958.00,77.49
957.00,77.85
956.00,78.22
955.00,78.58
954.00,78.95
953.00,79.30
952.00,79.63
951.00,79.96
950.00,80.27
949.00,80.57
948.00,80.84
947.00,81.09
946.00,81.32
945.00,81.54
944.00,81.77
943.00,81.98
942.00,82.19
941.00,82.37
940.00,82.53
939.00,82.69
938.00,82.83
937.00,82.95
936.00,83.06
935.00,83.17
934.00,83.29
933.00,83.42
932.00,83.54
931.00,83.65
930.00,83.78
929.00,83.91
928.00,84.02
927.00,84.12
926.00,84.23
925.00,84.35
924.00,84.49
923.00,84.60
922.00,84.71
921.00,84.80
920.00,84.90
919.00,84.98
918.00,85.02
917.00,85.01
916.00,84.95
915.00,84.88
914.00,84.81
913.00,84.73
912.00,84.62
911.00,84.49
910.00,84.33
909.00,84.13
908.00,83.88
907.00,83.60
906.00,83.33
905.00,83.06
904.00,82.77
903.00,82.47
902.00,82.15
901.00,81.82
900.00,81.48
899.00,81.14
898.00,80.84
897.00,80.58
896.00,80.38
895.00,80.28
894.00,80.29
893.00,80.38
892.00,80.56
891.00,80.83
890.00,81.17
889.00,81.55
888.00,81.95
887.00,82.35
886.00,82.76
885.00,83.16
884.00,83.56
883.00,83.95
882.00,84.31
881.00,84.65
880.00,84.95
879.00,85.25
878.00,85.53
877.00,85.79
876.00,86.00
875.00,86.18
874.00,86.34
873.00,86.49
872.00,86.62
871.00,86.73
870.00,86.82
869.00,86.91
868.00,87.00
867.00,87.11
866.00,87.22
865.00,87.31
864.00,87.37
863.00,87.41
862.00,87.45
861.00,87.49
860.00,87.52
859.00,87.57
858.00,87.62
857.00,87.69
856.00,87.75
855.00,87.80
854.00,87.84
853.00,87.84
852.00,87.81
851.00,87.78
850.00,87.79
849.00,87.81
848.00,87.84
847.00,87.85
846.00,87.85
845.00,87.85
844.00,87.86
843.00,87.87
842.00,87.87
841.00,87.85
840.00,87.81
839.00,87.77
838.00,87.75
837.00,87.72
836.00,87.68
835.00,87.63
834.00,87.60
833.00,87.61
832.00,87.64
831.00,87.68
830.00,87.72
829.00,87.74
828.00,87.74
827.00,87.71
826.00,87.67
825.00,87.62
824.00,87.56
823.00,87.51
822.00,87.47
821.00,87.45
820.00,87.43
819.00,87.43
818.00,87.43
817.00,87.42
816.00,87.37
815.00,87.32
814.00,87.28
813.00,87.25
812.00,87.22
811.00,87.18
810.00,87.14
809.00,87.09
808.00,87.06
807.00,87.04
806.00,87.04
805.00,87.03
804.00,87.03
803.00,87.03
802.00,87.02
801.00,86.99
800.00,86.93
799.00,86.87
798.00,86.84
797.00,86.83
796.00,86.82
795.00,86.78
794.00,86.71
793.00,86.64
792.00,86.58
791.00,86.56
790.00,86.54
789.00,86.49
788.00,86.42
787.00,86.36
786.00,86.33
785.00,86.30
784.00,86.27
783.00,86.22
782.00,86.17
781.00,86.13
780.00,86.07
779.00,86.02
778.00,85.98
777.00,85.94
776.00,85.90
775.00,85.85
774.00,85.80
773.00,85.77
772.00,85.74
771.00,85.70
770.00,85.66
769.00,85.59
768.00,85.52
767.00,85.45
766.00,85.41
765.00,85.37
764.00,85.32
763.00,85.25
762.00,85.18
761.00,85.10
760.00,85.01
759.00,84.91
758.00,84.83
757.00,84.76
756.00,84.70
755.00,84.64
754.00,84.59
753.00,84.55
752.00,84.53
751.00,84.53
750.00,84.54
749.00,84.53
748.00,84.48
747.00,84.38
746.00,84.26
745.00,84.14
744.00,84.03
743.00,83.92
742.00,83.81
741.00,83.72
740.00,83.66
739.00,83.64
738.00,83.64
737.00,83.62
736.00,83.53
735.00,83.40
734.00,83.29
733.00,83.22
732.00,83.17
731.00,83.12
730.00,83.04
729.00,82.93
728.00,82.82
727.00,82.71
726.00,82.61
725.00,82.50
724.00,82.40
723.00,82.32
722.00,82.26
721.00,82.19
720.00,82.10
719.00,82.02
718.00,81.94
717.00,81.87
716.00,81.79
715.00,81.73
714.00,81.68
713.00,81.63
712.00,81.58
711.00,81.55
710.00,81.54
709.00,81.50
708.00,81.42
707.00,81.33
706.00,81.26
705.00,81.23
704.00,81.20
703.00,81.19
702.00,81.19
701.00,81.19
700.00,81.18
699.00,81.18
698.00,81.17
697.00,81.13
696.00,81.06
695.00,81.01
694.00,80.99
693.00,80.98
692.00,80.97
691.00,80.95
690.00,80.93
689.00,80.89
688.00,80.81
687.00,80.71
686.00,80.62
685.00,80.51
684.00,80.34
683.00,80.10
682.00,79.79
681.00,79.38
680.00,78.86
679.00,78.28
678.00,77.64
677.00,76.93
676.00,76.13
675.00,75.31
674.00,74.55
673.00,73.92
672.00,73.47
671.00,73.19
670.00,73.01
669.00,72.78
668.00,72.47
667.00,72.27
666.00,72.30
665.00,72.45
664.00,72.56
663.00,72.60
662.00,72.62
661.00,72.71
660.00,72.87
659.00,73.05
658.00,73.18
657.00,73.21
656.00,73.17
655.00,73.13
654.00,73.16
653.00,73.25
652.00,73.40
651.00,73.57
650.00,73.73
649.00,73.80
648.00,73.77
647.00,73.68
646.00,73.61
645.00,73.55
644.00,73.49
643.00,73.42
642.00,73.36
641.00,73.36
640.00,73.42
639.00,73.56
638.00,73.68
637.00,73.67
636.00,73.49
635.00,73.26
634.00,73.07
633.00,72.91
632.00,72.75
631.00,72.63
630.00,72.58
629.00,72.56
628.00,72.53
627.00,72.47
626.00,72.39
625.00,72.29
624.00,72.19
623.00,72.16
622.00,72.18
621.00,72.15
620.00,71.99
619.00,71.73
618.00,71.44
617.00,71.11
616.00,70.75
615.00,70.42
614.00,70.11
613.00,69.75
612.00,69.37
611.00,69.10
610.00,69.02
609.00,69.04
608.00,69.12
607.00,69.28
606.00,69.48
605.00,69.67
604.00,69.85
603.00,70.11
602.00,70.33
601.00,70.33
600.00,70.11
599.00,69.95
598.00,70.03
597.00,70.16
596.00,70.11
595.00,69.87
594.00,69.61
593.00,69.36
592.00,69.10
591.00,68.86
590.00,68.74
589.00,68.72
588.00,68.74
587.00,68.78
586.00,68.79
585.00,68.68
584.00,68.54
583.00,68.56
582.00,68.81
581.00,69.03
580.00,69.03
579.00,68.89
578.00,68.71
577.00,68.45
576.00,68.15
575.00,68.11
574.00,68.36
573.00,68.57
572.00,68.50
571.00,68.28
570.00,68.06
569.00,67.79
568.00,67.48
567.00,67.22
566.00,66.91
565.00,66.35
564.00,65.81
563.00,65.90
562.00,66.62
561.00,67.25
560.00,67.24
559.00,66.87
558.00,66.70
557.00,66.79
556.00,66.95
555.00,67.19
554.00,67.55
553.00,67.80
552.00,67.71
551.00,67.51
550.00,67.44
