Created as New Dataset,187 Cortaulds
cm-1,%T
4000.00,103.06
3999.00,103.06
3998.00,103.06
3997.00,103.07
3996.00,103.07
3995.00,103.06
3994.00,103.05
3993.00,103.04
3992.00,103.05
3991.00,103.06
3990.00,103.06
3989.00,103.05
3988.00,103.02
3987.00,102.99
3986.00,102.98
3985.00,102.98
3984.00,103.00
3983.00,103.02
3982.00,103.02
3981.00,103.02
3980.00,103.01
3979.00,103.01
3978.00,103.02
3977.00,103.03
3976.00,103.04
3975.00,103.04
3974.00,103.03
3973.00,103.02
3972.00,103.02
3971.00,103.01
3970.00,103.02
3969.00,103.03
3968.00,103.04
3967.00,103.05
3966.00,103.06
3965.00,103.06
3964.00,103.06
3963.00,103.06
3962.00,103.06
3961.00,103.04
3960.00,103.02
3959.00,103.00
3958.00,102.98
3957.00,102.97
3956.00,102.97
3955.00,103.00
3954.00,103.03
3953.00,103.06
3952.00,103.08
3951.00,103.08
3950.00,103.06
3949.00,103.05
3948.00,103.04
3947.00,103.04
3946.00,103.04
3945.00,103.04
3944.00,103.04
3943.00,103.02
3942.00,103.00
3941.00,102.99
3940.00,102.99
3939.00,103.00
3938.00,103.01
3937.00,103.01
3936.00,103.01
3935.00,103.00
3934.00,102.99
3933.00,103.00
3932.00,103.00
3931.00,103.01
3930.00,103.01
3929.00,103.00
3928.00,102.99
3927.00,102.98
3926.00,102.98
3925.00,102.98
3924.00,102.98
3923.00,102.99
3922.00,103.00
3921.00,102.99
3920.00,102.98
3919.00,102.96
3918.00,102.94
3917.00,102.95
3916.00,102.96
3915.00,102.99
3914.00,103.01
3913.00,103.02
3912.00,103.02
3911.00,103.00
3910.00,102.99
3909.00,102.98
3908.00,102.98
3907.00,102.99
3906.00,103.00
3905.00,103.02
3904.00,103.04
3903.00,103.05
3902.00,103.06
3901.00,103.06
3900.00,103.05
3899.00,103.05
3898.00,103.05
3897.00,103.05
3896.00,103.04
3895.00,103.03
3894.00,103.02
3893.00,103.02
3892.00,103.02
3891.00,103.03
3890.00,103.04
3889.00,103.06
3888.00,103.09
3887.00,103.11
3886.00,103.12
3885.00,103.11
3884.00,103.08
3883.00,103.07
3882.00,103.06
3881.00,103.06
3880.00,103.05
3879.00,103.03
3878.00,103.02
3877.00,103.03
3876.00,103.05
3875.00,103.07
3874.00,103.07
3873.00,103.07
3872.00,103.05
3871.00,103.04
3870.00,103.04
3869.00,103.04
3868.00,103.04
3867.00,103.05
3866.00,103.06
3865.00,103.06
3864.00,103.05
3863.00,103.05
3862.00,103.04
3861.00,103.04
3860.00,103.03
3859.00,103.03
3858.00,103.04
3857.00,103.04
3856.00,103.07
3855.00,103.10
3854.00,103.12
3853.00,103.13
3852.00,103.11
3851.00,103.08
3850.00,103.04
3849.00,103.01
3848.00,102.98
3847.00,102.96
3846.00,102.95
3845.00,102.97
3844.00,103.00
3843.00,103.03
3842.00,103.05
3841.00,103.05
3840.00,103.04
3839.00,103.04
3838.00,103.05
3837.00,103.07
3836.00,103.08
3835.00,103.10
3834.00,103.10
3833.00,103.10
3832.00,103.08
3831.00,103.06
3830.00,103.04
3829.00,103.02
3828.00,103.01
3827.00,103.02
3826.00,103.03
3825.00,103.05
3824.00,103.05
3823.00,103.05
3822.00,103.05
3821.00,103.06
3820.00,103.06
3819.00,103.05
3818.00,103.04
3817.00,103.02
3816.00,103.01
3815.00,103.00
3814.00,103.01
3813.00,103.02
3812.00,103.03
3811.00,103.03
3810.00,103.02
3809.00,103.00
3808.00,102.98
3807.00,102.97
3806.00,102.97
3805.00,102.98
3804.00,103.00
3803.00,103.01
3802.00,103.02
3801.00,103.04
3800.00,103.04
3799.00,103.04
3798.00,103.03
3797.00,103.02
3796.00,103.01
3795.00,103.02
3794.00,103.02
3793.00,103.01
3792.00,102.99
3791.00,102.96
3790.00,102.95
3789.00,102.94
3788.00,102.94
3787.00,102.94
3786.00,102.93
3785.00,102.93
3784.00,102.94
3783.00,102.97
3782.00,103.00
3781.00,103.02
3780.00,103.02
3779.00,103.01
3778.00,102.99
3777.00,102.98
3776.00,102.98
3775.00,103.00
3774.00,103.02
3773.00,103.04
3772.00,103.05
3771.00,103.03
3770.00,103.01
3769.00,102.99
3768.00,102.97
3767.00,102.96
3766.00,102.96
3765.00,102.96
3764.00,102.94
3763.00,102.94
3762.00,102.94
3761.00,102.97
3760.00,103.00
3759.00,103.02
3758.00,103.02
3757.00,103.00
3756.00,102.98
3755.00,102.96
3754.00,102.95
3753.00,102.94
3752.00,102.94
3751.00,102.95
3750.00,102.97
3749.00,102.99
3748.00,102.99
3747.00,102.99
3746.00,102.98
3745.00,102.97
3744.00,102.96
3743.00,102.97
3742.00,102.97
3741.00,102.97
3740.00,102.97
3739.00,102.97
3738.00,102.97
3737.00,102.97
3736.00,102.97
3735.00,102.96
3734.00,102.95
3733.00,102.93
3732.00,102.92
3731.00,102.92
3730.00,102.91
3729.00,102.91
3728.00,102.92
3727.00,102.94
3726.00,102.96
3725.00,102.97
3724.00,102.97
3723.00,102.96
3722.00,102.94
3721.00,102.93
3720.00,102.91
3719.00,102.90
3718.00,102.90
3717.00,102.91
3716.00,102.93
3715.00,102.95
3714.00,102.96
3713.00,102.95
3712.00,102.93
3711.00,102.91
3710.00,102.90
3709.00,102.92
3708.00,102.95
3707.00,102.97
3706.00,102.97
3705.00,102.96
3704.00,102.95
3703.00,102.95
3702.00,102.95
3701.00,102.94
3700.00,102.92
3699.00,102.91
3698.00,102.91
3697.00,102.91
3696.00,102.93
3695.00,102.94
3694.00,102.95
3693.00,102.97
3692.00,102.99
3691.00,103.01
3690.00,103.03
3689.00,103.04
3688.00,103.03
3687.00,103.00
3686.00,102.97
3685.00,102.94
3684.00,102.92
3683.00,102.92
3682.00,102.92
3681.00,102.92
3680.00,102.93
3679.00,102.94
3678.00,102.96
3677.00,102.98
3676.00,102.97
3675.00,102.96
3674.00,102.94
3673.00,102.93
3672.00,102.93
3671.00,102.93
3670.00,102.92
3669.00,102.91
3668.00,102.90
3667.00,102.87
3666.00,102.83
3665.00,102.80
3664.00,102.76
3663.00,102.74
3662.00,102.73
3661.00,102.73
3660.00,102.72
3659.00,102.72
3658.00,102.71
3657.00,102.71
3656.00,102.72
3655.00,102.72
3654.00,102.72
3653.00,102.73
3652.00,102.76
3651.00,102.80
3650.00,102.83
3649.00,102.82
3648.00,102.79
3647.00,102.76
3646.00,102.74
3645.00,102.74
3644.00,102.74
3643.00,102.74
3642.00,102.73
3641.00,102.70
3640.00,102.67
3639.00,102.65
3638.00,102.63
3637.00,102.62
3636.00,102.62
3635.00,102.61
3634.00,102.60
3633.00,102.59
3632.00,102.57
3631.00,102.56
3630.00,102.56
3629.00,102.58
3628.00,102.58
3627.00,102.58
3626.00,102.56
3625.00,102.55
3624.00,102.53
3623.00,102.51
3622.00,102.48
3621.00,102.45
3620.00,102.42
3619.00,102.40
3618.00,102.39
3617.00,102.40
3616.00,102.40
3615.00,102.41
3614.00,102.42
3613.00,102.41
3612.00,102.39
3611.00,102.36
3610.00,102.33
3609.00,102.31
3608.00,102.30
3607.00,102.29
3606.00,102.29
3605.00,102.28
3604.00,102.26
3603.00,102.23
3602.00,102.19
3601.00,102.15
3600.00,102.12
3599.00,102.10
3598.00,102.10
3597.00,102.10
3596.00,102.09
3595.00,102.08
3594.00,102.07
3593.00,102.06
3592.00,102.05
3591.00,102.03
3590.00,101.99
3589.00,101.96
3588.00,101.93
3587.00,101.91
3586.00,101.89
3585.00,101.86
3584.00,101.82
3583.00,101.80
3582.00,101.80
3581.00,101.80
3580.00,101.81
3579.00,101.79
3578.00,101.75
3577.00,101.71
3576.00,101.66
3575.00,101.63
3574.00,101.60
3573.00,101.57
3572.00,101.54
3571.00,101.51
3570.00,101.49
3569.00,101.46
3568.00,101.43
3567.00,101.41
3566.00,101.40
3565.00,101.40
3564.00,101.39
3563.00,101.38
3562.00,101.36
3561.00,101.34
3560.00,101.31
3559.00,101.28
3558.00,101.27
3557.00,101.26
3556.00,101.25
3555.00,101.22
3554.00,101.18
3553.00,101.13
3552.00,101.09
3551.00,101.06
3550.00,101.03
3549.00,101.00
3548.00,100.97
3547.00,100.93
3546.00,100.90
3545.00,100.87
3544.00,100.85
3543.00,100.85
3542.00,100.87
3541.00,100.88
3540.00,100.88
3539.00,100.86
3538.00,100.83
3537.00,100.79
3536.00,100.77
3535.00,100.73
3534.00,100.69
3533.00,100.64
3532.00,100.60
3531.00,100.56
3530.00,100.54
3529.00,100.52
3528.00,100.49
3527.00,100.46
3526.00,100.43
3525.00,100.41
3524.00,100.39
3523.00,100.38
3522.00,100.36
3521.00,100.33
3520.00,100.29
3519.00,100.26
3518.00,100.22
3517.00,100.18
3516.00,100.13
3515.00,100.06
3514.00,100.00
3513.00,99.95
3512.00,99.91
3511.00,99.89
3510.00,99.88
3509.00,99.85
3508.00,99.81
3507.00,99.75
3506.00,99.69
3505.00,99.62
3504.00,99.56
3503.00,99.50
3502.00,99.45
3501.00,99.40
3500.00,99.35
3499.00,99.30
3498.00,99.25
3497.00,99.21
3496.00,99.16
3495.00,99.12
3494.00,99.08
3493.00,99.04
3492.00,98.99
3491.00,98.94
3490.00,98.88
3489.00,98.83
3488.00,98.79
3487.00,98.76
3486.00,98.72
3485.00,98.69
3484.00,98.67
3483.00,98.66
3482.00,98.67
3481.00,98.66
3480.00,98.64
3479.00,98.62
3478.00,98.59
3477.00,98.57
3476.00,98.54
3475.00,98.53
3474.00,98.53
3473.00,98.53
3472.00,98.53
3471.00,98.51
3470.00,98.49
3469.00,98.46
3468.00,98.42
3467.00,98.38
3466.00,98.34
3465.00,98.30
3464.00,98.27
3463.00,98.24
3462.00,98.20
3461.00,98.15
3460.00,98.11
3459.00,98.06
3458.00,98.01
3457.00,97.95
3456.00,97.91
3455.00,97.87
3454.00,97.83
3453.00,97.79
3452.00,97.74
3451.00,97.67
3450.00,97.61
3449.00,97.55
3448.00,97.50
3447.00,97.47
3446.00,97.44
3445.00,97.41
3444.00,97.38
3443.00,97.35
3442.00,97.33
3441.00,97.33
3440.00,97.32
3439.00,97.31
3438.00,97.29
3437.00,97.28
3436.00,97.27
3435.00,97.28
3434.00,97.29
3433.00,97.29
3432.00,97.28
3431.00,97.27
3430.00,97.27
3429.00,97.28
3428.00,97.28
3427.00,97.29
3426.00,97.28
3425.00,97.28
3424.00,97.27
3423.00,97.26
3422.00,97.25
3421.00,97.24
3420.00,97.22
3419.00,97.19
3418.00,97.16
3417.00,97.13
3416.00,97.11
3415.00,97.09
3414.00,97.08
3413.00,97.07
3412.00,97.08
3411.00,97.07
3410.00,97.04
3409.00,97.00
3408.00,96.96
3407.00,96.92
3406.00,96.90
3405.00,96.90
3404.00,96.91
3403.00,96.91
3402.00,96.89
3401.00,96.87
3400.00,96.85
3399.00,96.83
3398.00,96.81
3397.00,96.79
3396.00,96.77
3395.00,96.75
3394.00,96.73
3393.00,96.73
3392.00,96.74
3391.00,96.74
3390.00,96.74
3389.00,96.72
3388.00,96.69
3387.00,96.68
3386.00,96.69
3385.00,96.69
3384.00,96.68
3383.00,96.66
3382.00,96.64
3381.00,96.62
3380.00,96.61
3379.00,96.58
3378.00,96.55
3377.00,96.51
3376.00,96.47
3375.00,96.44
3374.00,96.42
3373.00,96.42
3372.00,96.43
3371.00,96.45
3370.00,96.47
3369.00,96.49
3368.00,96.49
3367.00,96.48
3366.00,96.47
3365.00,96.46
3364.00,96.45
3363.00,96.44
3362.00,96.43
3361.00,96.42
3360.00,96.40
3359.00,96.38
3358.00,96.37
3357.00,96.35
3356.00,96.34
3355.00,96.33
3354.00,96.32
3353.00,96.32
3352.00,96.31
3351.00,96.31
3350.00,96.32
3349.00,96.34
3348.00,96.36
3347.00,96.36
3346.00,96.34
3345.00,96.32
3344.00,96.30
3343.00,96.29
3342.00,96.30
3341.00,96.31
3340.00,96.32
3339.00,96.31
3338.00,96.29
3337.00,96.27
3336.00,96.25
3335.00,96.25
3334.00,96.27
3333.00,96.28
3332.00,96.27
3331.00,96.25
3330.00,96.22
3329.00,96.20
3328.00,96.19
3327.00,96.20
3326.00,96.20
3325.00,96.21
3324.00,96.21
3323.00,96.21
3322.00,96.19
3321.00,96.18
3320.00,96.16
3319.00,96.15
3318.00,96.14
3317.00,96.15
3316.00,96.15
3315.00,96.16
3314.00,96.17
3313.00,96.20
3312.00,96.22
3311.00,96.24
3310.00,96.24
3309.00,96.23
3308.00,96.22
3307.00,96.23
3306.00,96.24
3305.00,96.24
3304.00,96.24
3303.00,96.23
3302.00,96.22
3301.00,96.23
3300.00,96.25
3299.00,96.25
3298.00,96.25
3297.00,96.24
3296.00,96.23
3295.00,96.23
3294.00,96.23
3293.00,96.23
3292.00,96.23
3291.00,96.23
3290.00,96.23
3289.00,96.23
3288.00,96.24
3287.00,96.27
3286.00,96.30
3285.00,96.33
3284.00,96.35
3283.00,96.35
3282.00,96.35
3281.00,96.35
3280.00,96.34
3279.00,96.34
3278.00,96.34
3277.00,96.33
3276.00,96.32
3275.00,96.32
3274.00,96.33
3273.00,96.34
3272.00,96.35
3271.00,96.36
3270.00,96.37
3269.00,96.37
3268.00,96.38
3267.00,96.38
3266.00,96.40
3265.00,96.42
3264.00,96.44
3263.00,96.45
3262.00,96.46
3261.00,96.47
3260.00,96.48
3259.00,96.49
3258.00,96.50
3257.00,96.51
3256.00,96.52
3255.00,96.53
3254.00,96.53
3253.00,96.53
3252.00,96.52
3251.00,96.53
3250.00,96.55
3249.00,96.58
3248.00,96.60
3247.00,96.62
3246.00,96.64
3245.00,96.65
3244.00,96.67
3243.00,96.68
3242.00,96.70
3241.00,96.71
3240.00,96.72
3239.00,96.72
3238.00,96.72
3237.00,96.71
3236.00,96.71
3235.00,96.73
3234.00,96.75
3233.00,96.78
3232.00,96.80
3231.00,96.81
3230.00,96.81
3229.00,96.82
3228.00,96.83
3227.00,96.84
3226.00,96.84
3225.00,96.83
3224.00,96.83
3223.00,96.83
3222.00,96.83
3221.00,96.83
3220.00,96.84
3219.00,96.84
3218.00,96.85
3217.00,96.87
3216.00,96.90
3215.00,96.92
3214.00,96.94
3213.00,96.95
3212.00,96.97
3211.00,96.99
3210.00,97.00
3209.00,97.00
3208.00,97.01
3207.00,97.03
3206.00,97.05
3205.00,97.08
3204.00,97.10
3203.00,97.10
3202.00,97.10
3201.00,97.09
3200.00,97.10
3199.00,97.10
3198.00,97.12
3197.00,97.13
3196.00,97.14
3195.00,97.14
3194.00,97.16
3193.00,97.19
3192.00,97.23
3191.00,97.26
3190.00,97.29
3189.00,97.30
3188.00,97.30
3187.00,97.30
3186.00,97.30
3185.00,97.30
3184.00,97.30
3183.00,97.30
3182.00,97.31
3181.00,97.33
3180.00,97.35
3179.00,97.37
3178.00,97.39
3177.00,97.41
3176.00,97.43
3175.00,97.44
3174.00,97.46
3173.00,97.46
3172.00,97.46
3171.00,97.47
3170.00,97.48
3169.00,97.50
3168.00,97.52
3167.00,97.54
3166.00,97.56
3165.00,97.58
3164.00,97.59
3163.00,97.60
3162.00,97.60
3161.00,97.60
3160.00,97.60
3159.00,97.61
3158.00,97.63
3157.00,97.66
3156.00,97.70
3155.00,97.73
3154.00,97.76
3153.00,97.76
3152.00,97.76
3151.00,97.76
3150.00,97.76
3149.00,97.77
3148.00,97.79
3147.00,97.82
3146.00,97.83
3145.00,97.83
3144.00,97.83
3143.00,97.84
3142.00,97.87
3141.00,97.90
3140.00,97.93
3139.00,97.95
3138.00,97.96
3137.00,97.97
3136.00,97.98
3135.00,98.00
3134.00,98.04
3133.00,98.07
3132.00,98.09
3131.00,98.10
3130.00,98.12
3129.00,98.14
3128.00,98.16
3127.00,98.18
3126.00,98.19
3125.00,98.20
3124.00,98.21
3123.00,98.24
3122.00,98.28
3121.00,98.32
3120.00,98.37
3119.00,98.40
3118.00,98.41
3117.00,98.42
3116.00,98.43
3115.00,98.45
3114.00,98.47
3113.00,98.49
3112.00,98.51
3111.00,98.53
3110.00,98.55
3109.00,98.57
3108.00,98.58
3107.00,98.60
3106.00,98.61
3105.00,98.63
3104.00,98.65
3103.00,98.67
3102.00,98.69
3101.00,98.72
3100.00,98.74
3099.00,98.77
3098.00,98.80
3097.00,98.83
3096.00,98.85
3095.00,98.87
3094.00,98.89
3093.00,98.91
3092.00,98.94
3091.00,98.96
3090.00,98.97
3089.00,99.00
3088.00,99.04
3087.00,99.08
3086.00,99.13
3085.00,99.15
3084.00,99.17
3083.00,99.17
3082.00,99.18
3081.00,99.20
3080.00,99.23
3079.00,99.27
3078.00,99.29
3077.00,99.32
3076.00,99.34
3075.00,99.36
3074.00,99.38
3073.00,99.40
3072.00,99.40
3071.00,99.39
3070.00,99.39
3069.00,99.39
3068.00,99.40
3067.00,99.41
3066.00,99.43
3065.00,99.46
3064.00,99.48
3063.00,99.52
3062.00,99.56
3061.00,99.59
3060.00,99.61
3059.00,99.62
3058.00,99.62
3057.00,99.63
3056.00,99.66
3055.00,99.71
3054.00,99.75
3053.00,99.77
3052.00,99.77
3051.00,99.77
3050.00,99.76
3049.00,99.75
3048.00,99.76
3047.00,99.78
3046.00,99.82
3045.00,99.85
3044.00,99.87
3043.00,99.88
3042.00,99.90
3041.00,99.92
3040.00,99.95
3039.00,99.98
3038.00,99.99
3037.00,100.00
3036.00,100.01
3035.00,100.01
3034.00,100.00
3033.00,100.00
3032.00,100.02
3031.00,100.04
3030.00,100.05
3029.00,100.05
3028.00,100.05
3027.00,100.05
3026.00,100.05
3025.00,100.06
3024.00,100.08
3023.00,100.11
3022.00,100.14
3021.00,100.16
3020.00,100.17
3019.00,100.18
3018.00,100.20
3017.00,100.23
3016.00,100.26
3015.00,100.28
3014.00,100.29
3013.00,100.30
3012.00,100.31
3011.00,100.32
3010.00,100.33
3009.00,100.33
3008.00,100.32
3007.00,100.31
3006.00,100.30
3005.00,100.30
3004.00,100.32
3003.00,100.33
3002.00,100.34
3001.00,100.34
3000.00,100.33
2999.00,100.32
2998.00,100.32
2997.00,100.33
2996.00,100.34
2995.00,100.36
2994.00,100.36
2993.00,100.36
2992.00,100.34
2991.00,100.34
2990.00,100.36
2989.00,100.38
2988.00,100.39
2987.00,100.39
2986.00,100.36
2985.00,100.33
2984.00,100.30
2983.00,100.28
2982.00,100.29
2981.00,100.31
2980.00,100.33
2979.00,100.34
2978.00,100.33
2977.00,100.31
2976.00,100.29
2975.00,100.27
2974.00,100.26
2973.00,100.25
2972.00,100.25
2971.00,100.24
2970.00,100.22
2969.00,100.21
2968.00,100.20
2967.00,100.20
2966.00,100.18
2965.00,100.16
2964.00,100.13
2963.00,100.10
2962.00,100.08
2961.00,100.06
2960.00,100.04
2959.00,100.01
2958.00,99.99
2957.00,99.97
2956.00,99.96
2955.00,99.94
2954.00,99.92
2953.00,99.89
2952.00,99.86
2951.00,99.82
2950.00,99.78
2949.00,99.75
2948.00,99.71
2947.00,99.67
2946.00,99.63
2945.00,99.59
2944.00,99.55
2943.00,99.52
2942.00,99.48
2941.00,99.44
2940.00,99.40
2939.00,99.34
2938.00,99.28
2937.00,99.22
2936.00,99.17
2935.00,99.14
2934.00,99.11
2933.00,99.08
2932.00,99.06
2931.00,99.04
2930.00,99.02
2929.00,98.99
2928.00,98.96
2927.00,98.94
2926.00,98.91
2925.00,98.89
2924.00,98.87
2923.00,98.84
2922.00,98.80
2921.00,98.76
2920.00,98.73
2919.00,98.70
2918.00,98.69
2917.00,98.67
2916.00,98.66
2915.00,98.65
2914.00,98.64
2913.00,98.61
2912.00,98.57
2911.00,98.52
2910.00,98.49
2909.00,98.46
2908.00,98.44
2907.00,98.40
2906.00,98.36
2905.00,98.31
2904.00,98.28
2903.00,98.27
2902.00,98.28
2901.00,98.29
2900.00,98.29
2899.00,98.27
2898.00,98.24
2897.00,98.21
2896.00,98.19
2895.00,98.17
2894.00,98.16
2893.00,98.15
2892.00,98.14
2891.00,98.14
2890.00,98.14
2889.00,98.16
2888.00,98.18
2887.00,98.20
2886.00,98.22
2885.00,98.23
2884.00,98.25
2883.00,98.26
2882.00,98.27
2881.00,98.28
2880.00,98.28
2879.00,98.28
2878.00,98.29
2877.00,98.30
2876.00,98.31
2875.00,98.33
2874.00,98.34
2873.00,98.35
2872.00,98.36
2871.00,98.39
2870.00,98.41
2869.00,98.44
2868.00,98.47
2867.00,98.51
2866.00,98.54
2865.00,98.59
2864.00,98.64
2863.00,98.68
2862.00,98.71
2861.00,98.73
2860.00,98.77
2859.00,98.81
2858.00,98.85
2857.00,98.88
2856.00,98.90
2855.00,98.93
2854.00,98.96
2853.00,99.00
2852.00,99.03
2851.00,99.07
2850.00,99.10
2849.00,99.14
2848.00,99.18
2847.00,99.21
2846.00,99.25
2845.00,99.29
2844.00,99.34
2843.00,99.38
2842.00,99.42
2841.00,99.45
2840.00,99.48
2839.00,99.50
2838.00,99.52
2837.00,99.54
2836.00,99.55
2835.00,99.56
2834.00,99.58
2833.00,99.60
2832.00,99.62
2831.00,99.64
2830.00,99.66
2829.00,99.67
2828.00,99.69
2827.00,99.71
2826.00,99.73
2825.00,99.75
2824.00,99.77
2823.00,99.78
2822.00,99.79
2821.00,99.80
2820.00,99.82
2819.00,99.84
2818.00,99.86
2817.00,99.86
2816.00,99.86
2815.00,99.86
2814.00,99.87
2813.00,99.89
2812.00,99.90
2811.00,99.91
2810.00,99.92
2809.00,99.93
2808.00,99.94
2807.00,99.96
2806.00,99.97
2805.00,99.99
2804.00,100.00
2803.00,100.00
2802.00,100.01
2801.00,100.03
2800.00,100.04
2799.00,100.05
2798.00,100.05
2797.00,100.05
2796.00,100.05
2795.00,100.05
2794.00,100.06
2793.00,100.07
2792.00,100.09
2791.00,100.10
2790.00,100.12
2789.00,100.13
2788.00,100.14
2787.00,100.14
2786.00,100.15
2785.00,100.16
2784.00,100.17
2783.00,100.17
2782.00,100.17
2781.00,100.17
2780.00,100.17
2779.00,100.19
2778.00,100.21
2777.00,100.21
2776.00,100.21
2775.00,100.21
2774.00,100.22
2773.00,100.23
2772.00,100.24
2771.00,100.25
2770.00,100.25
2769.00,100.27
2768.00,100.29
2767.00,100.30
2766.00,100.30
2765.00,100.30
2764.00,100.29
2763.00,100.30
2762.00,100.32
2761.00,100.33
2760.00,100.35
2759.00,100.36
2758.00,100.37
2757.00,100.37
2756.00,100.37
2755.00,100.35
2754.00,100.34
2753.00,100.33
2752.00,100.32
2751.00,100.32
2750.00,100.32
2749.00,100.33
2748.00,100.33
2747.00,100.33
2746.00,100.33
2745.00,100.31
2744.00,100.29
2743.00,100.28
2742.00,100.27
2741.00,100.27
2740.00,100.28
2739.00,100.29
2738.00,100.30
2737.00,100.32
2736.00,100.32
2735.00,100.33
2734.00,100.33
2733.00,100.33
2732.00,100.33
2731.00,100.34
2730.00,100.34
2729.00,100.34
2728.00,100.34
2727.00,100.34
2726.00,100.34
2725.00,100.33
2724.00,100.34
2723.00,100.34
2722.00,100.35
2721.00,100.37
2720.00,100.38
2719.00,100.39
2718.00,100.40
2717.00,100.41
2716.00,100.42
2715.00,100.42
2714.00,100.42
2713.00,100.41
2712.00,100.40
2711.00,100.39
2710.00,100.39
2709.00,100.40
2708.00,100.41
2707.00,100.42
2706.00,100.43
2705.00,100.44
2704.00,100.45
2703.00,100.45
2702.00,100.46
2701.00,100.46
2700.00,100.45
2699.00,100.44
2698.00,100.43
2697.00,100.42
2696.00,100.42
2695.00,100.43
2694.00,100.44
2693.00,100.44
2692.00,100.45
2691.00,100.45
2690.00,100.46
2689.00,100.47
2688.00,100.47
2687.00,100.46
2686.00,100.45
2685.00,100.45
2684.00,100.45
2683.00,100.46
2682.00,100.47
2681.00,100.47
2680.00,100.48
2679.00,100.48
2678.00,100.48
2677.00,100.48
2676.00,100.49
2675.00,100.49
2674.00,100.50
2673.00,100.51
2672.00,100.52
2671.00,100.51
2670.00,100.51
2669.00,100.50
2668.00,100.51
2667.00,100.52
2666.00,100.54
2665.00,100.57
2664.00,100.58
2663.00,100.58
2662.00,100.56
2661.00,100.54
2660.00,100.53
2659.00,100.53
2658.00,100.54
2657.00,100.54
2656.00,100.53
2655.00,100.52
2654.00,100.50
2653.00,100.50
2652.00,100.51
2651.00,100.53
2650.00,100.54
2649.00,100.56
2648.00,100.56
2647.00,100.56
2646.00,100.56
2645.00,100.55
2644.00,100.54
2643.00,100.54
2642.00,100.55
2641.00,100.56
2640.00,100.56
2639.00,100.55
2638.00,100.55
2637.00,100.55
2636.00,100.55
2635.00,100.54
2634.00,100.54
2633.00,100.54
2632.00,100.52
2631.00,100.51
2630.00,100.51
2629.00,100.53
2628.00,100.54
2627.00,100.56
2626.00,100.56
2625.00,100.56
2624.00,100.56
2623.00,100.55
2622.00,100.54
2621.00,100.55
2620.00,100.56
2619.00,100.57
2618.00,100.58
2617.00,100.59
2616.00,100.61
2615.00,100.63
2614.00,100.65
2613.00,100.66
2612.00,100.66
2611.00,100.65
2610.00,100.63
2609.00,100.61
2608.00,100.59
2607.00,100.58
2606.00,100.59
2605.00,100.59
2604.00,100.60
2603.00,100.62
2602.00,100.63
2601.00,100.64
2600.00,100.63
2599.00,100.60
2598.00,100.58
2597.00,100.57
2596.00,100.57
2595.00,100.57
2594.00,100.57
2593.00,100.58
2592.00,100.59
2591.00,100.59
2590.00,100.59
2589.00,100.58
2588.00,100.58
2587.00,100.58
2586.00,100.58
2585.00,100.59
2584.00,100.59
2583.00,100.60
2582.00,100.60
2581.00,100.61
2580.00,100.63
2579.00,100.63
2578.00,100.62
2577.00,100.61
2576.00,100.60
2575.00,100.60
2574.00,100.62
2573.00,100.63
2572.00,100.64
2571.00,100.64
2570.00,100.64
2569.00,100.64
2568.00,100.63
2567.00,100.62
2566.00,100.61
2565.00,100.61
2564.00,100.61
2563.00,100.61
2562.00,100.61
2561.00,100.63
2560.00,100.66
2559.00,100.68
2558.00,100.68
2557.00,100.65
2556.00,100.63
2555.00,100.62
2554.00,100.65
2553.00,100.67
2552.00,100.69
2551.00,100.70
2550.00,100.69
2549.00,100.69
2548.00,100.69
2547.00,100.69
2546.00,100.68
2545.00,100.68
2544.00,100.68
2543.00,100.69
2542.00,100.71
2541.00,100.73
2540.00,100.73
2539.00,100.72
2538.00,100.72
2537.00,100.73
2536.00,100.74
2535.00,100.74
2534.00,100.72
2533.00,100.71
2532.00,100.71
2531.00,100.71
2530.00,100.70
2529.00,100.69
2528.00,100.69
2527.00,100.69
2526.00,100.69
2525.00,100.69
2524.00,100.70
2523.00,100.70
2522.00,100.69
2521.00,100.66
2520.00,100.63
2519.00,100.63
2518.00,100.65
2517.00,100.66
2516.00,100.67
2515.00,100.67
2514.00,100.67
2513.00,100.66
2512.00,100.65
2511.00,100.65
2510.00,100.65
2509.00,100.66
2508.00,100.67
2507.00,100.68
2506.00,100.68
2505.00,100.67
2504.00,100.67
2503.00,100.67
2502.00,100.68
2501.00,100.70
2500.00,100.72
2499.00,100.73
2498.00,100.72
2497.00,100.69
2496.00,100.66
2495.00,100.64
2494.00,100.64
2493.00,100.66
2492.00,100.70
2491.00,100.74
2490.00,100.76
2489.00,100.77
2488.00,100.75
2487.00,100.74
2486.00,100.72
2485.00,100.71
2484.00,100.72
2483.00,100.73
2482.00,100.74
2481.00,100.75
2480.00,100.74
2479.00,100.73
2478.00,100.72
2477.00,100.71
2476.00,100.71
2475.00,100.71
2474.00,100.72
2473.00,100.72
2472.00,100.73
2471.00,100.73
2470.00,100.74
2469.00,100.75
2468.00,100.75
2467.00,100.76
2466.00,100.75
2465.00,100.74
2464.00,100.72
2463.00,100.71
2462.00,100.70
2461.00,100.68
2460.00,100.67
2459.00,100.67
2458.00,100.66
2457.00,100.67
2456.00,100.68
2455.00,100.70
2454.00,100.73
2453.00,100.75
2452.00,100.76
2451.00,100.78
2450.00,100.78
2449.00,100.77
2448.00,100.75
2447.00,100.73
2446.00,100.73
2445.00,100.75
2444.00,100.77
2443.00,100.78
2442.00,100.77
2441.00,100.75
2440.00,100.73
2439.00,100.71
2438.00,100.70
2437.00,100.71
2436.00,100.73
2435.00,100.75
2434.00,100.77
2433.00,100.79
2432.00,100.80
2431.00,100.81
2430.00,100.82
2429.00,100.83
2428.00,100.82
2427.00,100.81
2426.00,100.80
2425.00,100.79
2424.00,100.79
2423.00,100.78
2422.00,100.78
2421.00,100.77
2420.00,100.77
2419.00,100.77
2418.00,100.77
2417.00,100.77
2416.00,100.76
2415.00,100.76
2414.00,100.76
2413.00,100.77
2412.00,100.78
2411.00,100.78
2410.00,100.78
2409.00,100.77
2408.00,100.77
2407.00,100.78
2406.00,100.80
2405.00,100.81
2404.00,100.81
2403.00,100.81
2402.00,100.81
2401.00,100.82
2400.00,100.84
2399.00,100.85
2398.00,100.85
2397.00,100.85
2396.00,100.84
2395.00,100.84
2394.00,100.84
2393.00,100.83
2392.00,100.83
2391.00,100.83
2390.00,100.84
2389.00,100.86
2388.00,100.87
2387.00,100.87
2386.00,100.85
2385.00,100.84
2384.00,100.83
2383.00,100.84
2382.00,100.86
2381.00,100.88
2380.00,100.88
2379.00,100.88
2378.00,100.88
2377.00,100.89
2376.00,100.90
2375.00,100.91
2374.00,100.91
2373.00,100.91
2372.00,100.93
2371.00,100.95
2370.00,100.96
2369.00,100.94
2368.00,100.90
2367.00,100.87
2366.00,100.89
2365.00,100.92
2364.00,100.94
2363.00,100.93
2362.00,100.91
2361.00,100.88
2360.00,100.85
2359.00,100.84
2358.00,100.87
2357.00,100.91
2356.00,100.93
2355.00,100.94
2354.00,100.97
2353.00,101.02
2352.00,101.05
2351.00,101.06
2350.00,101.04
2349.00,101.01
2348.00,100.96
2347.00,100.89
2346.00,100.84
2345.00,100.83
2344.00,100.85
2343.00,100.87
2342.00,100.88
2341.00,100.90
2340.00,100.93
2339.00,100.97
2338.00,101.00
2337.00,101.02
2336.00,101.00
2335.00,100.95
2334.00,100.90
2333.00,100.87
2332.00,100.87
2331.00,100.88
2330.00,100.88
2329.00,100.87
2328.00,100.85
2327.00,100.82
2326.00,100.76
2325.00,100.69
2324.00,100.64
2323.00,100.64
2322.00,100.68
2321.00,100.73
2320.00,100.76
2319.00,100.77
2318.00,100.76
2317.00,100.76
2316.00,100.76
2315.00,100.77
2314.00,100.78
2313.00,100.79
2312.00,100.81
2311.00,100.83
2310.00,100.83
2309.00,100.79
2308.00,100.75
2307.00,100.72
2306.00,100.72
2305.00,100.73
2304.00,100.75
2303.00,100.74
2302.00,100.73
2301.00,100.71
2300.00,100.69
2299.00,100.67
2298.00,100.66
2297.00,100.66
2296.00,100.67
2295.00,100.66
2294.00,100.64
2293.00,100.61
2292.00,100.60
2291.00,100.61
2290.00,100.62
2289.00,100.62
2288.00,100.62
2287.00,100.61
2286.00,100.59
2285.00,100.56
2284.00,100.52
2283.00,100.51
2282.00,100.53
2281.00,100.55
2280.00,100.56
2279.00,100.56
2278.00,100.56
2277.00,100.57
2276.00,100.57
2275.00,100.57
2274.00,100.55
2273.00,100.54
2272.00,100.54
2271.00,100.54
2270.00,100.53
2269.00,100.52
2268.00,100.52
2267.00,100.54
2266.00,100.58
2265.00,100.62
2264.00,100.63
2263.00,100.63
2262.00,100.63
2261.00,100.64
2260.00,100.64
2259.00,100.64
2258.00,100.63
2257.00,100.61
2256.00,100.58
2255.00,100.54
2254.00,100.50
2253.00,100.45
2252.00,100.41
2251.00,100.39
2250.00,100.41
2249.00,100.46
2248.00,100.52
2247.00,100.56
2246.00,100.56
2245.00,100.53
2244.00,100.51
2243.00,100.50
2242.00,100.53
2241.00,100.55
2240.00,100.55
2239.00,100.53
2238.00,100.49
2237.00,100.48
2236.00,100.48
2235.00,100.49
2234.00,100.50
2233.00,100.50
2232.00,100.47
2231.00,100.44
2230.00,100.41
2229.00,100.42
2228.00,100.45
2227.00,100.49
2226.00,100.52
2225.00,100.53
2224.00,100.51
2223.00,100.48
2222.00,100.44
2221.00,100.41
2220.00,100.40
2219.00,100.42
2218.00,100.44
2217.00,100.46
2216.00,100.47
2215.00,100.46
2214.00,100.44
2213.00,100.43
2212.00,100.42
2211.00,100.42
2210.00,100.41
2209.00,100.36
2208.00,100.31
2207.00,100.28
2206.00,100.28
2205.00,100.33
2204.00,100.40
2203.00,100.48
2202.00,100.53
2201.00,100.52
2200.00,100.47
2199.00,100.42
2198.00,100.41
2197.00,100.44
2196.00,100.47
2195.00,100.47
2194.00,100.42
2193.00,100.36
2192.00,100.32
2191.00,100.33
2190.00,100.36
2189.00,100.38
2188.00,100.39
2187.00,100.39
2186.00,100.38
2185.00,100.37
2184.00,100.36
2183.00,100.36
2182.00,100.39
2181.00,100.43
2180.00,100.44
2179.00,100.41
2178.00,100.33
2177.00,100.25
2176.00,100.22
2175.00,100.25
2174.00,100.31
2173.00,100.38
2172.00,100.43
2171.00,100.44
2170.00,100.42
2169.00,100.35
2168.00,100.26
2167.00,100.17
2166.00,100.10
2165.00,100.05
2164.00,100.01
2163.00,100.00
2162.00,100.05
2161.00,100.15
2160.00,100.32
2159.00,100.51
2158.00,100.69
2157.00,100.78
2156.00,100.76
2155.00,100.66
2154.00,100.56
2153.00,100.51
2152.00,100.51
2151.00,100.53
2150.00,100.54
2149.00,100.52
2148.00,100.46
2147.00,100.41
2146.00,100.37
2145.00,100.34
2144.00,100.34
2143.00,100.36
2142.00,100.40
2141.00,100.45
2140.00,100.47
2139.00,100.47
2138.00,100.45
2137.00,100.44
2136.00,100.45
2135.00,100.49
2134.00,100.53
2133.00,100.57
2132.00,100.60
2131.00,100.62
2130.00,100.62
2129.00,100.59
2128.00,100.54
2127.00,100.50
2126.00,100.49
2125.00,100.50
2124.00,100.52
2123.00,100.54
2122.00,100.56
2121.00,100.57
2120.00,100.58
2119.00,100.59
2118.00,100.58
2117.00,100.56
2116.00,100.49
2115.00,100.43
2114.00,100.39
2113.00,100.39
2112.00,100.40
2111.00,100.40
2110.00,100.38
2109.00,100.35
2108.00,100.32
2107.00,100.30
2106.00,100.29
2105.00,100.29
2104.00,100.30
2103.00,100.30
2102.00,100.30
2101.00,100.32
2100.00,100.33
2099.00,100.34
2098.00,100.36
2097.00,100.38
2096.00,100.40
2095.00,100.41
2094.00,100.43
2093.00,100.43
2092.00,100.43
2091.00,100.41
2090.00,100.39
2089.00,100.36
2088.00,100.32
2087.00,100.30
2086.00,100.29
2085.00,100.30
2084.00,100.32
2083.00,100.33
2082.00,100.32
2081.00,100.32
2080.00,100.32
2079.00,100.32
2078.00,100.32
2077.00,100.30
2076.00,100.28
2075.00,100.28
2074.00,100.30
2073.00,100.32
2072.00,100.33
2071.00,100.32
2070.00,100.31
2069.00,100.32
2068.00,100.34
2067.00,100.38
2066.00,100.39
2065.00,100.37
2064.00,100.33
2063.00,100.29
2062.00,100.25
2061.00,100.22
2060.00,100.20
2059.00,100.19
2058.00,100.20
2057.00,100.23
2056.00,100.26
2055.00,100.29
2054.00,100.30
2053.00,100.27
2052.00,100.21
2051.00,100.16
2050.00,100.15
2049.00,100.19
2048.00,100.22
2047.00,100.21
2046.00,100.17
2045.00,100.14
2044.00,100.15
2043.00,100.18
2042.00,100.19
2041.00,100.20
2040.00,100.21
2039.00,100.25
2038.00,100.30
2037.00,100.31
2036.00,100.27
2035.00,100.21
2034.00,100.17
2033.00,100.17
2032.00,100.20
2031.00,100.25
2030.00,100.31
2029.00,100.38
2028.00,100.43
2027.00,100.44
2026.00,100.40
2025.00,100.33
2024.00,100.28
2023.00,100.26
2022.00,100.30
2021.00,100.36
2020.00,100.41
2019.00,100.43
2018.00,100.40
2017.00,100.35
2016.00,100.34
2015.00,100.35
2014.00,100.37
2013.00,100.37
2012.00,100.35
2011.00,100.35
2010.00,100.38
2009.00,100.44
2008.00,100.50
2007.00,100.55
2006.00,100.55
2005.00,100.50
2004.00,100.42
2003.00,100.35
2002.00,100.31
2001.00,100.30
2000.00,100.31
1999.00,100.32
1998.00,100.34
1997.00,100.35
1996.00,100.33
1995.00,100.29
1994.00,100.27
1993.00,100.29
1992.00,100.34
1991.00,100.38
1990.00,100.40
1989.00,100.38
1988.00,100.35
1987.00,100.33
1986.00,100.32
1985.00,100.32
1984.00,100.32
1983.00,100.30
1982.00,100.25
1981.00,100.18
1980.00,100.14
1979.00,100.16
1978.00,100.24
1977.00,100.32
1976.00,100.37
1975.00,100.39
1974.00,100.42
1973.00,100.46
1972.00,100.47
1971.00,100.42
1970.00,100.36
1969.00,100.31
1968.00,100.31
1967.00,100.34
1966.00,100.38
1965.00,100.43
1964.00,100.49
1963.00,100.53
1962.00,100.53
1961.00,100.51
1960.00,100.49
1959.00,100.50
1958.00,100.52
1957.00,100.50
1956.00,100.46
1955.00,100.41
1954.00,100.40
1953.00,100.45
1952.00,100.51
1951.00,100.56
1950.00,100.58
1949.00,100.59
1948.00,100.60
1947.00,100.59
1946.00,100.57
1945.00,100.55
1944.00,100.54
1943.00,100.56
1942.00,100.58
1941.00,100.58
1940.00,100.55
1939.00,100.51
1938.00,100.47
1937.00,100.45
1936.00,100.46
1935.00,100.48
1934.00,100.51
1933.00,100.51
1932.00,100.50
1931.00,100.46
1930.00,100.42
1929.00,100.40
1928.00,100.42
1927.00,100.46
1926.00,100.50
1925.00,100.52
1924.00,100.52
1923.00,100.50
1922.00,100.48
1921.00,100.46
1920.00,100.45
1919.00,100.44
1918.00,100.42
1917.00,100.41
1916.00,100.42
1915.00,100.44
1914.00,100.46
1913.00,100.48
1912.00,100.48
1911.00,100.48
1910.00,100.48
1909.00,100.48
1908.00,100.48
1907.00,100.48
1906.00,100.48
1905.00,100.46
1904.00,100.44
1903.00,100.44
1902.00,100.46
1901.00,100.47
1900.00,100.48
1899.00,100.48
1898.00,100.48
1897.00,100.49
1896.00,100.50
1895.00,100.49
1894.00,100.49
1893.00,100.50
1892.00,100.51
1891.00,100.53
1890.00,100.53
1889.00,100.53
1888.00,100.52
1887.00,100.51
1886.00,100.50
1885.00,100.49
1884.00,100.46
1883.00,100.44
1882.00,100.44
1881.00,100.46
1880.00,100.48
1879.00,100.49
1878.00,100.51
1877.00,100.51
1876.00,100.51
1875.00,100.49
1874.00,100.46
1873.00,100.44
1872.00,100.44
1871.00,100.43
1870.00,100.44
1869.00,100.44
1868.00,100.45
1867.00,100.46
1866.00,100.48
1865.00,100.49
1864.00,100.50
1863.00,100.49
1862.00,100.48
1861.00,100.47
1860.00,100.46
1859.00,100.45
1858.00,100.44
1857.00,100.44
1856.00,100.46
1855.00,100.48
1854.00,100.49
1853.00,100.48
1852.00,100.47
1851.00,100.47
1850.00,100.47
1849.00,100.46
1848.00,100.45
1847.00,100.46
1846.00,100.48
1845.00,100.51
1844.00,100.52
1843.00,100.51
1842.00,100.49
1841.00,100.46
1840.00,100.44
1839.00,100.43
1838.00,100.44
1837.00,100.46
1836.00,100.47
1835.00,100.47
1834.00,100.45
1833.00,100.45
1832.00,100.46
1831.00,100.47
1830.00,100.48
1829.00,100.47
1828.00,100.45
1827.00,100.44
1826.00,100.42
1825.00,100.41
1824.00,100.40
1823.00,100.41
1822.00,100.43
1821.00,100.46
1820.00,100.48
1819.00,100.50
1818.00,100.51
1817.00,100.50
1816.00,100.48
1815.00,100.46
1814.00,100.44
1813.00,100.43
1812.00,100.42
1811.00,100.42
1810.00,100.43
1809.00,100.44
1808.00,100.45
1807.00,100.44
1806.00,100.44
1805.00,100.43
1804.00,100.43
1803.00,100.43
1802.00,100.43
1801.00,100.43
1800.00,100.42
1799.00,100.42
1798.00,100.43
1797.00,100.45
1796.00,100.47
1795.00,100.49
1794.00,100.51
1793.00,100.50
1792.00,100.49
1791.00,100.47
1790.00,100.45
1789.00,100.44
1788.00,100.43
1787.00,100.41
1786.00,100.40
1785.00,100.41
1784.00,100.42
1783.00,100.42
1782.00,100.41
1781.00,100.40
1780.00,100.39
1779.00,100.39
1778.00,100.40
1777.00,100.41
1776.00,100.43
1775.00,100.42
1774.00,100.40
1773.00,100.36
1772.00,100.32
1771.00,100.32
1770.00,100.34
1769.00,100.36
1768.00,100.37
1767.00,100.37
1766.00,100.36
1765.00,100.35
1764.00,100.34
1763.00,100.35
1762.00,100.35
1761.00,100.34
1760.00,100.33
1759.00,100.32
1758.00,100.31
1757.00,100.30
1756.00,100.30
1755.00,100.30
1754.00,100.30
1753.00,100.29
1752.00,100.28
1751.00,100.26
1750.00,100.25
1749.00,100.24
1748.00,100.22
1747.00,100.20
1746.00,100.19
1745.00,100.20
1744.00,100.22
1743.00,100.23
1742.00,100.24
1741.00,100.23
1740.00,100.22
1739.00,100.20
1738.00,100.20
1737.00,100.20
1736.00,100.21
1735.00,100.21
1734.00,100.20
1733.00,100.18
1732.00,100.19
1731.00,100.21
1730.00,100.22
1729.00,100.23
1728.00,100.22
1727.00,100.21
1726.00,100.21
1725.00,100.20
1724.00,100.20
1723.00,100.20
1722.00,100.21
1721.00,100.21
1720.00,100.21
1719.00,100.19
1718.00,100.16
1717.00,100.13
1716.00,100.12
1715.00,100.12
1714.00,100.13
1713.00,100.15
1712.00,100.15
1711.00,100.14
1710.00,100.12
1709.00,100.10
1708.00,100.09
1707.00,100.09
1706.00,100.09
1705.00,100.09
1704.00,100.08
1703.00,100.07
1702.00,100.07
1701.00,100.06
1700.00,100.06
1699.00,100.06
1698.00,100.06
1697.00,100.04
1696.00,100.02
1695.00,100.00
1694.00,99.99
1693.00,99.99
1692.00,99.98
1691.00,99.95
1690.00,99.93
1689.00,99.92
1688.00,99.91
1687.00,99.89
1686.00,99.87
1685.00,99.84
1684.00,99.81
1683.00,99.80
1682.00,99.80
1681.00,99.79
1680.00,99.77
1679.00,99.75
1678.00,99.73
1677.00,99.70
1676.00,99.66
1675.00,99.63
1674.00,99.61
1673.00,99.60
1672.00,99.59
1671.00,99.56
1670.00,99.53
1669.00,99.49
1668.00,99.45
1667.00,99.42
1666.00,99.38
1665.00,99.35
1664.00,99.32
1663.00,99.30
1662.00,99.30
1661.00,99.29
1660.00,99.27
1659.00,99.24
1658.00,99.21
1657.00,99.20
1656.00,99.19
1655.00,99.19
1654.00,99.19
1653.00,99.17
1652.00,99.13
1651.00,99.09
1650.00,99.07
1649.00,99.05
1648.00,99.04
1647.00,99.03
1646.00,99.02
1645.00,99.02
1644.00,99.00
1643.00,98.99
1642.00,98.99
1641.00,99.00
1640.00,99.00
1639.00,99.01
1638.00,99.00
1637.00,99.00
1636.00,99.00
1635.00,99.01
1634.00,99.03
1633.00,99.05
1632.00,99.07
1631.00,99.07
1630.00,99.07
1629.00,99.07
1628.00,99.07
1627.00,99.08
1626.00,99.10
1625.00,99.11
1624.00,99.13
1623.00,99.14
1622.00,99.15
1621.00,99.16
1620.00,99.17
1619.00,99.18
1618.00,99.19
1617.00,99.22
1616.00,99.25
1615.00,99.28
1614.00,99.29
1613.00,99.30
1612.00,99.29
1611.00,99.29
1610.00,99.30
1609.00,99.33
1608.00,99.34
1607.00,99.35
1606.00,99.35
1605.00,99.36
1604.00,99.36
1603.00,99.37
1602.00,99.38
1601.00,99.39
1600.00,99.40
1599.00,99.40
1598.00,99.41
1597.00,99.41
1596.00,99.41
1595.00,99.41
1594.00,99.42
1593.00,99.43
1592.00,99.43
1591.00,99.43
1590.00,99.44
1589.00,99.44
1588.00,99.45
1587.00,99.47
1586.00,99.48
1585.00,99.49
1584.00,99.49
1583.00,99.50
1582.00,99.51
1581.00,99.52
1580.00,99.53
1579.00,99.54
1578.00,99.56
1577.00,99.56
1576.00,99.57
1575.00,99.57
1574.00,99.58
1573.00,99.61
1572.00,99.63
1571.00,99.64
1570.00,99.65
1569.00,99.66
1568.00,99.68
1567.00,99.69
1566.00,99.70
1565.00,99.69
1564.00,99.70
1563.00,99.71
1562.00,99.73
1561.00,99.73
1560.00,99.72
1559.00,99.71
1558.00,99.71
1557.00,99.75
1556.00,99.77
1555.00,99.77
1554.00,99.77
1553.00,99.76
1552.00,99.76
1551.00,99.75
1550.00,99.74
1549.00,99.74
1548.00,99.74
1547.00,99.75
1546.00,99.75
1545.00,99.74
1544.00,99.73
1543.00,99.72
1542.00,99.72
1541.00,99.73
1540.00,99.75
1539.00,99.76
1538.00,99.77
1537.00,99.77
1536.00,99.77
1535.00,99.77
1534.00,99.78
1533.00,99.80
1532.00,99.82
1531.00,99.84
1530.00,99.85
1529.00,99.86
1528.00,99.87
1527.00,99.88
1526.00,99.88
1525.00,99.88
1524.00,99.87
1523.00,99.87
1522.00,99.86
1521.00,99.86
1520.00,99.86
1519.00,99.87
1518.00,99.88
1517.00,99.89
1516.00,99.88
1515.00,99.87
1514.00,99.86
1513.00,99.85
1512.00,99.85
1511.00,99.84
1510.00,99.84
1509.00,99.83
1508.00,99.83
1507.00,99.83
1506.00,99.83
1505.00,99.82
1504.00,99.79
1503.00,99.76
1502.00,99.74
1501.00,99.71
1500.00,99.70
1499.00,99.69
1498.00,99.69
1497.00,99.67
1496.00,99.65
1495.00,99.63
1494.00,99.62
1493.00,99.61
1492.00,99.58
1491.00,99.52
1490.00,99.45
1489.00,99.38
1488.00,99.34
1487.00,99.30
1486.00,99.26
1485.00,99.22
1484.00,99.16
1483.00,99.12
1482.00,99.07
1481.00,99.03
1480.00,98.98
1479.00,98.93
1478.00,98.86
1477.00,98.80
1476.00,98.74
1475.00,98.68
1474.00,98.63
1473.00,98.58
1472.00,98.51
1471.00,98.46
1470.00,98.42
1469.00,98.37
1468.00,98.33
1467.00,98.29
1466.00,98.26
1465.00,98.24
1464.00,98.23
1463.00,98.21
1462.00,98.18
1461.00,98.14
1460.00,98.11
1459.00,98.08
1458.00,98.07
1457.00,98.06
1456.00,98.06
1455.00,98.04
1454.00,98.01
1453.00,97.96
1452.00,97.91
1451.00,97.86
1450.00,97.83
1449.00,97.80
1448.00,97.78
1447.00,97.76
1446.00,97.74
1445.00,97.71
1444.00,97.67
1443.00,97.64
1442.00,97.61
1441.00,97.58
1440.00,97.56
1439.00,97.54
1438.00,97.52
1437.00,97.50
1436.00,97.50
1435.00,97.50
1434.00,97.48
1433.00,97.45
1432.00,97.42
1431.00,97.39
1430.00,97.38
1429.00,97.37
1428.00,97.36
1427.00,97.35
1426.00,97.33
1425.00,97.32
1424.00,97.31
1423.00,97.30
1422.00,97.29
1421.00,97.28
1420.00,97.28
1419.00,97.29
1418.00,97.30
1417.00,97.31
1416.00,97.31
1415.00,97.31
1414.00,97.31
1413.00,97.31
1412.00,97.32
1411.00,97.33
1410.00,97.35
1409.00,97.37
1408.00,97.39
1407.00,97.41
1406.00,97.43
1405.00,97.45
1404.00,97.45
1403.00,97.44
1402.00,97.42
1401.00,97.39
1400.00,97.36
1399.00,97.34
1398.00,97.34
1397.00,97.35
1396.00,97.36
1395.00,97.36
1394.00,97.36
1393.00,97.34
1392.00,97.31
1391.00,97.26
1390.00,97.22
1389.00,97.17
1388.00,97.14
1387.00,97.10
1386.00,97.06
1385.00,96.99
1384.00,96.89
1383.00,96.77
1382.00,96.64
1381.00,96.51
1380.00,96.38
1379.00,96.27
1378.00,96.16
1377.00,96.06
1376.00,95.96
1375.00,95.89
1374.00,95.83
1373.00,95.78
1372.00,95.73
1371.00,95.68
1370.00,95.65
1369.00,95.61
1368.00,95.59
1367.00,95.56
1366.00,95.53
1365.00,95.51
1364.00,95.51
1363.00,95.55
1362.00,95.61
1361.00,95.69
1360.00,95.75
1359.00,95.80
1358.00,95.85
1357.00,95.91
1356.00,95.97
1355.00,96.03
1354.00,96.09
1353.00,96.14
1352.00,96.18
1351.00,96.22
1350.00,96.24
1349.00,96.25
1348.00,96.24
1347.00,96.23
1346.00,96.22
1345.00,96.21
1344.00,96.21
1343.00,96.21
1342.00,96.19
1341.00,96.17
1340.00,96.14
1339.00,96.11
1338.00,96.09
1337.00,96.08
1336.00,96.06
1335.00,96.05
1334.00,96.05
1333.00,96.06
1332.00,96.07
1331.00,96.08
1330.00,96.08
1329.00,96.08
1328.00,96.09
1327.00,96.10
1326.00,96.12
1325.00,96.12
1324.00,96.09
1323.00,96.03
1322.00,95.95
1321.00,95.86
1320.00,95.77
1319.00,95.67
1318.00,95.58
1317.00,95.50
1316.00,95.45
1315.00,95.41
1314.00,95.40
1313.00,95.41
1312.00,95.44
1311.00,95.48
1310.00,95.54
1309.00,95.62
1308.00,95.71
1307.00,95.81
1306.00,95.91
1305.00,96.01
1304.00,96.10
1303.00,96.18
1302.00,96.25
1301.00,96.32
1300.00,96.39
1299.00,96.47
1298.00,96.54
1297.00,96.60
1296.00,96.66
1295.00,96.72
1294.00,96.80
1293.00,96.88
1292.00,96.96
1291.00,97.05
1290.00,97.12
1289.00,97.19
1288.00,97.24
1287.00,97.27
1286.00,97.30
1285.00,97.32
1284.00,97.32
1283.00,97.31
1282.00,97.28
1281.00,97.23
1280.00,97.19
1279.00,97.15
1278.00,97.12
1277.00,97.10
1276.00,97.10
1275.00,97.10
1274.00,97.10
1273.00,97.11
1272.00,97.11
1271.00,97.11
1270.00,97.11
1269.00,97.09
1268.00,97.05
1267.00,97.01
1266.00,96.99
1265.00,96.98
1264.00,96.97
1263.00,96.96
1262.00,96.96
1261.00,96.97
1260.00,96.99
1259.00,97.02
1258.00,97.06
1257.00,97.09
1256.00,97.13
1255.00,97.19
1254.00,97.24
1253.00,97.30
1252.00,97.35
1251.00,97.39
1250.00,97.41
1249.00,97.43
1248.00,97.46
1247.00,97.48
1246.00,97.51
1245.00,97.52
1244.00,97.51
1243.00,97.50
1242.00,97.50
1241.00,97.50
1240.00,97.51
1239.00,97.50
1238.00,97.48
1237.00,97.45
1236.00,97.42
1235.00,97.42
1234.00,97.42
1233.00,97.43
1232.00,97.43
1231.00,97.42
1230.00,97.41
1229.00,97.42
1228.00,97.43
1227.00,97.43
1226.00,97.44
1225.00,97.46
1224.00,97.50
1223.00,97.58
1222.00,97.67
1221.00,97.76
1220.00,97.84
1219.00,97.91
1218.00,97.99
1217.00,98.06
1216.00,98.13
1215.00,98.18
1214.00,98.20
1213.00,98.22
1212.00,98.24
1211.00,98.24
1210.00,98.23
1209.00,98.19
1208.00,98.13
1207.00,98.06
1206.00,97.97
1205.00,97.87
1204.00,97.75
1203.00,97.65
1202.00,97.57
1201.00,97.51
1200.00,97.47
1199.00,97.44
1198.00,97.44
1197.00,97.47
1196.00,97.52
1195.00,97.60
1194.00,97.70
1193.00,97.82
1192.00,97.95
1191.00,98.07
1190.00,98.16
1189.00,98.23
1188.00,98.28
1187.00,98.35
1186.00,98.40
1185.00,98.43
1184.00,98.43
1183.00,98.40
1182.00,98.35
1181.00,98.28
1180.00,98.21
1179.00,98.15
1178.00,98.09
1177.00,98.01
1176.00,97.92
1175.00,97.82
1174.00,97.69
1173.00,97.54
1172.00,97.38
1171.00,97.20
1170.00,96.99
1169.00,96.75
1168.00,96.48
1167.00,96.19
1166.00,95.89
1165.00,95.59
1164.00,95.31
1163.00,95.04
1162.00,94.81
1161.00,94.60
1160.00,94.42
1159.00,94.27
1158.00,94.17
1157.00,94.12
1156.00,94.13
1155.00,94.18
1154.00,94.26
1153.00,94.36
1152.00,94.47
1151.00,94.59
1150.00,94.72
1149.00,94.85
1148.00,94.96
1147.00,95.08
1146.00,95.19
1145.00,95.28
1144.00,95.36
1143.00,95.43
1142.00,95.48
1141.00,95.52
1140.00,95.53
1139.00,95.50
1138.00,95.45
1137.00,95.36
1136.00,95.25
1135.00,95.12
1134.00,94.97
1133.00,94.81
1132.00,94.63
1131.00,94.46
1130.00,94.28
1129.00,94.12
1128.00,93.94
1127.00,93.75
1126.00,93.55
1125.00,93.33
1124.00,93.11
1123.00,92.90
1122.00,92.70
1121.00,92.51
1120.00,92.32
1119.00,92.16
1118.00,92.01
1117.00,91.88
1116.00,91.75
1115.00,91.64
1114.00,91.54
1113.00,91.44
1112.00,91.34
1111.00,91.26
1110.00,91.19
1109.00,91.14
1108.00,91.09
1107.00,91.03
1106.00,90.98
1105.00,90.90
1104.00,90.80
1103.00,90.65
1102.00,90.45
1101.00,90.21
1100.00,89.96
1099.00,89.74
1098.00,89.56
1097.00,89.40
1096.00,89.24
1095.00,89.09
1094.00,88.96
1093.00,88.84
1092.00,88.70
1091.00,88.56
1090.00,88.42
1089.00,88.29
1088.00,88.16
1087.00,88.03
1086.00,87.90
1085.00,87.74
1084.00,87.57
1083.00,87.42
1082.00,87.30
1081.00,87.18
1080.00,87.07
1079.00,86.95
1078.00,86.83
1077.00,86.69
1076.00,86.54
1075.00,86.38
1074.00,86.22
1073.00,86.07
1072.00,85.95
1071.00,85.86
1070.00,85.79
1069.00,85.70
1068.00,85.58
1067.00,85.42
1066.00,85.23
1065.00,85.01
1064.00,84.78
1063.00,84.56
1062.00,84.35
1061.00,84.17
1060.00,83.98
1059.00,83.79
1058.00,83.62
1057.00,83.47
1056.00,83.36
1055.00,83.28
1054.00,83.23
1053.00,83.18
1052.00,83.11
1051.00,83.06
1050.00,83.01
1049.00,82.97
1048.00,82.93
1047.00,82.88
1046.00,82.82
1045.00,82.76
1044.00,82.70
1043.00,82.65
1042.00,82.62
1041.00,82.58
1040.00,82.52
1039.00,82.46
1038.00,82.40
1037.00,82.33
1036.00,82.22
1035.00,82.09
1034.00,81.93
1033.00,81.77
1032.00,81.59
1031.00,81.42
1030.00,81.26
1029.00,81.10
1028.00,80.95
1027.00,80.81
1026.00,80.71
1025.00,80.62
1024.00,80.55
1023.00,80.47
1022.00,80.40
1021.00,80.34
1020.00,80.30
1019.00,80.29
1018.00,80.29
1017.00,80.31
1016.00,80.35
1015.00,80.42
1014.00,80.52
1013.00,80.65
1012.00,80.78
1011.00,80.91
1010.00,81.04
1009.00,81.15
1008.00,81.25
1007.00,81.36
1006.00,81.47
1005.00,81.56
1004.00,81.62
1003.00,81.64
1002.00,81.65
1001.00,81.61
1000.00,81.55
999.00,81.47
998.00,81.38
997.00,81.30
996.00,81.25
995.00,81.24
994.00,81.27
993.00,81.33
992.00,81.41
991.00,81.54
990.00,81.70
989.00,81.91
988.00,82.15
987.00,82.41
986.00,82.70
985.00,83.02
984.00,83.36
983.00,83.73
982.00,84.09
981.00,84.44
980.00,84.76
979.00,85.08
978.00,85.40
977.00,85.70
976.00,85.97
975.00,86.20
974.00,86.41
973.00,86.59
972.00,86.76
971.00,86.92
970.00,87.08
969.00,87.23
968.00,87.38
967.00,87.53
966.00,87.66
965.00,87.79
964.00,87.92
963.00,88.05
962.00,88.19
961.00,88.33
960.00,88.46
959.00,88.61
958.00,88.79
957.00,88.97
956.00,89.16
955.00,89.36
954.00,89.56
953.00,89.75
952.00,89.91
951.00,90.06
950.00,90.22
949.00,90.38
948.00,90.55
947.00,90.69
946.00,90.82
945.00,90.93
944.00,91.04
943.00,91.15
942.00,91.28
941.00,91.39
940.00,91.49
939.00,91.56
938.00,91.63
937.00,91.71
936.00,91.81
935.00,91.92
934.00,92.03
933.00,92.12
932.00,92.20
931.00,92.28
930.00,92.34
929.00,92.40
928.00,92.44
927.00,92.49
926.00,92.55
925.00,92.63
924.00,92.70
923.00,92.77
922.00,92.84
921.00,92.91
920.00,92.98
919.00,93.04
918.00,93.10
917.00,93.14
916.00,93.17
915.00,93.17
914.00,93.16
913.00,93.11
912.00,93.04
911.00,92.95
910.00,92.85
909.00,92.77
908.00,92.69
907.00,92.61
906.00,92.52
905.00,92.40
904.00,92.26
903.00,92.12
902.00,91.98
901.00,91.84
900.00,91.67
899.00,91.50
898.00,91.32
897.00,91.15
896.00,90.99
895.00,90.88
894.00,90.83
893.00,90.84
892.00,90.90
891.00,90.99
890.00,91.13
889.00,91.32
888.00,91.56
887.00,91.83
886.00,92.08
885.00,92.30
884.00,92.48
883.00,92.65
882.00,92.81
881.00,92.96
880.00,93.09
879.00,93.19
878.00,93.29
877.00,93.39
876.00,93.49
875.00,93.58
874.00,93.67
873.00,93.76
872.00,93.86
871.00,93.96
870.00,94.06
869.00,94.15
868.00,94.25
867.00,94.34
866.00,94.39
865.00,94.41
864.00,94.40
863.00,94.39
862.00,94.40
861.00,94.41
860.00,94.44
859.00,94.48
858.00,94.54
857.00,94.58
856.00,94.61
855.00,94.63
854.00,94.66
853.00,94.69
852.00,94.71
851.00,94.73
850.00,94.75
849.00,94.78
848.00,94.80
847.00,94.82
846.00,94.84
845.00,94.84
844.00,94.83
843.00,94.82
842.00,94.81
841.00,94.81
840.00,94.80
839.00,94.79
838.00,94.79
837.00,94.81
836.00,94.84
835.00,94.85
834.00,94.85
833.00,94.84
832.00,94.83
831.00,94.83
830.00,94.82
829.00,94.82
828.00,94.81
827.00,94.79
826.00,94.77
825.00,94.75
824.00,94.75
823.00,94.77
822.00,94.80
821.00,94.82
820.00,94.83
819.00,94.81
818.00,94.78
817.00,94.75
816.00,94.72
815.00,94.69
814.00,94.69
813.00,94.71
812.00,94.73
811.00,94.75
810.00,94.75
809.00,94.73
808.00,94.70
807.00,94.71
806.00,94.72
805.00,94.73
804.00,94.72
803.00,94.70
802.00,94.69
801.00,94.69
800.00,94.67
799.00,94.64
798.00,94.63
797.00,94.65
796.00,94.67
795.00,94.68
794.00,94.68
793.00,94.67
792.00,94.66
791.00,94.65
790.00,94.63
789.00,94.60
788.00,94.56
787.00,94.52
786.00,94.49
785.00,94.47
784.00,94.47
783.00,94.48
782.00,94.50
781.00,94.49
780.00,94.46
779.00,94.42
778.00,94.40
777.00,94.38
776.00,94.36
775.00,94.33
774.00,94.29
773.00,94.24
772.00,94.21
771.00,94.19
770.00,94.19
769.00,94.20
768.00,94.21
767.00,94.19
766.00,94.17
765.00,94.14
764.00,94.11
763.00,94.09
762.00,94.08
761.00,94.07
760.00,94.03
759.00,93.98
758.00,93.92
757.00,93.89
756.00,93.87
755.00,93.87
754.00,93.87
753.00,93.85
752.00,93.84
751.00,93.82
750.00,93.80
749.00,93.76
748.00,93.71
747.00,93.65
746.00,93.59
745.00,93.54
744.00,93.50
743.00,93.46
742.00,93.45
741.00,93.44
740.00,93.44
739.00,93.42
738.00,93.41
737.00,93.41
736.00,93.39
735.00,93.38
734.00,93.37
733.00,93.38
732.00,93.36
731.00,93.29
730.00,93.17
729.00,93.02
728.00,92.91
727.00,92.83
726.00,92.79
725.00,92.74
724.00,92.71
723.00,92.69
722.00,92.69
721.00,92.69
720.00,92.68
719.00,92.66
718.00,92.63
717.00,92.59
716.00,92.53
715.00,92.49
714.00,92.47
713.00,92.45
712.00,92.41
711.00,92.36
710.00,92.33
709.00,92.32
708.00,92.31
707.00,92.30
706.00,92.28
705.00,92.22
704.00,92.15
703.00,92.10
702.00,92.10
701.00,92.13
700.00,92.16
699.00,92.18
698.00,92.18
697.00,92.16
696.00,92.12
695.00,92.11
694.00,92.15
693.00,92.21
692.00,92.25
691.00,92.23
690.00,92.17
689.00,92.09
688.00,92.05
687.00,92.07
686.00,92.11
685.00,92.11
684.00,92.03
683.00,91.87
682.00,91.64
681.00,91.36
680.00,91.01
679.00,90.64
678.00,90.27
677.00,89.90
676.00,89.50
675.00,89.10
674.00,88.69
673.00,88.30
672.00,87.96
671.00,87.69
670.00,87.47
669.00,87.38
668.00,87.43
667.00,87.53
666.00,87.55
665.00,87.55
664.00,87.53
663.00,87.52
662.00,87.53
661.00,87.57
660.00,87.63
659.00,87.70
658.00,87.78
657.00,87.83
656.00,87.87
655.00,87.92
654.00,87.98
653.00,88.01
652.00,87.99
651.00,87.94
650.00,87.91
649.00,87.90
648.00,87.89
647.00,87.91
646.00,87.94
645.00,87.98
644.00,88.03
643.00,88.08
642.00,88.09
641.00,88.05
640.00,87.97
639.00,87.89
638.00,87.81
637.00,87.71
636.00,87.59
635.00,87.53
634.00,87.57
633.00,87.65
632.00,87.73
631.00,87.78
630.00,87.81
629.00,87.80
628.00,87.77
627.00,87.78
626.00,87.82
625.00,87.83
624.00,87.72
623.00,87.52
622.00,87.26
621.00,86.96
620.00,86.64
619.00,86.45
618.00,86.41
617.00,86.41
616.00,86.31
615.00,86.14
614.00,85.92
613.00,85.61
612.00,85.19
611.00,84.84
610.00,84.72
609.00,84.81
608.00,84.96
607.00,85.09
606.00,85.20
605.00,85.29
604.00,85.36
603.00,85.42
602.00,85.45
601.00,85.33
600.00,85.04
599.00,84.69
598.00,84.46
597.00,84.46
596.00,84.70
595.00,85.13
594.00,85.54
593.00,85.63
592.00,85.33
591.00,84.97
590.00,84.95
589.00,85.30
588.00,85.75
587.00,86.06
586.00,86.16
585.00,86.05
584.00,85.73
583.00,85.26
582.00,84.75
581.00,84.29
580.00,83.92
579.00,83.77
578.00,83.93
577.00,84.31
576.00,84.76
575.00,85.17
574.00,85.42
573.00,85.36
572.00,84.93
571.00,84.36
570.00,84.10
569.00,84.39
568.00,85.06
567.00,85.65
566.00,85.70
565.00,85.20
564.00,84.53
563.00,84.09
562.00,83.96
561.00,83.92
560.00,83.84
559.00,83.74
558.00,83.66
557.00,83.57
556.00,83.57
555.00,83.82
554.00,84.25
553.00,84.56
552.00,84.44
551.00,83.81
550.00,82.94
