Created as New Dataset,Bio-Couture 100% Lyocell 8/2 (Red)
cm-1,%T
4000.00,99.92
3999.00,99.91
3998.00,99.89
3997.00,99.88
3996.00,99.86
3995.00,99.85
3994.00,99.84
3993.00,99.83
3992.00,99.84
3991.00,99.85
3990.00,99.86
3989.00,99.88
3988.00,99.90
3987.00,99.91
3986.00,99.92
3985.00,99.91
3984.00,99.90
3983.00,99.89
3982.00,99.90
3981.00,99.92
3980.00,99.94
3979.00,99.94
3978.00,99.93
3977.00,99.90
3976.00,99.87
3975.00,99.85
3974.00,99.85
3973.00,99.86
3972.00,99.87
3971.00,99.89
3970.00,99.90
3969.00,99.90
3968.00,99.90
3967.00,99.89
3966.00,99.90
3965.00,99.90
3964.00,99.91
3963.00,99.91
3962.00,99.90
3961.00,99.89
3960.00,99.89
3959.00,99.88
3958.00,99.88
3957.00,99.88
3956.00,99.88
3955.00,99.89
3954.00,99.90
3953.00,99.91
3952.00,99.91
3951.00,99.91
3950.00,99.90
3949.00,99.90
3948.00,99.89
3947.00,99.89
3946.00,99.88
3945.00,99.87
3944.00,99.86
3943.00,99.86
3942.00,99.86
3941.00,99.86
3940.00,99.87
3939.00,99.89
3938.00,99.90
3937.00,99.91
3936.00,99.92
3935.00,99.92
3934.00,99.91
3933.00,99.90
3932.00,99.89
3931.00,99.89
3930.00,99.89
3929.00,99.90
3928.00,99.90
3927.00,99.90
3926.00,99.89
3925.00,99.88
3924.00,99.88
3923.00,99.89
3922.00,99.89
3921.00,99.89
3920.00,99.89
3919.00,99.90
3918.00,99.91
3917.00,99.92
3916.00,99.93
3915.00,99.91
3914.00,99.90
3913.00,99.90
3912.00,99.91
3911.00,99.94
3910.00,99.96
3909.00,99.98
3908.00,100.01
3907.00,100.04
3906.00,100.06
3905.00,100.06
3904.00,100.03
3903.00,99.99
3902.00,99.96
3901.00,99.95
3900.00,99.96
3899.00,99.97
3898.00,99.96
3897.00,99.95
3896.00,99.94
3895.00,99.94
3894.00,99.95
3893.00,99.98
3892.00,100.00
3891.00,100.01
3890.00,100.01
3889.00,100.00
3888.00,99.97
3887.00,99.95
3886.00,99.94
3885.00,99.93
3884.00,99.92
3883.00,99.92
3882.00,99.91
3881.00,99.93
3880.00,99.95
3879.00,99.98
3878.00,100.00
3877.00,100.01
3876.00,100.00
3875.00,99.99
3874.00,99.97
3873.00,99.96
3872.00,99.96
3871.00,99.98
3870.00,100.01
3869.00,100.03
3868.00,100.05
3867.00,100.06
3866.00,100.05
3865.00,100.04
3864.00,100.02
3863.00,99.99
3862.00,99.98
3861.00,99.99
3860.00,100.01
3859.00,100.02
3858.00,100.03
3857.00,100.04
3856.00,100.07
3855.00,100.08
3854.00,100.07
3853.00,100.04
3852.00,100.03
3851.00,100.05
3850.00,100.07
3849.00,100.09
3848.00,100.09
3847.00,100.07
3846.00,100.04
3845.00,100.01
3844.00,99.97
3843.00,99.96
3842.00,99.97
3841.00,100.01
3840.00,100.06
3839.00,100.10
3838.00,100.11
3837.00,100.08
3836.00,100.06
3835.00,100.04
3834.00,100.02
3833.00,100.00
3832.00,99.97
3831.00,99.96
3830.00,99.96
3829.00,99.98
3828.00,99.99
3827.00,99.99
3826.00,99.99
3825.00,100.00
3824.00,100.00
3823.00,100.01
3822.00,100.02
3821.00,100.02
3820.00,100.01
3819.00,100.02
3818.00,100.04
3817.00,100.07
3816.00,100.08
3815.00,100.07
3814.00,100.05
3813.00,100.03
3812.00,100.00
3811.00,99.99
3810.00,99.98
3809.00,99.98
3808.00,99.99
3807.00,99.99
3806.00,99.98
3805.00,99.98
3804.00,99.99
3803.00,100.02
3802.00,100.05
3801.00,100.06
3800.00,100.06
3799.00,100.05
3798.00,100.02
3797.00,99.99
3796.00,99.95
3795.00,99.93
3794.00,99.92
3793.00,99.91
3792.00,99.90
3791.00,99.89
3790.00,99.88
3789.00,99.88
3788.00,99.91
3787.00,99.94
3786.00,99.96
3785.00,99.96
3784.00,99.94
3783.00,99.93
3782.00,99.91
3781.00,99.90
3780.00,99.88
3779.00,99.86
3778.00,99.85
3777.00,99.86
3776.00,99.87
3775.00,99.88
3774.00,99.88
3773.00,99.87
3772.00,99.86
3771.00,99.87
3770.00,99.90
3769.00,99.92
3768.00,99.94
3767.00,99.96
3766.00,99.96
3765.00,99.95
3764.00,99.93
3763.00,99.91
3762.00,99.90
3761.00,99.91
3760.00,99.91
3759.00,99.90
3758.00,99.89
3757.00,99.89
3756.00,99.89
3755.00,99.91
3754.00,99.93
3753.00,99.95
3752.00,99.98
3751.00,100.02
3750.00,100.04
3749.00,100.05
3748.00,100.05
3747.00,100.03
3746.00,100.01
3745.00,100.00
3744.00,99.99
3743.00,99.97
3742.00,99.96
3741.00,99.95
3740.00,99.95
3739.00,99.95
3738.00,99.95
3737.00,99.94
3736.00,99.94
3735.00,99.94
3734.00,99.93
3733.00,99.91
3732.00,99.89
3731.00,99.87
3730.00,99.85
3729.00,99.84
3728.00,99.83
3727.00,99.83
3726.00,99.83
3725.00,99.82
3724.00,99.81
3723.00,99.79
3722.00,99.77
3721.00,99.76
3720.00,99.75
3719.00,99.75
3718.00,99.75
3717.00,99.76
3716.00,99.76
3715.00,99.75
3714.00,99.76
3713.00,99.77
3712.00,99.78
3711.00,99.81
3710.00,99.82
3709.00,99.83
3708.00,99.81
3707.00,99.78
3706.00,99.74
3705.00,99.70
3704.00,99.68
3703.00,99.67
3702.00,99.68
3701.00,99.71
3700.00,99.74
3699.00,99.76
3698.00,99.77
3697.00,99.75
3696.00,99.72
3695.00,99.70
3694.00,99.69
3693.00,99.69
3692.00,99.70
3691.00,99.69
3690.00,99.68
3689.00,99.67
3688.00,99.68
3687.00,99.69
3686.00,99.70
3685.00,99.69
3684.00,99.67
3683.00,99.66
3682.00,99.65
3681.00,99.63
3680.00,99.60
3679.00,99.58
3678.00,99.57
3677.00,99.59
3676.00,99.61
3675.00,99.61
3674.00,99.60
3673.00,99.58
3672.00,99.55
3671.00,99.52
3670.00,99.49
3669.00,99.47
3668.00,99.45
3667.00,99.41
3666.00,99.37
3665.00,99.32
3664.00,99.29
3663.00,99.28
3662.00,99.28
3661.00,99.29
3660.00,99.29
3659.00,99.28
3658.00,99.26
3657.00,99.23
3656.00,99.19
3655.00,99.15
3654.00,99.11
3653.00,99.08
3652.00,99.07
3651.00,99.09
3650.00,99.12
3649.00,99.12
3648.00,99.06
3647.00,98.98
3646.00,98.90
3645.00,98.84
3644.00,98.79
3643.00,98.76
3642.00,98.72
3641.00,98.67
3640.00,98.60
3639.00,98.54
3638.00,98.49
3637.00,98.46
3636.00,98.45
3635.00,98.43
3634.00,98.41
3633.00,98.39
3632.00,98.35
3631.00,98.31
3630.00,98.25
3629.00,98.19
3628.00,98.14
3627.00,98.12
3626.00,98.10
3625.00,98.06
3624.00,98.00
3623.00,97.94
3622.00,97.88
3621.00,97.83
3620.00,97.77
3619.00,97.71
3618.00,97.66
3617.00,97.62
3616.00,97.60
3615.00,97.59
3614.00,97.56
3613.00,97.52
3612.00,97.47
3611.00,97.43
3610.00,97.38
3609.00,97.31
3608.00,97.24
3607.00,97.16
3606.00,97.11
3605.00,97.07
3604.00,97.04
3603.00,97.01
3602.00,96.98
3601.00,96.95
3600.00,96.92
3599.00,96.88
3598.00,96.82
3597.00,96.74
3596.00,96.66
3595.00,96.57
3594.00,96.49
3593.00,96.42
3592.00,96.36
3591.00,96.30
3590.00,96.23
3589.00,96.15
3588.00,96.07
3587.00,96.00
3586.00,95.94
3585.00,95.90
3584.00,95.87
3583.00,95.84
3582.00,95.81
3581.00,95.76
3580.00,95.69
3579.00,95.61
3578.00,95.52
3577.00,95.45
3576.00,95.40
3575.00,95.36
3574.00,95.32
3573.00,95.26
3572.00,95.19
3571.00,95.12
3570.00,95.06
3569.00,95.01
3568.00,94.93
3567.00,94.84
3566.00,94.75
3565.00,94.67
3564.00,94.61
3563.00,94.56
3562.00,94.51
3561.00,94.44
3560.00,94.37
3559.00,94.29
3558.00,94.22
3557.00,94.16
3556.00,94.10
3555.00,94.04
3554.00,93.95
3553.00,93.86
3552.00,93.76
3551.00,93.69
3550.00,93.63
3549.00,93.58
3548.00,93.50
3547.00,93.40
3546.00,93.30
3545.00,93.21
3544.00,93.14
3543.00,93.08
3542.00,93.01
3541.00,92.94
3540.00,92.86
3539.00,92.79
3538.00,92.72
3537.00,92.65
3536.00,92.58
3535.00,92.52
3534.00,92.46
3533.00,92.40
3532.00,92.34
3531.00,92.26
3530.00,92.17
3529.00,92.08
3528.00,91.99
3527.00,91.91
3526.00,91.83
3525.00,91.75
3524.00,91.65
3523.00,91.55
3522.00,91.44
3521.00,91.34
3520.00,91.24
3519.00,91.13
3518.00,91.03
3517.00,90.93
3516.00,90.83
3515.00,90.74
3514.00,90.64
3513.00,90.51
3512.00,90.37
3511.00,90.21
3510.00,90.06
3509.00,89.94
3508.00,89.83
3507.00,89.73
3506.00,89.62
3505.00,89.49
3504.00,89.35
3503.00,89.20
3502.00,89.05
3501.00,88.90
3500.00,88.76
3499.00,88.62
3498.00,88.49
3497.00,88.36
3496.00,88.23
3495.00,88.09
3494.00,87.94
3493.00,87.82
3492.00,87.71
3491.00,87.60
3490.00,87.50
3489.00,87.40
3488.00,87.30
3487.00,87.23
3486.00,87.19
3485.00,87.17
3484.00,87.16
3483.00,87.13
3482.00,87.07
3481.00,87.00
3480.00,86.94
3479.00,86.89
3478.00,86.86
3477.00,86.83
3476.00,86.80
3475.00,86.75
3474.00,86.68
3473.00,86.59
3472.00,86.50
3471.00,86.43
3470.00,86.36
3469.00,86.29
3468.00,86.21
3467.00,86.13
3466.00,86.04
3465.00,85.94
3464.00,85.84
3463.00,85.74
3462.00,85.64
3461.00,85.53
3460.00,85.43
3459.00,85.32
3458.00,85.19
3457.00,85.06
3456.00,84.92
3455.00,84.79
3454.00,84.66
3453.00,84.54
3452.00,84.41
3451.00,84.28
3450.00,84.16
3449.00,84.03
3448.00,83.92
3447.00,83.82
3446.00,83.71
3445.00,83.61
3444.00,83.53
3443.00,83.47
3442.00,83.44
3441.00,83.41
3440.00,83.39
3439.00,83.38
3438.00,83.37
3437.00,83.36
3436.00,83.35
3435.00,83.35
3434.00,83.35
3433.00,83.35
3432.00,83.34
3431.00,83.32
3430.00,83.30
3429.00,83.29
3428.00,83.29
3427.00,83.29
3426.00,83.28
3425.00,83.24
3424.00,83.20
3423.00,83.16
3422.00,83.12
3421.00,83.08
3420.00,83.03
3419.00,82.99
3418.00,82.95
3417.00,82.91
3416.00,82.87
3415.00,82.84
3414.00,82.80
3413.00,82.75
3412.00,82.70
3411.00,82.65
3410.00,82.61
3409.00,82.57
3408.00,82.52
3407.00,82.47
3406.00,82.42
3405.00,82.37
3404.00,82.31
3403.00,82.26
3402.00,82.22
3401.00,82.17
3400.00,82.13
3399.00,82.10
3398.00,82.06
3397.00,82.02
3396.00,81.98
3395.00,81.93
3394.00,81.88
3393.00,81.84
3392.00,81.81
3391.00,81.79
3390.00,81.76
3389.00,81.72
3388.00,81.66
3387.00,81.60
3386.00,81.54
3385.00,81.48
3384.00,81.43
3383.00,81.38
3382.00,81.35
3381.00,81.31
3380.00,81.27
3379.00,81.22
3378.00,81.18
3377.00,81.14
3376.00,81.11
3375.00,81.08
3374.00,81.04
3373.00,81.00
3372.00,80.95
3371.00,80.91
3370.00,80.88
3369.00,80.85
3368.00,80.81
3367.00,80.78
3366.00,80.74
3365.00,80.69
3364.00,80.64
3363.00,80.60
3362.00,80.56
3361.00,80.53
3360.00,80.50
3359.00,80.47
3358.00,80.44
3357.00,80.41
3356.00,80.38
3355.00,80.35
3354.00,80.31
3353.00,80.27
3352.00,80.23
3351.00,80.21
3350.00,80.20
3349.00,80.19
3348.00,80.18
3347.00,80.16
3346.00,80.14
3345.00,80.12
3344.00,80.10
3343.00,80.08
3342.00,80.06
3341.00,80.05
3340.00,80.04
3339.00,80.03
3338.00,80.02
3337.00,80.00
3336.00,79.98
3335.00,79.97
3334.00,79.96
3333.00,79.96
3332.00,79.95
3331.00,79.95
3330.00,79.96
3329.00,79.96
3328.00,79.96
3327.00,79.96
3326.00,79.94
3325.00,79.93
3324.00,79.94
3323.00,79.96
3322.00,79.98
3321.00,79.99
3320.00,79.99
3319.00,80.00
3318.00,80.00
3317.00,80.01
3316.00,80.02
3315.00,80.02
3314.00,80.02
3313.00,80.02
3312.00,80.02
3311.00,80.03
3310.00,80.04
3309.00,80.04
3308.00,80.04
3307.00,80.04
3306.00,80.06
3305.00,80.08
3304.00,80.10
3303.00,80.12
3302.00,80.14
3301.00,80.16
3300.00,80.16
3299.00,80.17
3298.00,80.17
3297.00,80.19
3296.00,80.21
3295.00,80.23
3294.00,80.23
3293.00,80.23
3292.00,80.23
3291.00,80.25
3290.00,80.27
3289.00,80.29
3288.00,80.30
3287.00,80.30
3286.00,80.30
3285.00,80.32
3284.00,80.35
3283.00,80.38
3282.00,80.41
3281.00,80.42
3280.00,80.44
3279.00,80.45
3278.00,80.47
3277.00,80.48
3276.00,80.49
3275.00,80.49
3274.00,80.51
3273.00,80.52
3272.00,80.54
3271.00,80.56
3270.00,80.57
3269.00,80.59
3268.00,80.62
3267.00,80.64
3266.00,80.67
3265.00,80.69
3264.00,80.71
3263.00,80.74
3262.00,80.77
3261.00,80.81
3260.00,80.85
3259.00,80.88
3258.00,80.91
3257.00,80.92
3256.00,80.93
3255.00,80.94
3254.00,80.96
3253.00,80.99
3252.00,81.02
3251.00,81.07
3250.00,81.11
3249.00,81.15
3248.00,81.18
3247.00,81.22
3246.00,81.27
3245.00,81.31
3244.00,81.34
3243.00,81.35
3242.00,81.37
3241.00,81.40
3240.00,81.44
3239.00,81.49
3238.00,81.52
3237.00,81.55
3236.00,81.56
3235.00,81.58
3234.00,81.60
3233.00,81.63
3232.00,81.67
3231.00,81.73
3230.00,81.79
3229.00,81.84
3228.00,81.88
3227.00,81.91
3226.00,81.94
3225.00,81.97
3224.00,82.01
3223.00,82.06
3222.00,82.11
3221.00,82.15
3220.00,82.19
3219.00,82.23
3218.00,82.26
3217.00,82.29
3216.00,82.31
3215.00,82.33
3214.00,82.36
3213.00,82.39
3212.00,82.43
3211.00,82.47
3210.00,82.51
3209.00,82.56
3208.00,82.61
3207.00,82.66
3206.00,82.70
3205.00,82.73
3204.00,82.76
3203.00,82.80
3202.00,82.83
3201.00,82.85
3200.00,82.87
3199.00,82.89
3198.00,82.91
3197.00,82.94
3196.00,82.98
3195.00,83.02
3194.00,83.07
3193.00,83.12
3192.00,83.16
3191.00,83.20
3190.00,83.24
3189.00,83.28
3188.00,83.33
3187.00,83.37
3186.00,83.41
3185.00,83.44
3184.00,83.46
3183.00,83.49
3182.00,83.52
3181.00,83.54
3180.00,83.56
3179.00,83.58
3178.00,83.61
3177.00,83.65
3176.00,83.69
3175.00,83.74
3174.00,83.79
3173.00,83.84
3172.00,83.89
3171.00,83.94
3170.00,83.97
3169.00,84.00
3168.00,84.03
3167.00,84.05
3166.00,84.08
3165.00,84.12
3164.00,84.17
3163.00,84.23
3162.00,84.28
3161.00,84.33
3160.00,84.38
3159.00,84.41
3158.00,84.45
3157.00,84.50
3156.00,84.54
3155.00,84.60
3154.00,84.66
3153.00,84.72
3152.00,84.78
3151.00,84.84
3150.00,84.89
3149.00,84.94
3148.00,84.98
3147.00,85.03
3146.00,85.08
3145.00,85.14
3144.00,85.22
3143.00,85.30
3142.00,85.36
3141.00,85.42
3140.00,85.46
3139.00,85.52
3138.00,85.59
3137.00,85.68
3136.00,85.77
3135.00,85.87
3134.00,85.95
3133.00,86.02
3132.00,86.09
3131.00,86.15
3130.00,86.20
3129.00,86.26
3128.00,86.34
3127.00,86.43
3126.00,86.52
3125.00,86.61
3124.00,86.68
3123.00,86.75
3122.00,86.82
3121.00,86.90
3120.00,86.98
3119.00,87.07
3118.00,87.15
3117.00,87.23
3116.00,87.30
3115.00,87.38
3114.00,87.47
3113.00,87.55
3112.00,87.62
3111.00,87.69
3110.00,87.76
3109.00,87.85
3108.00,87.94
3107.00,88.03
3106.00,88.12
3105.00,88.21
3104.00,88.30
3103.00,88.40
3102.00,88.47
3101.00,88.53
3100.00,88.60
3099.00,88.67
3098.00,88.75
3097.00,88.85
3096.00,88.94
3095.00,89.01
3094.00,89.07
3093.00,89.13
3092.00,89.19
3091.00,89.27
3090.00,89.35
3089.00,89.43
3088.00,89.52
3087.00,89.59
3086.00,89.66
3085.00,89.73
3084.00,89.80
3083.00,89.88
3082.00,89.96
3081.00,90.04
3080.00,90.11
3079.00,90.17
3078.00,90.24
3077.00,90.30
3076.00,90.37
3075.00,90.44
3074.00,90.50
3073.00,90.57
3072.00,90.64
3071.00,90.71
3070.00,90.80
3069.00,90.88
3068.00,90.96
3067.00,91.04
3066.00,91.11
3065.00,91.16
3064.00,91.21
3063.00,91.26
3062.00,91.32
3061.00,91.38
3060.00,91.45
3059.00,91.52
3058.00,91.58
3057.00,91.64
3056.00,91.70
3055.00,91.77
3054.00,91.85
3053.00,91.91
3052.00,91.98
3051.00,92.03
3050.00,92.08
3049.00,92.13
3048.00,92.18
3047.00,92.23
3046.00,92.28
3045.00,92.33
3044.00,92.39
3043.00,92.45
3042.00,92.50
3041.00,92.55
3040.00,92.59
3039.00,92.63
3038.00,92.68
3037.00,92.74
3036.00,92.80
3035.00,92.86
3034.00,92.91
3033.00,92.95
3032.00,92.99
3031.00,93.03
3030.00,93.07
3029.00,93.11
3028.00,93.15
3027.00,93.20
3026.00,93.25
3025.00,93.30
3024.00,93.34
3023.00,93.37
3022.00,93.40
3021.00,93.45
3020.00,93.50
3019.00,93.55
3018.00,93.59
3017.00,93.62
3016.00,93.64
3015.00,93.66
3014.00,93.69
3013.00,93.72
3012.00,93.75
3011.00,93.78
3010.00,93.80
3009.00,93.83
3008.00,93.86
3007.00,93.89
3006.00,93.93
3005.00,93.97
3004.00,94.01
3003.00,94.03
3002.00,94.05
3001.00,94.06
3000.00,94.07
2999.00,94.09
2998.00,94.11
2997.00,94.13
2996.00,94.13
2995.00,94.12
2994.00,94.12
2993.00,94.13
2992.00,94.14
2991.00,94.15
2990.00,94.16
2989.00,94.16
2988.00,94.13
2987.00,94.08
2986.00,94.02
2985.00,93.97
2984.00,93.94
2983.00,93.93
2982.00,93.93
2981.00,93.93
2980.00,93.94
2979.00,93.94
2978.00,93.93
2977.00,93.91
2976.00,93.89
2975.00,93.87
2974.00,93.86
2973.00,93.84
2972.00,93.81
2971.00,93.78
2970.00,93.76
2969.00,93.73
2968.00,93.69
2967.00,93.65
2966.00,93.60
2965.00,93.55
2964.00,93.50
2963.00,93.45
2962.00,93.38
2961.00,93.31
2960.00,93.24
2959.00,93.17
2958.00,93.10
2957.00,93.03
2956.00,92.96
2955.00,92.89
2954.00,92.82
2953.00,92.77
2952.00,92.71
2951.00,92.66
2950.00,92.60
2949.00,92.53
2948.00,92.46
2947.00,92.37
2946.00,92.28
2945.00,92.18
2944.00,92.06
2943.00,91.93
2942.00,91.78
2941.00,91.63
2940.00,91.48
2939.00,91.33
2938.00,91.19
2937.00,91.05
2936.00,90.92
2935.00,90.80
2934.00,90.70
2933.00,90.62
2932.00,90.54
2931.00,90.47
2930.00,90.40
2929.00,90.33
2928.00,90.25
2927.00,90.16
2926.00,90.07
2925.00,89.99
2924.00,89.92
2923.00,89.84
2922.00,89.76
2921.00,89.67
2920.00,89.57
2919.00,89.48
2918.00,89.39
2917.00,89.31
2916.00,89.23
2915.00,89.14
2914.00,89.03
2913.00,88.90
2912.00,88.75
2911.00,88.61
2910.00,88.49
2909.00,88.37
2908.00,88.24
2907.00,88.11
2906.00,87.99
2905.00,87.89
2904.00,87.83
2903.00,87.80
2902.00,87.77
2901.00,87.74
2900.00,87.71
2899.00,87.67
2898.00,87.61
2897.00,87.55
2896.00,87.49
2895.00,87.43
2894.00,87.39
2893.00,87.38
2892.00,87.39
2891.00,87.44
2890.00,87.51
2889.00,87.61
2888.00,87.71
2887.00,87.81
2886.00,87.90
2885.00,87.99
2884.00,88.07
2883.00,88.13
2882.00,88.18
2881.00,88.23
2880.00,88.28
2879.00,88.33
2878.00,88.39
2877.00,88.46
2876.00,88.53
2875.00,88.62
2874.00,88.70
2873.00,88.79
2872.00,88.89
2871.00,89.00
2870.00,89.13
2869.00,89.28
2868.00,89.43
2867.00,89.57
2866.00,89.72
2865.00,89.85
2864.00,89.99
2863.00,90.13
2862.00,90.27
2861.00,90.42
2860.00,90.56
2859.00,90.69
2858.00,90.81
2857.00,90.93
2856.00,91.03
2855.00,91.12
2854.00,91.20
2853.00,91.29
2852.00,91.39
2851.00,91.51
2850.00,91.63
2849.00,91.74
2848.00,91.85
2847.00,91.94
2846.00,92.02
2845.00,92.11
2844.00,92.20
2843.00,92.30
2842.00,92.40
2841.00,92.49
2840.00,92.57
2839.00,92.64
2838.00,92.70
2837.00,92.76
2836.00,92.82
2835.00,92.87
2834.00,92.92
2833.00,92.97
2832.00,93.01
2831.00,93.06
2830.00,93.11
2829.00,93.15
2828.00,93.19
2827.00,93.23
2826.00,93.27
2825.00,93.31
2824.00,93.34
2823.00,93.38
2822.00,93.42
2821.00,93.45
2820.00,93.49
2819.00,93.52
2818.00,93.55
2817.00,93.58
2816.00,93.61
2815.00,93.66
2814.00,93.70
2813.00,93.74
2812.00,93.76
2811.00,93.78
2810.00,93.80
2809.00,93.84
2808.00,93.88
2807.00,93.92
2806.00,93.94
2805.00,93.95
2804.00,93.97
2803.00,94.01
2802.00,94.05
2801.00,94.09
2800.00,94.13
2799.00,94.17
2798.00,94.21
2797.00,94.25
2796.00,94.29
2795.00,94.32
2794.00,94.33
2793.00,94.34
2792.00,94.36
2791.00,94.39
2790.00,94.42
2789.00,94.45
2788.00,94.48
2787.00,94.50
2786.00,94.52
2785.00,94.56
2784.00,94.59
2783.00,94.61
2782.00,94.64
2781.00,94.67
2780.00,94.71
2779.00,94.75
2778.00,94.77
2777.00,94.79
2776.00,94.81
2775.00,94.83
2774.00,94.86
2773.00,94.89
2772.00,94.92
2771.00,94.95
2770.00,94.97
2769.00,94.99
2768.00,95.00
2767.00,95.02
2766.00,95.03
2765.00,95.03
2764.00,95.04
2763.00,95.05
2762.00,95.07
2761.00,95.09
2760.00,95.11
2759.00,95.12
2758.00,95.13
2757.00,95.15
2756.00,95.16
2755.00,95.16
2754.00,95.15
2753.00,95.14
2752.00,95.14
2751.00,95.15
2750.00,95.17
2749.00,95.19
2748.00,95.19
2747.00,95.19
2746.00,95.19
2745.00,95.18
2744.00,95.19
2743.00,95.20
2742.00,95.21
2741.00,95.21
2740.00,95.21
2739.00,95.21
2738.00,95.20
2737.00,95.19
2736.00,95.19
2735.00,95.20
2734.00,95.22
2733.00,95.24
2732.00,95.25
2731.00,95.26
2730.00,95.25
2729.00,95.25
2728.00,95.25
2727.00,95.26
2726.00,95.28
2725.00,95.31
2724.00,95.33
2723.00,95.34
2722.00,95.35
2721.00,95.36
2720.00,95.38
2719.00,95.41
2718.00,95.43
2717.00,95.45
2716.00,95.46
2715.00,95.48
2714.00,95.49
2713.00,95.49
2712.00,95.49
2711.00,95.48
2710.00,95.48
2709.00,95.49
2708.00,95.51
2707.00,95.53
2706.00,95.57
2705.00,95.60
2704.00,95.62
2703.00,95.64
2702.00,95.65
2701.00,95.65
2700.00,95.65
2699.00,95.66
2698.00,95.66
2697.00,95.67
2696.00,95.68
2695.00,95.70
2694.00,95.72
2693.00,95.74
2692.00,95.76
2691.00,95.77
2690.00,95.77
2689.00,95.77
2688.00,95.78
2687.00,95.78
2686.00,95.80
2685.00,95.81
2684.00,95.83
2683.00,95.85
2682.00,95.89
2681.00,95.92
2680.00,95.96
2679.00,95.98
2678.00,96.00
2677.00,96.00
2676.00,96.00
2675.00,96.00
2674.00,96.01
2673.00,96.02
2672.00,96.03
2671.00,96.05
2670.00,96.06
2669.00,96.07
2668.00,96.08
2667.00,96.10
2666.00,96.11
2665.00,96.13
2664.00,96.14
2663.00,96.15
2662.00,96.15
2661.00,96.16
2660.00,96.16
2659.00,96.16
2658.00,96.17
2657.00,96.18
2656.00,96.19
2655.00,96.19
2654.00,96.19
2653.00,96.18
2652.00,96.17
2651.00,96.16
2650.00,96.16
2649.00,96.16
2648.00,96.17
2647.00,96.18
2646.00,96.20
2645.00,96.23
2644.00,96.25
2643.00,96.25
2642.00,96.24
2641.00,96.22
2640.00,96.23
2639.00,96.24
2638.00,96.25
2637.00,96.25
2636.00,96.24
2635.00,96.25
2634.00,96.26
2633.00,96.27
2632.00,96.27
2631.00,96.28
2630.00,96.28
2629.00,96.28
2628.00,96.29
2627.00,96.29
2626.00,96.30
2625.00,96.32
2624.00,96.32
2623.00,96.33
2622.00,96.33
2621.00,96.33
2620.00,96.34
2619.00,96.36
2618.00,96.37
2617.00,96.38
2616.00,96.38
2615.00,96.39
2614.00,96.39
2613.00,96.39
2612.00,96.38
2611.00,96.38
2610.00,96.37
2609.00,96.37
2608.00,96.37
2607.00,96.36
2606.00,96.36
2605.00,96.36
2604.00,96.37
2603.00,96.38
2602.00,96.39
2601.00,96.39
2600.00,96.39
2599.00,96.38
2598.00,96.37
2597.00,96.36
2596.00,96.36
2595.00,96.37
2594.00,96.38
2593.00,96.39
2592.00,96.40
2591.00,96.42
2590.00,96.43
2589.00,96.44
2588.00,96.43
2587.00,96.42
2586.00,96.40
2585.00,96.39
2584.00,96.38
2583.00,96.40
2582.00,96.41
2581.00,96.43
2580.00,96.44
2579.00,96.45
2578.00,96.44
2577.00,96.44
2576.00,96.43
2575.00,96.43
2574.00,96.43
2573.00,96.43
2572.00,96.43
2571.00,96.43
2570.00,96.44
2569.00,96.46
2568.00,96.48
2567.00,96.50
2566.00,96.51
2565.00,96.52
2564.00,96.52
2563.00,96.52
2562.00,96.51
2561.00,96.51
2560.00,96.51
2559.00,96.50
2558.00,96.49
2557.00,96.49
2556.00,96.48
2555.00,96.48
2554.00,96.49
2553.00,96.49
2552.00,96.50
2551.00,96.50
2550.00,96.50
2549.00,96.49
2548.00,96.48
2547.00,96.48
2546.00,96.48
2545.00,96.48
2544.00,96.48
2543.00,96.49
2542.00,96.50
2541.00,96.51
2540.00,96.51
2539.00,96.51
2538.00,96.51
2537.00,96.53
2536.00,96.55
2535.00,96.56
2534.00,96.55
2533.00,96.54
2532.00,96.53
2531.00,96.52
2530.00,96.51
2529.00,96.50
2528.00,96.49
2527.00,96.49
2526.00,96.49
2525.00,96.50
2524.00,96.51
2523.00,96.52
2522.00,96.53
2521.00,96.53
2520.00,96.53
2519.00,96.52
2518.00,96.52
2517.00,96.52
2516.00,96.53
2515.00,96.54
2514.00,96.56
2513.00,96.58
2512.00,96.58
2511.00,96.58
2510.00,96.58
2509.00,96.58
2508.00,96.58
2507.00,96.58
2506.00,96.59
2505.00,96.61
2504.00,96.61
2503.00,96.61
2502.00,96.60
2501.00,96.60
2500.00,96.61
2499.00,96.62
2498.00,96.62
2497.00,96.61
2496.00,96.60
2495.00,96.60
2494.00,96.59
2493.00,96.60
2492.00,96.60
2491.00,96.62
2490.00,96.65
2489.00,96.68
2488.00,96.70
2487.00,96.70
2486.00,96.69
2485.00,96.68
2484.00,96.68
2483.00,96.69
2482.00,96.69
2481.00,96.67
2480.00,96.65
2479.00,96.66
2478.00,96.68
2477.00,96.71
2476.00,96.73
2475.00,96.73
2474.00,96.73
2473.00,96.73
2472.00,96.72
2471.00,96.72
2470.00,96.72
2469.00,96.74
2468.00,96.76
2467.00,96.77
2466.00,96.78
2465.00,96.79
2464.00,96.80
2463.00,96.80
2462.00,96.79
2461.00,96.78
2460.00,96.77
2459.00,96.77
2458.00,96.79
2457.00,96.81
2456.00,96.82
2455.00,96.83
2454.00,96.82
2453.00,96.81
2452.00,96.80
2451.00,96.79
2450.00,96.81
2449.00,96.82
2448.00,96.84
2447.00,96.84
2446.00,96.83
2445.00,96.84
2444.00,96.87
2443.00,96.90
2442.00,96.94
2441.00,96.96
2440.00,96.96
2439.00,96.95
2438.00,96.93
2437.00,96.91
2436.00,96.91
2435.00,96.92
2434.00,96.93
2433.00,96.94
2432.00,96.95
2431.00,96.97
2430.00,96.99
2429.00,97.00
2428.00,97.00
2427.00,97.01
2426.00,97.00
2425.00,96.98
2424.00,96.96
2423.00,96.95
2422.00,96.97
2421.00,97.00
2420.00,97.03
2419.00,97.04
2418.00,97.05
2417.00,97.05
2416.00,97.05
2415.00,97.06
2414.00,97.08
2413.00,97.10
2412.00,97.11
2411.00,97.11
2410.00,97.10
2409.00,97.09
2408.00,97.09
2407.00,97.10
2406.00,97.11
2405.00,97.12
2404.00,97.13
2403.00,97.13
2402.00,97.14
2401.00,97.16
2400.00,97.18
2399.00,97.20
2398.00,97.21
2397.00,97.22
2396.00,97.21
2395.00,97.21
2394.00,97.22
2393.00,97.23
2392.00,97.23
2391.00,97.23
2390.00,97.23
2389.00,97.24
2388.00,97.25
2387.00,97.26
2386.00,97.26
2385.00,97.25
2384.00,97.25
2383.00,97.26
2382.00,97.28
2381.00,97.31
2380.00,97.34
2379.00,97.38
2378.00,97.40
2377.00,97.42
2376.00,97.43
2375.00,97.41
2374.00,97.38
2373.00,97.33
2372.00,97.29
2371.00,97.28
2370.00,97.32
2369.00,97.38
2368.00,97.45
2367.00,97.50
2366.00,97.53
2365.00,97.55
2364.00,97.54
2363.00,97.51
2362.00,97.46
2361.00,97.43
2360.00,97.43
2359.00,97.42
2358.00,97.37
2357.00,97.29
2356.00,97.26
2355.00,97.28
2354.00,97.35
2353.00,97.40
2352.00,97.43
2351.00,97.44
2350.00,97.44
2349.00,97.44
2348.00,97.44
2347.00,97.44
2346.00,97.44
2345.00,97.46
2344.00,97.52
2343.00,97.60
2342.00,97.63
2341.00,97.60
2340.00,97.52
2339.00,97.44
2338.00,97.40
2337.00,97.40
2336.00,97.40
2335.00,97.39
2334.00,97.36
2333.00,97.33
2332.00,97.33
2331.00,97.35
2330.00,97.39
2329.00,97.39
2328.00,97.36
2327.00,97.31
2326.00,97.26
2325.00,97.22
2324.00,97.20
2323.00,97.18
2322.00,97.18
2321.00,97.17
2320.00,97.16
2319.00,97.17
2318.00,97.20
2317.00,97.21
2316.00,97.20
2315.00,97.16
2314.00,97.13
2313.00,97.12
2312.00,97.14
2311.00,97.15
2310.00,97.14
2309.00,97.11
2308.00,97.07
2307.00,97.04
2306.00,97.05
2305.00,97.07
2304.00,97.11
2303.00,97.14
2302.00,97.13
2301.00,97.09
2300.00,97.05
2299.00,97.03
2298.00,97.01
2297.00,97.00
2296.00,96.98
2295.00,96.95
2294.00,96.93
2293.00,96.92
2292.00,96.90
2291.00,96.87
2290.00,96.84
2289.00,96.81
2288.00,96.77
2287.00,96.75
2286.00,96.74
2285.00,96.75
2284.00,96.75
2283.00,96.75
2282.00,96.73
2281.00,96.72
2280.00,96.72
2279.00,96.73
2278.00,96.74
2277.00,96.76
2276.00,96.77
2275.00,96.76
2274.00,96.76
2273.00,96.75
2272.00,96.74
2271.00,96.70
2270.00,96.67
2269.00,96.65
2268.00,96.66
2267.00,96.68
2266.00,96.70
2265.00,96.70
2264.00,96.68
2263.00,96.64
2262.00,96.58
2261.00,96.53
2260.00,96.48
2259.00,96.44
2258.00,96.41
2257.00,96.40
2256.00,96.39
2255.00,96.39
2254.00,96.40
2253.00,96.41
2252.00,96.44
2251.00,96.47
2250.00,96.48
2249.00,96.45
2248.00,96.42
2247.00,96.39
2246.00,96.38
2245.00,96.39
2244.00,96.42
2243.00,96.45
2242.00,96.46
2241.00,96.45
2240.00,96.42
2239.00,96.40
2238.00,96.39
2237.00,96.38
2236.00,96.37
2235.00,96.36
2234.00,96.36
2233.00,96.35
2232.00,96.34
2231.00,96.31
2230.00,96.26
2229.00,96.21
2228.00,96.18
2227.00,96.20
2226.00,96.24
2225.00,96.29
2224.00,96.31
2223.00,96.30
2222.00,96.26
2221.00,96.19
2220.00,96.12
2219.00,96.08
2218.00,96.07
2217.00,96.08
2216.00,96.09
2215.00,96.09
2214.00,96.07
2213.00,96.03
2212.00,95.99
2211.00,95.98
2210.00,96.02
2209.00,96.06
2208.00,96.07
2207.00,96.04
2206.00,95.97
2205.00,95.92
2204.00,95.90
2203.00,95.92
2202.00,95.94
2201.00,95.91
2200.00,95.86
2199.00,95.83
2198.00,95.83
2197.00,95.85
2196.00,95.84
2195.00,95.81
2194.00,95.77
2193.00,95.74
2192.00,95.72
2191.00,95.73
2190.00,95.76
2189.00,95.79
2188.00,95.80
2187.00,95.77
2186.00,95.73
2185.00,95.69
2184.00,95.68
2183.00,95.70
2182.00,95.72
2181.00,95.72
2180.00,95.70
2179.00,95.67
2178.00,95.66
2177.00,95.68
2176.00,95.69
2175.00,95.67
2174.00,95.63
2173.00,95.60
2172.00,95.61
2171.00,95.61
2170.00,95.58
2169.00,95.51
2168.00,95.42
2167.00,95.34
2166.00,95.27
2165.00,95.20
2164.00,95.14
2163.00,95.10
2162.00,95.10
2161.00,95.16
2160.00,95.31
2159.00,95.51
2158.00,95.70
2157.00,95.83
2156.00,95.90
2155.00,95.92
2154.00,95.94
2153.00,95.96
2152.00,95.97
2151.00,95.94
2150.00,95.90
2149.00,95.88
2148.00,95.89
2147.00,95.92
2146.00,95.96
2145.00,96.01
2144.00,96.06
2143.00,96.12
2142.00,96.16
2141.00,96.17
2140.00,96.16
2139.00,96.15
2138.00,96.16
2137.00,96.19
2136.00,96.23
2135.00,96.28
2134.00,96.30
2133.00,96.30
2132.00,96.30
2131.00,96.31
2130.00,96.33
2129.00,96.37
2128.00,96.39
2127.00,96.41
2126.00,96.41
2125.00,96.40
2124.00,96.40
2123.00,96.41
2122.00,96.42
2121.00,96.42
2120.00,96.41
2119.00,96.39
2118.00,96.36
2117.00,96.33
2116.00,96.30
2115.00,96.29
2114.00,96.27
2113.00,96.23
2112.00,96.19
2111.00,96.19
2110.00,96.22
2109.00,96.27
2108.00,96.30
2107.00,96.32
2106.00,96.32
2105.00,96.30
2104.00,96.28
2103.00,96.25
2102.00,96.24
2101.00,96.23
2100.00,96.24
2099.00,96.24
2098.00,96.23
2097.00,96.24
2096.00,96.26
2095.00,96.31
2094.00,96.36
2093.00,96.39
2092.00,96.38
2091.00,96.35
2090.00,96.31
2089.00,96.29
2088.00,96.29
2087.00,96.30
2086.00,96.32
2085.00,96.32
2084.00,96.30
2083.00,96.29
2082.00,96.29
2081.00,96.30
2080.00,96.30
2079.00,96.28
2078.00,96.24
2077.00,96.19
2076.00,96.17
2075.00,96.19
2074.00,96.22
2073.00,96.24
2072.00,96.22
2071.00,96.19
2070.00,96.19
2069.00,96.21
2068.00,96.22
2067.00,96.22
2066.00,96.18
2065.00,96.15
2064.00,96.13
2063.00,96.15
2062.00,96.18
2061.00,96.19
2060.00,96.18
2059.00,96.16
2058.00,96.15
2057.00,96.14
2056.00,96.12
2055.00,96.10
2054.00,96.06
2053.00,95.99
2052.00,95.91
2051.00,95.85
2050.00,95.82
2049.00,95.83
2048.00,95.86
2047.00,95.91
2046.00,95.95
2045.00,95.96
2044.00,95.94
2043.00,95.89
2042.00,95.84
2041.00,95.79
2040.00,95.75
2039.00,95.71
2038.00,95.67
2037.00,95.64
2036.00,95.63
2035.00,95.63
2034.00,95.66
2033.00,95.70
2032.00,95.73
2031.00,95.73
2030.00,95.71
2029.00,95.70
2028.00,95.71
2027.00,95.75
2026.00,95.82
2025.00,95.88
2024.00,95.91
2023.00,95.89
2022.00,95.84
2021.00,95.78
2020.00,95.73
2019.00,95.71
2018.00,95.74
2017.00,95.81
2016.00,95.90
2015.00,95.96
2014.00,95.99
2013.00,95.99
2012.00,95.99
2011.00,95.97
2010.00,95.94
2009.00,95.92
2008.00,95.95
2007.00,96.02
2006.00,96.11
2005.00,96.19
2004.00,96.23
2003.00,96.24
2002.00,96.24
2001.00,96.24
2000.00,96.24
1999.00,96.24
1998.00,96.23
1997.00,96.21
1996.00,96.18
1995.00,96.13
1994.00,96.08
1993.00,96.06
1992.00,96.08
1991.00,96.14
1990.00,96.20
1989.00,96.24
1988.00,96.23
1987.00,96.19
1986.00,96.11
1985.00,96.06
1984.00,96.04
1983.00,96.06
1982.00,96.03
1981.00,95.94
1980.00,95.81
1979.00,95.75
1978.00,95.81
1977.00,95.95
1976.00,96.08
1975.00,96.15
1974.00,96.16
1973.00,96.14
1972.00,96.13
1971.00,96.13
1970.00,96.14
1969.00,96.15
1968.00,96.16
1967.00,96.18
1966.00,96.20
1965.00,96.24
1964.00,96.30
1963.00,96.36
1962.00,96.40
1961.00,96.39
1960.00,96.38
1959.00,96.40
1958.00,96.45
1957.00,96.47
1956.00,96.48
1955.00,96.48
1954.00,96.49
1953.00,96.50
1952.00,96.49
1951.00,96.47
1950.00,96.46
1949.00,96.48
1948.00,96.50
1947.00,96.53
1946.00,96.55
1945.00,96.57
1944.00,96.60
1943.00,96.64
1942.00,96.68
1941.00,96.69
1940.00,96.69
1939.00,96.72
1938.00,96.76
1937.00,96.81
1936.00,96.83
1935.00,96.83
1934.00,96.82
1933.00,96.81
1932.00,96.82
1931.00,96.83
1930.00,96.84
1929.00,96.86
1928.00,96.88
1927.00,96.92
1926.00,96.97
1925.00,97.00
1924.00,97.00
1923.00,96.99
1922.00,96.98
1921.00,96.96
1920.00,96.95
1919.00,96.96
1918.00,96.97
1917.00,96.97
1916.00,96.97
1915.00,96.97
1914.00,96.96
1913.00,96.94
1912.00,96.93
1911.00,96.95
1910.00,97.00
1909.00,97.03
1908.00,97.04
1907.00,97.04
1906.00,97.06
1905.00,97.08
1904.00,97.10
1903.00,97.11
1902.00,97.11
1901.00,97.11
1900.00,97.11
1899.00,97.12
1898.00,97.12
1897.00,97.12
1896.00,97.13
1895.00,97.15
1894.00,97.16
1893.00,97.15
1892.00,97.13
1891.00,97.12
1890.00,97.11
1889.00,97.11
1888.00,97.11
1887.00,97.12
1886.00,97.13
1885.00,97.13
1884.00,97.13
1883.00,97.13
1882.00,97.13
1881.00,97.12
1880.00,97.11
1879.00,97.12
1878.00,97.15
1877.00,97.18
1876.00,97.21
1875.00,97.22
1874.00,97.22
1873.00,97.22
1872.00,97.22
1871.00,97.22
1870.00,97.22
1869.00,97.22
1868.00,97.21
1867.00,97.22
1866.00,97.23
1865.00,97.25
1864.00,97.26
1863.00,97.25
1862.00,97.25
1861.00,97.24
1860.00,97.25
1859.00,97.26
1858.00,97.27
1857.00,97.28
1856.00,97.26
1855.00,97.24
1854.00,97.22
1853.00,97.21
1852.00,97.21
1851.00,97.22
1850.00,97.23
1849.00,97.25
1848.00,97.25
1847.00,97.24
1846.00,97.22
1845.00,97.21
1844.00,97.21
1843.00,97.24
1842.00,97.28
1841.00,97.31
1840.00,97.33
1839.00,97.34
1838.00,97.35
1837.00,97.35
1836.00,97.34
1835.00,97.33
1834.00,97.32
1833.00,97.31
1832.00,97.30
1831.00,97.29
1830.00,97.28
1829.00,97.26
1828.00,97.25
1827.00,97.25
1826.00,97.24
1825.00,97.24
1824.00,97.24
1823.00,97.25
1822.00,97.26
1821.00,97.27
1820.00,97.28
1819.00,97.31
1818.00,97.35
1817.00,97.37
1816.00,97.38
1815.00,97.37
1814.00,97.35
1813.00,97.32
1812.00,97.30
1811.00,97.30
1810.00,97.32
1809.00,97.34
1808.00,97.34
1807.00,97.33
1806.00,97.32
1805.00,97.32
1804.00,97.31
1803.00,97.32
1802.00,97.32
1801.00,97.32
1800.00,97.31
1799.00,97.32
1798.00,97.32
1797.00,97.33
1796.00,97.32
1795.00,97.30
1794.00,97.27
1793.00,97.25
1792.00,97.25
1791.00,97.27
1790.00,97.29
1789.00,97.30
1788.00,97.29
1787.00,97.27
1786.00,97.27
1785.00,97.27
1784.00,97.28
1783.00,97.29
1782.00,97.29
1781.00,97.28
1780.00,97.27
1779.00,97.27
1778.00,97.27
1777.00,97.27
1776.00,97.27
1775.00,97.25
1774.00,97.24
1773.00,97.22
1772.00,97.22
1771.00,97.21
1770.00,97.20
1769.00,97.16
1768.00,97.13
1767.00,97.11
1766.00,97.13
1765.00,97.16
1764.00,97.17
1763.00,97.18
1762.00,97.17
1761.00,97.14
1760.00,97.12
1759.00,97.10
1758.00,97.08
1757.00,97.08
1756.00,97.08
1755.00,97.09
1754.00,97.10
1753.00,97.08
1752.00,97.05
1751.00,97.01
1750.00,96.98
1749.00,96.96
1748.00,96.95
1747.00,96.93
1746.00,96.91
1745.00,96.90
1744.00,96.90
1743.00,96.90
1742.00,96.90
1741.00,96.89
1740.00,96.87
1739.00,96.86
1738.00,96.86
1737.00,96.86
1736.00,96.83
1735.00,96.80
1734.00,96.78
1733.00,96.76
1732.00,96.75
1731.00,96.72
1730.00,96.71
1729.00,96.70
1728.00,96.70
1727.00,96.71
1726.00,96.70
1725.00,96.69
1724.00,96.65
1723.00,96.63
1722.00,96.61
1721.00,96.60
1720.00,96.58
1719.00,96.55
1718.00,96.51
1717.00,96.48
1716.00,96.44
1715.00,96.42
1714.00,96.41
1713.00,96.40
1712.00,96.38
1711.00,96.37
1710.00,96.35
1709.00,96.33
1708.00,96.30
1707.00,96.26
1706.00,96.22
1705.00,96.17
1704.00,96.12
1703.00,96.07
1702.00,96.02
1701.00,95.97
1700.00,95.93
1699.00,95.91
1698.00,95.87
1697.00,95.80
1696.00,95.70
1695.00,95.63
1694.00,95.59
1693.00,95.55
1692.00,95.49
1691.00,95.42
1690.00,95.35
1689.00,95.27
1688.00,95.19
1687.00,95.11
1686.00,95.03
1685.00,94.91
1684.00,94.78
1683.00,94.67
1682.00,94.59
1681.00,94.49
1680.00,94.37
1679.00,94.26
1678.00,94.17
1677.00,94.07
1676.00,93.94
1675.00,93.80
1674.00,93.68
1673.00,93.58
1672.00,93.48
1671.00,93.38
1670.00,93.26
1669.00,93.12
1668.00,92.99
1667.00,92.89
1666.00,92.80
1665.00,92.72
1664.00,92.62
1663.00,92.51
1662.00,92.41
1661.00,92.30
1660.00,92.20
1659.00,92.12
1658.00,92.06
1657.00,92.01
1656.00,91.95
1655.00,91.86
1654.00,91.73
1653.00,91.59
1652.00,91.53
1651.00,91.52
1650.00,91.51
1649.00,91.47
1648.00,91.40
1647.00,91.31
1646.00,91.25
1645.00,91.23
1644.00,91.23
1643.00,91.22
1642.00,91.22
1641.00,91.22
1640.00,91.22
1639.00,91.24
1638.00,91.26
1637.00,91.27
1636.00,91.28
1635.00,91.31
1634.00,91.37
1633.00,91.42
1632.00,91.46
1631.00,91.51
1630.00,91.57
1629.00,91.65
1628.00,91.74
1627.00,91.82
1626.00,91.89
1625.00,91.98
1624.00,92.08
1623.00,92.18
1622.00,92.28
1621.00,92.36
1620.00,92.43
1619.00,92.50
1618.00,92.59
1617.00,92.71
1616.00,92.81
1615.00,92.90
1614.00,92.98
1613.00,93.05
1612.00,93.13
1611.00,93.22
1610.00,93.32
1609.00,93.42
1608.00,93.50
1607.00,93.58
1606.00,93.65
1605.00,93.73
1604.00,93.80
1603.00,93.87
1602.00,93.94
1601.00,94.01
1600.00,94.08
1599.00,94.14
1598.00,94.19
1597.00,94.24
1596.00,94.30
1595.00,94.37
1594.00,94.44
1593.00,94.51
1592.00,94.57
1591.00,94.64
1590.00,94.69
1589.00,94.74
1588.00,94.78
1587.00,94.81
1586.00,94.85
1585.00,94.89
1584.00,94.93
1583.00,94.97
1582.00,95.02
1581.00,95.06
1580.00,95.11
1579.00,95.14
1578.00,95.16
1577.00,95.17
1576.00,95.19
1575.00,95.23
1574.00,95.26
1573.00,95.30
1572.00,95.33
1571.00,95.37
1570.00,95.40
1569.00,95.42
1568.00,95.44
1567.00,95.46
1566.00,95.47
1565.00,95.49
1564.00,95.52
1563.00,95.54
1562.00,95.56
1561.00,95.56
1560.00,95.56
1559.00,95.55
1558.00,95.56
1557.00,95.59
1556.00,95.59
1555.00,95.58
1554.00,95.58
1553.00,95.59
1552.00,95.60
1551.00,95.61
1550.00,95.61
1549.00,95.60
1548.00,95.60
1547.00,95.61
1546.00,95.62
1545.00,95.62
1544.00,95.62
1543.00,95.62
1542.00,95.61
1541.00,95.61
1540.00,95.61
1539.00,95.64
1538.00,95.67
1537.00,95.68
1536.00,95.67
1535.00,95.66
1534.00,95.65
1533.00,95.64
1532.00,95.64
1531.00,95.63
1530.00,95.63
1529.00,95.64
1528.00,95.64
1527.00,95.64
1526.00,95.64
1525.00,95.63
1524.00,95.62
1523.00,95.60
1522.00,95.59
1521.00,95.57
1520.00,95.57
1519.00,95.58
1518.00,95.58
1517.00,95.56
1516.00,95.53
1515.00,95.51
1514.00,95.49
1513.00,95.47
1512.00,95.44
1511.00,95.41
1510.00,95.38
1509.00,95.33
1508.00,95.27
1507.00,95.20
1506.00,95.16
1505.00,95.16
1504.00,95.15
1503.00,95.12
1502.00,95.06
1501.00,94.99
1500.00,94.90
1499.00,94.81
1498.00,94.71
1497.00,94.60
1496.00,94.48
1495.00,94.39
1494.00,94.32
1493.00,94.23
1492.00,94.11
1491.00,93.96
1490.00,93.80
1489.00,93.65
1488.00,93.53
1487.00,93.42
1486.00,93.29
1485.00,93.16
1484.00,93.01
1483.00,92.86
1482.00,92.70
1481.00,92.54
1480.00,92.38
1479.00,92.23
1478.00,92.09
1477.00,91.93
1476.00,91.77
1475.00,91.61
1474.00,91.46
1473.00,91.27
1472.00,91.09
1471.00,90.96
1470.00,90.87
1469.00,90.79
1468.00,90.71
1467.00,90.64
1466.00,90.55
1465.00,90.45
1464.00,90.35
1463.00,90.28
1462.00,90.24
1461.00,90.20
1460.00,90.17
1459.00,90.12
1458.00,90.03
1457.00,89.90
1456.00,89.81
1455.00,89.76
1454.00,89.74
1453.00,89.69
1452.00,89.62
1451.00,89.54
1450.00,89.45
1449.00,89.35
1448.00,89.25
1447.00,89.16
1446.00,89.08
1445.00,89.00
1444.00,88.92
1443.00,88.85
1442.00,88.79
1441.00,88.73
1440.00,88.69
1439.00,88.64
1438.00,88.58
1437.00,88.50
1436.00,88.42
1435.00,88.38
1434.00,88.36
1433.00,88.35
1432.00,88.33
1431.00,88.31
1430.00,88.28
1429.00,88.25
1428.00,88.22
1427.00,88.19
1426.00,88.17
1425.00,88.14
1424.00,88.10
1423.00,88.08
1422.00,88.07
1421.00,88.06
1420.00,88.06
1419.00,88.06
1418.00,88.08
1417.00,88.11
1416.00,88.16
1415.00,88.23
1414.00,88.30
1413.00,88.37
1412.00,88.44
1411.00,88.50
1410.00,88.55
1409.00,88.60
1408.00,88.64
1407.00,88.67
1406.00,88.68
1405.00,88.68
1404.00,88.66
1403.00,88.64
1402.00,88.60
1401.00,88.56
1400.00,88.50
1399.00,88.44
1398.00,88.39
1397.00,88.37
1396.00,88.35
1395.00,88.33
1394.00,88.31
1393.00,88.28
1392.00,88.25
1391.00,88.20
1390.00,88.13
1389.00,88.02
1388.00,87.88
1387.00,87.72
1386.00,87.54
1385.00,87.34
1384.00,87.10
1383.00,86.82
1382.00,86.50
1381.00,86.15
1380.00,85.78
1379.00,85.43
1378.00,85.10
1377.00,84.83
1376.00,84.59
1375.00,84.39
1374.00,84.22
1373.00,84.09
1372.00,84.00
1371.00,83.93
1370.00,83.88
1369.00,83.83
1368.00,83.78
1367.00,83.76
1366.00,83.78
1365.00,83.83
1364.00,83.92
1363.00,84.04
1362.00,84.19
1361.00,84.36
1360.00,84.53
1359.00,84.71
1358.00,84.89
1357.00,85.07
1356.00,85.26
1355.00,85.44
1354.00,85.61
1353.00,85.76
1352.00,85.87
1351.00,85.95
1350.00,86.00
1349.00,86.01
1348.00,85.99
1347.00,85.96
1346.00,85.91
1345.00,85.86
1344.00,85.80
1343.00,85.75
1342.00,85.67
1341.00,85.56
1340.00,85.42
1339.00,85.28
1338.00,85.19
1337.00,85.16
1336.00,85.17
1335.00,85.22
1334.00,85.28
1333.00,85.34
1332.00,85.40
1331.00,85.45
1330.00,85.49
1329.00,85.53
1328.00,85.56
1327.00,85.58
1326.00,85.57
1325.00,85.51
1324.00,85.40
1323.00,85.23
1322.00,85.00
1321.00,84.69
1320.00,84.30
1319.00,83.89
1318.00,83.52
1317.00,83.23
1316.00,83.06
1315.00,82.99
1314.00,83.00
1313.00,83.05
1312.00,83.16
1311.00,83.34
1310.00,83.60
1309.00,83.93
1308.00,84.28
1307.00,84.65
1306.00,85.00
1305.00,85.31
1304.00,85.59
1303.00,85.86
1302.00,86.10
1301.00,86.32
1300.00,86.54
1299.00,86.75
1298.00,86.94
1297.00,87.11
1296.00,87.26
1295.00,87.40
1294.00,87.55
1293.00,87.72
1292.00,87.92
1291.00,88.13
1290.00,88.35
1289.00,88.54
1288.00,88.70
1287.00,88.82
1286.00,88.91
1285.00,88.94
1284.00,88.93
1283.00,88.89
1282.00,88.80
1281.00,88.70
1280.00,88.58
1279.00,88.47
1278.00,88.38
1277.00,88.32
1276.00,88.29
1275.00,88.29
1274.00,88.28
1273.00,88.26
1272.00,88.21
1271.00,88.14
1270.00,88.05
1269.00,87.96
1268.00,87.86
1267.00,87.77
1266.00,87.68
1265.00,87.60
1264.00,87.52
1263.00,87.47
1262.00,87.44
1261.00,87.46
1260.00,87.53
1259.00,87.64
1258.00,87.79
1257.00,87.95
1256.00,88.11
1255.00,88.28
1254.00,88.43
1253.00,88.56
1252.00,88.67
1251.00,88.78
1250.00,88.87
1249.00,88.95
1248.00,89.00
1247.00,89.03
1246.00,89.04
1245.00,89.04
1244.00,89.01
1243.00,88.97
1242.00,88.93
1241.00,88.87
1240.00,88.81
1239.00,88.76
1238.00,88.71
1237.00,88.68
1236.00,88.64
1235.00,88.60
1234.00,88.56
1233.00,88.51
1232.00,88.48
1231.00,88.47
1230.00,88.45
1229.00,88.42
1228.00,88.38
1227.00,88.37
1226.00,88.42
1225.00,88.55
1224.00,88.75
1223.00,89.02
1222.00,89.30
1221.00,89.58
1220.00,89.84
1219.00,90.07
1218.00,90.27
1217.00,90.45
1216.00,90.59
1215.00,90.70
1214.00,90.77
1213.00,90.81
1212.00,90.80
1211.00,90.76
1210.00,90.65
1209.00,90.48
1208.00,90.26
1207.00,89.98
1206.00,89.68
1205.00,89.36
1204.00,89.06
1203.00,88.78
1202.00,88.56
1201.00,88.38
1200.00,88.28
1199.00,88.23
1198.00,88.25
1197.00,88.33
1196.00,88.49
1195.00,88.73
1194.00,89.04
1193.00,89.39
1192.00,89.76
1191.00,90.10
1190.00,90.41
1189.00,90.67
1188.00,90.88
1187.00,91.03
1186.00,91.12
1185.00,91.16
1184.00,91.16
1183.00,91.13
1182.00,91.06
1181.00,90.95
1180.00,90.80
1179.00,90.60
1178.00,90.38
1177.00,90.13
1176.00,89.85
1175.00,89.55
1174.00,89.21
1173.00,88.84
1172.00,88.43
1171.00,87.96
1170.00,87.45
1169.00,86.89
1168.00,86.27
1167.00,85.61
1166.00,84.92
1165.00,84.22
1164.00,83.54
1163.00,82.92
1162.00,82.36
1161.00,81.89
1160.00,81.52
1159.00,81.26
1158.00,81.13
1157.00,81.11
1156.00,81.21
1155.00,81.41
1154.00,81.66
1153.00,81.93
1152.00,82.20
1151.00,82.46
1150.00,82.72
1149.00,82.99
1148.00,83.25
1147.00,83.50
1146.00,83.72
1145.00,83.91
1144.00,84.06
1143.00,84.14
1142.00,84.15
1141.00,84.10
1140.00,84.00
1139.00,83.83
1138.00,83.58
1137.00,83.25
1136.00,82.84
1135.00,82.38
1134.00,81.90
1133.00,81.39
1132.00,80.88
1131.00,80.38
1130.00,79.88
1129.00,79.37
1128.00,78.84
1127.00,78.32
1126.00,77.79
1125.00,77.26
1124.00,76.76
1123.00,76.28
1122.00,75.84
1121.00,75.41
1120.00,75.01
1119.00,74.68
1118.00,74.39
1117.00,74.10
1116.00,73.82
1115.00,73.56
1114.00,73.34
1113.00,73.13
1112.00,72.96
1111.00,72.84
1110.00,72.78
1109.00,72.74
1108.00,72.69
1107.00,72.60
1106.00,72.42
1105.00,72.14
1104.00,71.74
1103.00,71.23
1102.00,70.63
1101.00,69.95
1100.00,69.22
1099.00,68.54
1098.00,67.92
1097.00,67.36
1096.00,66.83
1095.00,66.35
1094.00,65.91
1093.00,65.48
1092.00,65.03
1091.00,64.58
1090.00,64.14
1089.00,63.72
1088.00,63.33
1087.00,62.99
1086.00,62.68
1085.00,62.37
1084.00,62.06
1083.00,61.80
1082.00,61.60
1081.00,61.41
1080.00,61.21
1079.00,61.00
1078.00,60.80
1077.00,60.59
1076.00,60.39
1075.00,60.21
1074.00,60.05
1073.00,59.89
1072.00,59.74
1071.00,59.61
1070.00,59.48
1069.00,59.30
1068.00,59.04
1067.00,58.70
1066.00,58.27
1065.00,57.73
1064.00,57.10
1063.00,56.44
1062.00,55.80
1061.00,55.21
1060.00,54.68
1059.00,54.23
1058.00,53.87
1057.00,53.55
1056.00,53.25
1055.00,52.98
1054.00,52.76
1053.00,52.54
1052.00,52.33
1051.00,52.16
1050.00,52.02
1049.00,51.85
1048.00,51.65
1047.00,51.48
1046.00,51.34
1045.00,51.20
1044.00,51.06
1043.00,50.94
1042.00,50.81
1041.00,50.66
1040.00,50.45
1039.00,50.19
1038.00,49.90
1037.00,49.52
1036.00,49.07
1035.00,48.58
1034.00,48.08
1033.00,47.58
1032.00,47.09
1031.00,46.63
1030.00,46.22
1029.00,45.83
1028.00,45.48
1027.00,45.19
1026.00,44.99
1025.00,44.83
1024.00,44.71
1023.00,44.66
1022.00,44.69
1021.00,44.75
1020.00,44.83
1019.00,44.97
1018.00,45.19
1017.00,45.47
1016.00,45.82
1015.00,46.23
1014.00,46.69
1013.00,47.16
1012.00,47.59
1011.00,47.98
1010.00,48.32
1009.00,48.60
1008.00,48.82
1007.00,49.04
1006.00,49.25
1005.00,49.44
1004.00,49.58
1003.00,49.69
1002.00,49.76
1001.00,49.80
1000.00,49.82
999.00,49.88
998.00,50.01
997.00,50.20
996.00,50.48
995.00,50.85
994.00,51.32
993.00,51.88
992.00,52.52
991.00,53.25
990.00,54.06
989.00,54.94
988.00,55.88
987.00,56.88
986.00,57.90
985.00,58.90
984.00,59.88
983.00,60.87
982.00,61.85
981.00,62.80
980.00,63.70
979.00,64.54
978.00,65.32
977.00,66.05
976.00,66.71
975.00,67.32
974.00,67.89
973.00,68.39
972.00,68.82
971.00,69.22
970.00,69.60
969.00,69.97
968.00,70.32
967.00,70.66
966.00,71.01
965.00,71.37
964.00,71.75
963.00,72.15
962.00,72.58
961.00,73.00
960.00,73.42
959.00,73.85
958.00,74.30
957.00,74.75
956.00,75.20
955.00,75.64
954.00,76.08
953.00,76.49
952.00,76.88
951.00,77.26
950.00,77.62
949.00,77.96
948.00,78.29
947.00,78.60
946.00,78.89
945.00,79.16
944.00,79.42
943.00,79.67
942.00,79.91
941.00,80.13
940.00,80.33
939.00,80.51
938.00,80.69
937.00,80.85
936.00,80.99
935.00,81.12
934.00,81.24
933.00,81.35
932.00,81.45
931.00,81.56
930.00,81.67
929.00,81.80
928.00,81.93
927.00,82.07
926.00,82.22
925.00,82.37
924.00,82.51
923.00,82.64
922.00,82.75
921.00,82.85
920.00,82.93
919.00,83.01
918.00,83.08
917.00,83.11
916.00,83.10
915.00,83.06
914.00,82.99
913.00,82.89
912.00,82.73
911.00,82.52
910.00,82.25
909.00,81.93
908.00,81.60
907.00,81.24
906.00,80.87
905.00,80.46
904.00,80.04
903.00,79.59
902.00,79.13
901.00,78.65
900.00,78.15
899.00,77.66
898.00,77.22
897.00,76.83
896.00,76.53
895.00,76.36
894.00,76.35
893.00,76.49
892.00,76.77
891.00,77.18
890.00,77.69
889.00,78.25
888.00,78.85
887.00,79.47
886.00,80.08
885.00,80.65
884.00,81.15
883.00,81.59
882.00,82.00
881.00,82.36
880.00,82.70
879.00,83.01
878.00,83.32
877.00,83.59
876.00,83.81
875.00,83.99
874.00,84.15
873.00,84.27
872.00,84.38
871.00,84.49
870.00,84.58
869.00,84.67
868.00,84.75
867.00,84.83
866.00,84.91
865.00,84.99
864.00,85.04
863.00,85.09
862.00,85.13
861.00,85.15
860.00,85.16
859.00,85.16
858.00,85.16
857.00,85.16
856.00,85.16
855.00,85.18
854.00,85.22
853.00,85.27
852.00,85.31
851.00,85.34
850.00,85.34
849.00,85.32
848.00,85.28
847.00,85.26
846.00,85.25
845.00,85.22
844.00,85.18
843.00,85.13
842.00,85.10
841.00,85.08
840.00,85.07
839.00,85.05
838.00,85.02
837.00,84.99
836.00,84.95
835.00,84.93
834.00,84.90
833.00,84.86
832.00,84.81
831.00,84.75
830.00,84.67
829.00,84.56
828.00,84.44
827.00,84.35
826.00,84.29
825.00,84.26
824.00,84.23
823.00,84.20
822.00,84.18
821.00,84.16
820.00,84.15
819.00,84.12
818.00,84.06
817.00,83.97
816.00,83.87
815.00,83.79
814.00,83.73
813.00,83.67
812.00,83.61
811.00,83.57
810.00,83.54
809.00,83.52
808.00,83.46
807.00,83.39
806.00,83.32
805.00,83.25
804.00,83.17
803.00,83.11
802.00,83.06
801.00,83.01
800.00,82.96
799.00,82.90
798.00,82.84
797.00,82.78
796.00,82.73
795.00,82.70
794.00,82.68
793.00,82.64
792.00,82.57
791.00,82.48
790.00,82.38
789.00,82.29
788.00,82.21
787.00,82.16
786.00,82.15
785.00,82.13
784.00,82.08
783.00,82.00
782.00,81.91
781.00,81.82
780.00,81.73
779.00,81.66
778.00,81.61
777.00,81.54
776.00,81.48
775.00,81.42
774.00,81.38
773.00,81.32
772.00,81.21
771.00,81.10
770.00,80.99
769.00,80.91
768.00,80.83
767.00,80.77
766.00,80.71
765.00,80.65
764.00,80.58
763.00,80.52
762.00,80.46
761.00,80.38
760.00,80.28
759.00,80.17
758.00,80.08
757.00,79.98
756.00,79.87
755.00,79.76
754.00,79.68
753.00,79.60
752.00,79.52
751.00,79.42
750.00,79.33
749.00,79.23
748.00,79.13
747.00,79.04
746.00,78.94
745.00,78.83
744.00,78.69
743.00,78.56
742.00,78.46
741.00,78.38
740.00,78.31
739.00,78.23
738.00,78.16
737.00,78.08
736.00,77.98
735.00,77.87
734.00,77.73
733.00,77.57
732.00,77.41
731.00,77.28
730.00,77.16
729.00,77.02
728.00,76.87
727.00,76.74
726.00,76.63
725.00,76.54
724.00,76.44
723.00,76.36
722.00,76.29
721.00,76.21
720.00,76.09
719.00,75.96
718.00,75.83
717.00,75.71
716.00,75.59
715.00,75.51
714.00,75.46
713.00,75.42
712.00,75.38
711.00,75.32
710.00,75.24
709.00,75.14
708.00,75.02
707.00,74.93
706.00,74.89
705.00,74.86
704.00,74.82
703.00,74.78
702.00,74.77
701.00,74.75
700.00,74.73
699.00,74.70
698.00,74.68
697.00,74.65
696.00,74.61
695.00,74.59
694.00,74.60
693.00,74.57
692.00,74.50
691.00,74.40
690.00,74.33
689.00,74.26
688.00,74.15
687.00,74.04
686.00,73.93
685.00,73.79
684.00,73.59
683.00,73.34
682.00,73.01
681.00,72.50
680.00,71.79
679.00,70.90
678.00,69.89
677.00,68.75
676.00,67.52
675.00,66.25
674.00,65.01
673.00,63.86
672.00,62.92
671.00,62.30
670.00,61.92
669.00,61.63
668.00,61.37
667.00,61.30
666.00,61.41
665.00,61.55
664.00,61.67
663.00,61.80
662.00,61.98
661.00,62.16
660.00,62.31
659.00,62.45
658.00,62.65
657.00,62.84
656.00,62.96
655.00,63.02
654.00,63.04
653.00,63.03
652.00,63.00
651.00,63.02
650.00,63.13
649.00,63.28
648.00,63.41
647.00,63.52
646.00,63.60
645.00,63.58
644.00,63.45
643.00,63.31
642.00,63.25
641.00,63.22
640.00,63.13
639.00,63.05
638.00,63.06
637.00,63.12
636.00,63.13
635.00,63.07
634.00,62.97
633.00,62.83
632.00,62.67
631.00,62.53
630.00,62.45
629.00,62.35
628.00,62.19
627.00,62.03
626.00,61.95
625.00,61.99
624.00,62.10
623.00,62.26
622.00,62.29
621.00,62.04
620.00,61.56
619.00,61.09
618.00,60.71
617.00,60.28
616.00,59.77
615.00,59.42
614.00,59.32
613.00,59.21
612.00,58.85
611.00,58.33
610.00,57.83
609.00,57.46
608.00,57.30
607.00,57.43
606.00,57.72
605.00,57.94
604.00,58.05
603.00,58.25
602.00,58.54
601.00,58.73
600.00,58.77
599.00,58.83
598.00,58.92
597.00,58.80
596.00,58.40
595.00,58.02
594.00,57.91
593.00,57.97
592.00,58.04
591.00,58.19
590.00,58.47
589.00,58.63
588.00,58.52
587.00,58.29
586.00,58.10
585.00,57.79
584.00,57.29
583.00,56.96
582.00,57.10
581.00,57.42
580.00,57.55
579.00,57.52
578.00,57.40
577.00,56.99
576.00,56.27
575.00,55.76
574.00,55.88
573.00,56.32
572.00,56.60
571.00,56.71
570.00,56.66
569.00,56.31
568.00,55.78
567.00,55.62
566.00,55.97
565.00,56.33
564.00,56.37
563.00,56.30
562.00,56.29
561.00,56.15
560.00,55.87
559.00,55.71
558.00,55.60
557.00,55.14
556.00,54.44
555.00,54.20
554.00,54.59
553.00,54.90
552.00,54.66
551.00,54.28
550.00,54.12
