Created as New Dataset,69. Waxman
cm-1,%T
4000.00,99.26
3999.00,99.26
3998.00,99.26
3997.00,99.25
3996.00,99.25
3995.00,99.24
3994.00,99.23
3993.00,99.22
3992.00,99.22
3991.00,99.23
3990.00,99.25
3989.00,99.27
3988.00,99.28
3987.00,99.27
3986.00,99.26
3985.00,99.25
3984.00,99.24
3983.00,99.24
3982.00,99.24
3981.00,99.24
3980.00,99.23
3979.00,99.22
3978.00,99.22
3977.00,99.23
3976.00,99.24
3975.00,99.25
3974.00,99.27
3973.00,99.28
3972.00,99.30
3971.00,99.31
3970.00,99.31
3969.00,99.29
3968.00,99.27
3967.00,99.26
3966.00,99.25
3965.00,99.25
3964.00,99.26
3963.00,99.26
3962.00,99.26
3961.00,99.25
3960.00,99.25
3959.00,99.26
3958.00,99.28
3957.00,99.31
3956.00,99.34
3955.00,99.37
3954.00,99.38
3953.00,99.37
3952.00,99.36
3951.00,99.33
3950.00,99.30
3949.00,99.26
3948.00,99.24
3947.00,99.23
3946.00,99.25
3945.00,99.27
3944.00,99.29
3943.00,99.28
3942.00,99.26
3941.00,99.24
3940.00,99.25
3939.00,99.28
3938.00,99.31
3937.00,99.33
3936.00,99.34
3935.00,99.33
3934.00,99.32
3933.00,99.31
3932.00,99.30
3931.00,99.30
3930.00,99.29
3929.00,99.29
3928.00,99.28
3927.00,99.28
3926.00,99.27
3925.00,99.26
3924.00,99.24
3923.00,99.23
3922.00,99.22
3921.00,99.22
3920.00,99.23
3919.00,99.24
3918.00,99.25
3917.00,99.26
3916.00,99.25
3915.00,99.25
3914.00,99.25
3913.00,99.25
3912.00,99.26
3911.00,99.27
3910.00,99.26
3909.00,99.25
3908.00,99.23
3907.00,99.21
3906.00,99.19
3905.00,99.18
3904.00,99.18
3903.00,99.18
3902.00,99.18
3901.00,99.18
3900.00,99.19
3899.00,99.20
3898.00,99.21
3897.00,99.22
3896.00,99.23
3895.00,99.23
3894.00,99.22
3893.00,99.21
3892.00,99.20
3891.00,99.20
3890.00,99.19
3889.00,99.19
3888.00,99.18
3887.00,99.18
3886.00,99.17
3885.00,99.16
3884.00,99.15
3883.00,99.16
3882.00,99.18
3881.00,99.20
3880.00,99.21
3879.00,99.20
3878.00,99.17
3877.00,99.15
3876.00,99.12
3875.00,99.10
3874.00,99.08
3873.00,99.08
3872.00,99.10
3871.00,99.14
3870.00,99.16
3869.00,99.16
3868.00,99.13
3867.00,99.10
3866.00,99.08
3865.00,99.08
3864.00,99.09
3863.00,99.12
3862.00,99.15
3861.00,99.17
3860.00,99.20
3859.00,99.20
3858.00,99.19
3857.00,99.16
3856.00,99.14
3855.00,99.14
3854.00,99.15
3853.00,99.15
3852.00,99.14
3851.00,99.14
3850.00,99.15
3849.00,99.16
3848.00,99.18
3847.00,99.19
3846.00,99.19
3845.00,99.17
3844.00,99.15
3843.00,99.13
3842.00,99.10
3841.00,99.08
3840.00,99.06
3839.00,99.04
3838.00,99.03
3837.00,99.03
3836.00,99.04
3835.00,99.04
3834.00,99.05
3833.00,99.07
3832.00,99.09
3831.00,99.10
3830.00,99.11
3829.00,99.10
3828.00,99.08
3827.00,99.08
3826.00,99.07
3825.00,99.06
3824.00,99.05
3823.00,99.03
3822.00,99.01
3821.00,99.02
3820.00,99.04
3819.00,99.07
3818.00,99.11
3817.00,99.12
3816.00,99.10
3815.00,99.07
3814.00,99.05
3813.00,99.05
3812.00,99.06
3811.00,99.07
3810.00,99.07
3809.00,99.06
3808.00,99.04
3807.00,99.02
3806.00,98.97
3805.00,98.94
3804.00,98.92
3803.00,98.93
3802.00,98.94
3801.00,98.95
3800.00,98.95
3799.00,98.97
3798.00,99.01
3797.00,99.05
3796.00,99.08
3795.00,99.09
3794.00,99.08
3793.00,99.09
3792.00,99.10
3791.00,99.12
3790.00,99.13
3789.00,99.13
3788.00,99.12
3787.00,99.11
3786.00,99.10
3785.00,99.08
3784.00,99.06
3783.00,99.03
3782.00,99.01
3781.00,99.01
3780.00,99.02
3779.00,99.03
3778.00,99.03
3777.00,99.03
3776.00,99.03
3775.00,99.03
3774.00,99.04
3773.00,99.03
3772.00,99.01
3771.00,98.98
3770.00,98.95
3769.00,98.92
3768.00,98.92
3767.00,98.93
3766.00,98.95
3765.00,98.96
3764.00,98.95
3763.00,98.93
3762.00,98.91
3761.00,98.91
3760.00,98.90
3759.00,98.90
3758.00,98.89
3757.00,98.89
3756.00,98.89
3755.00,98.90
3754.00,98.89
3753.00,98.87
3752.00,98.82
3751.00,98.77
3750.00,98.74
3749.00,98.73
3748.00,98.72
3747.00,98.73
3746.00,98.76
3745.00,98.83
3744.00,98.89
3743.00,98.93
3742.00,98.93
3741.00,98.92
3740.00,98.88
3739.00,98.85
3738.00,98.84
3737.00,98.84
3736.00,98.85
3735.00,98.85
3734.00,98.84
3733.00,98.85
3732.00,98.88
3731.00,98.91
3730.00,98.92
3729.00,98.91
3728.00,98.89
3727.00,98.87
3726.00,98.86
3725.00,98.86
3724.00,98.85
3723.00,98.85
3722.00,98.84
3721.00,98.83
3720.00,98.83
3719.00,98.84
3718.00,98.85
3717.00,98.86
3716.00,98.86
3715.00,98.84
3714.00,98.81
3713.00,98.78
3712.00,98.77
3711.00,98.79
3710.00,98.83
3709.00,98.87
3708.00,98.88
3707.00,98.87
3706.00,98.84
3705.00,98.82
3704.00,98.81
3703.00,98.81
3702.00,98.81
3701.00,98.80
3700.00,98.79
3699.00,98.79
3698.00,98.80
3697.00,98.81
3696.00,98.81
3695.00,98.80
3694.00,98.78
3693.00,98.76
3692.00,98.75
3691.00,98.75
3690.00,98.74
3689.00,98.72
3688.00,98.72
3687.00,98.72
3686.00,98.74
3685.00,98.76
3684.00,98.78
3683.00,98.79
3682.00,98.80
3681.00,98.79
3680.00,98.76
3679.00,98.72
3678.00,98.67
3677.00,98.65
3676.00,98.64
3675.00,98.63
3674.00,98.62
3673.00,98.62
3672.00,98.62
3671.00,98.63
3670.00,98.65
3669.00,98.67
3668.00,98.68
3667.00,98.69
3666.00,98.69
3665.00,98.68
3664.00,98.68
3663.00,98.67
3662.00,98.67
3661.00,98.66
3660.00,98.65
3659.00,98.64
3658.00,98.64
3657.00,98.63
3656.00,98.62
3655.00,98.61
3654.00,98.60
3653.00,98.60
3652.00,98.62
3651.00,98.65
3650.00,98.64
3649.00,98.61
3648.00,98.57
3647.00,98.55
3646.00,98.56
3645.00,98.58
3644.00,98.60
3643.00,98.61
3642.00,98.62
3641.00,98.62
3640.00,98.61
3639.00,98.60
3638.00,98.60
3637.00,98.60
3636.00,98.60
3635.00,98.60
3634.00,98.58
3633.00,98.56
3632.00,98.54
3631.00,98.53
3630.00,98.52
3629.00,98.50
3628.00,98.49
3627.00,98.50
3626.00,98.53
3625.00,98.57
3624.00,98.60
3623.00,98.61
3622.00,98.60
3621.00,98.60
3620.00,98.61
3619.00,98.62
3618.00,98.61
3617.00,98.59
3616.00,98.58
3615.00,98.57
3614.00,98.56
3613.00,98.56
3612.00,98.54
3611.00,98.52
3610.00,98.50
3609.00,98.51
3608.00,98.52
3607.00,98.52
3606.00,98.53
3605.00,98.54
3604.00,98.57
3603.00,98.61
3602.00,98.65
3601.00,98.66
3600.00,98.66
3599.00,98.65
3598.00,98.66
3597.00,98.66
3596.00,98.67
3595.00,98.68
3594.00,98.67
3593.00,98.66
3592.00,98.65
3591.00,98.65
3590.00,98.67
3589.00,98.68
3588.00,98.68
3587.00,98.67
3586.00,98.66
3585.00,98.66
3584.00,98.66
3583.00,98.66
3582.00,98.65
3581.00,98.65
3580.00,98.66
3579.00,98.69
3578.00,98.70
3577.00,98.69
3576.00,98.66
3575.00,98.63
3574.00,98.61
3573.00,98.61
3572.00,98.63
3571.00,98.65
3570.00,98.67
3569.00,98.68
3568.00,98.66
3567.00,98.63
3566.00,98.59
3565.00,98.57
3564.00,98.57
3563.00,98.59
3562.00,98.62
3561.00,98.65
3560.00,98.67
3559.00,98.68
3558.00,98.69
3557.00,98.69
3556.00,98.70
3555.00,98.70
3554.00,98.71
3553.00,98.71
3552.00,98.70
3551.00,98.69
3550.00,98.68
3549.00,98.68
3548.00,98.68
3547.00,98.68
3546.00,98.68
3545.00,98.67
3544.00,98.65
3543.00,98.63
3542.00,98.61
3541.00,98.61
3540.00,98.62
3539.00,98.65
3538.00,98.68
3537.00,98.70
3536.00,98.71
3535.00,98.70
3534.00,98.69
3533.00,98.68
3532.00,98.66
3531.00,98.65
3530.00,98.65
3529.00,98.65
3528.00,98.64
3527.00,98.63
3526.00,98.61
3525.00,98.60
3524.00,98.60
3523.00,98.60
3522.00,98.60
3521.00,98.61
3520.00,98.63
3519.00,98.66
3518.00,98.68
3517.00,98.68
3516.00,98.69
3515.00,98.69
3514.00,98.69
3513.00,98.69
3512.00,98.69
3511.00,98.67
3510.00,98.64
3509.00,98.61
3508.00,98.61
3507.00,98.62
3506.00,98.64
3505.00,98.65
3504.00,98.64
3503.00,98.63
3502.00,98.63
3501.00,98.64
3500.00,98.66
3499.00,98.67
3498.00,98.68
3497.00,98.66
3496.00,98.64
3495.00,98.62
3494.00,98.63
3493.00,98.65
3492.00,98.67
3491.00,98.69
3490.00,98.69
3489.00,98.68
3488.00,98.68
3487.00,98.68
3486.00,98.69
3485.00,98.69
3484.00,98.69
3483.00,98.68
3482.00,98.68
3481.00,98.67
3480.00,98.67
3479.00,98.66
3478.00,98.65
3477.00,98.65
3476.00,98.65
3475.00,98.67
3474.00,98.69
3473.00,98.72
3472.00,98.73
3471.00,98.72
3470.00,98.71
3469.00,98.71
3468.00,98.72
3467.00,98.72
3466.00,98.72
3465.00,98.72
3464.00,98.71
3463.00,98.70
3462.00,98.69
3461.00,98.68
3460.00,98.67
3459.00,98.67
3458.00,98.66
3457.00,98.65
3456.00,98.65
3455.00,98.66
3454.00,98.67
3453.00,98.67
3452.00,98.66
3451.00,98.66
3450.00,98.68
3449.00,98.71
3448.00,98.74
3447.00,98.74
3446.00,98.72
3445.00,98.70
3444.00,98.68
3443.00,98.69
3442.00,98.70
3441.00,98.71
3440.00,98.71
3439.00,98.69
3438.00,98.66
3437.00,98.65
3436.00,98.64
3435.00,98.64
3434.00,98.65
3433.00,98.66
3432.00,98.67
3431.00,98.66
3430.00,98.65
3429.00,98.64
3428.00,98.63
3427.00,98.64
3426.00,98.67
3425.00,98.69
3424.00,98.70
3423.00,98.69
3422.00,98.68
3421.00,98.68
3420.00,98.67
3419.00,98.66
3418.00,98.65
3417.00,98.65
3416.00,98.67
3415.00,98.69
3414.00,98.70
3413.00,98.69
3412.00,98.67
3411.00,98.66
3410.00,98.67
3409.00,98.68
3408.00,98.70
3407.00,98.71
3406.00,98.70
3405.00,98.70
3404.00,98.70
3403.00,98.70
3402.00,98.70
3401.00,98.70
3400.00,98.68
3399.00,98.67
3398.00,98.66
3397.00,98.67
3396.00,98.70
3395.00,98.73
3394.00,98.75
3393.00,98.76
3392.00,98.76
3391.00,98.75
3390.00,98.74
3389.00,98.73
3388.00,98.71
3387.00,98.69
3386.00,98.66
3385.00,98.63
3384.00,98.60
3383.00,98.60
3382.00,98.62
3381.00,98.65
3380.00,98.68
3379.00,98.70
3378.00,98.71
3377.00,98.72
3376.00,98.72
3375.00,98.72
3374.00,98.71
3373.00,98.69
3372.00,98.68
3371.00,98.66
3370.00,98.65
3369.00,98.65
3368.00,98.64
3367.00,98.64
3366.00,98.64
3365.00,98.65
3364.00,98.66
3363.00,98.66
3362.00,98.67
3361.00,98.67
3360.00,98.68
3359.00,98.69
3358.00,98.70
3357.00,98.71
3356.00,98.70
3355.00,98.67
3354.00,98.65
3353.00,98.64
3352.00,98.64
3351.00,98.66
3350.00,98.68
3349.00,98.70
3348.00,98.72
3347.00,98.73
3346.00,98.73
3345.00,98.72
3344.00,98.70
3343.00,98.68
3342.00,98.67
3341.00,98.66
3340.00,98.66
3339.00,98.66
3338.00,98.66
3337.00,98.66
3336.00,98.65
3335.00,98.65
3334.00,98.66
3333.00,98.68
3332.00,98.70
3331.00,98.72
3330.00,98.72
3329.00,98.71
3328.00,98.69
3327.00,98.68
3326.00,98.68
3325.00,98.68
3324.00,98.69
3323.00,98.68
3322.00,98.67
3321.00,98.67
3320.00,98.68
3319.00,98.69
3318.00,98.70
3317.00,98.70
3316.00,98.70
3315.00,98.71
3314.00,98.71
3313.00,98.72
3312.00,98.71
3311.00,98.70
3310.00,98.70
3309.00,98.71
3308.00,98.73
3307.00,98.73
3306.00,98.71
3305.00,98.67
3304.00,98.65
3303.00,98.64
3302.00,98.64
3301.00,98.65
3300.00,98.65
3299.00,98.65
3298.00,98.66
3297.00,98.65
3296.00,98.65
3295.00,98.64
3294.00,98.62
3293.00,98.62
3292.00,98.61
3291.00,98.62
3290.00,98.63
3289.00,98.64
3288.00,98.65
3287.00,98.67
3286.00,98.68
3285.00,98.68
3284.00,98.68
3283.00,98.67
3282.00,98.65
3281.00,98.64
3280.00,98.63
3279.00,98.61
3278.00,98.60
3277.00,98.60
3276.00,98.61
3275.00,98.62
3274.00,98.62
3273.00,98.61
3272.00,98.59
3271.00,98.58
3270.00,98.58
3269.00,98.60
3268.00,98.61
3267.00,98.63
3266.00,98.65
3265.00,98.66
3264.00,98.66
3263.00,98.65
3262.00,98.65
3261.00,98.66
3260.00,98.66
3259.00,98.66
3258.00,98.65
3257.00,98.64
3256.00,98.63
3255.00,98.62
3254.00,98.63
3253.00,98.65
3252.00,98.66
3251.00,98.66
3250.00,98.65
3249.00,98.63
3248.00,98.62
3247.00,98.62
3246.00,98.62
3245.00,98.62
3244.00,98.63
3243.00,98.64
3242.00,98.65
3241.00,98.67
3240.00,98.68
3239.00,98.67
3238.00,98.65
3237.00,98.63
3236.00,98.62
3235.00,98.63
3234.00,98.64
3233.00,98.66
3232.00,98.67
3231.00,98.67
3230.00,98.66
3229.00,98.66
3228.00,98.65
3227.00,98.65
3226.00,98.65
3225.00,98.63
3224.00,98.61
3223.00,98.59
3222.00,98.59
3221.00,98.61
3220.00,98.64
3219.00,98.65
3218.00,98.65
3217.00,98.63
3216.00,98.61
3215.00,98.59
3214.00,98.59
3213.00,98.59
3212.00,98.60
3211.00,98.61
3210.00,98.62
3209.00,98.63
3208.00,98.65
3207.00,98.67
3206.00,98.68
3205.00,98.68
3204.00,98.68
3203.00,98.68
3202.00,98.68
3201.00,98.68
3200.00,98.67
3199.00,98.65
3198.00,98.64
3197.00,98.63
3196.00,98.63
3195.00,98.63
3194.00,98.63
3193.00,98.63
3192.00,98.64
3191.00,98.66
3190.00,98.66
3189.00,98.65
3188.00,98.64
3187.00,98.64
3186.00,98.63
3185.00,98.62
3184.00,98.60
3183.00,98.59
3182.00,98.58
3181.00,98.58
3180.00,98.59
3179.00,98.61
3178.00,98.62
3177.00,98.62
3176.00,98.60
3175.00,98.58
3174.00,98.58
3173.00,98.60
3172.00,98.63
3171.00,98.66
3170.00,98.68
3169.00,98.68
3168.00,98.68
3167.00,98.67
3166.00,98.67
3165.00,98.66
3164.00,98.65
3163.00,98.63
3162.00,98.62
3161.00,98.62
3160.00,98.64
3159.00,98.67
3158.00,98.70
3157.00,98.71
3156.00,98.71
3155.00,98.71
3154.00,98.70
3153.00,98.69
3152.00,98.68
3151.00,98.67
3150.00,98.67
3149.00,98.67
3148.00,98.66
3147.00,98.66
3146.00,98.67
3145.00,98.67
3144.00,98.68
3143.00,98.68
3142.00,98.68
3141.00,98.68
3140.00,98.69
3139.00,98.68
3138.00,98.68
3137.00,98.69
3136.00,98.68
3135.00,98.67
3134.00,98.66
3133.00,98.66
3132.00,98.66
3131.00,98.67
3130.00,98.66
3129.00,98.65
3128.00,98.64
3127.00,98.63
3126.00,98.64
3125.00,98.65
3124.00,98.67
3123.00,98.67
3122.00,98.67
3121.00,98.67
3120.00,98.68
3119.00,98.69
3118.00,98.69
3117.00,98.68
3116.00,98.67
3115.00,98.66
3114.00,98.66
3113.00,98.66
3112.00,98.68
3111.00,98.69
3110.00,98.70
3109.00,98.69
3108.00,98.66
3107.00,98.64
3106.00,98.63
3105.00,98.63
3104.00,98.65
3103.00,98.67
3102.00,98.67
3101.00,98.66
3100.00,98.65
3099.00,98.64
3098.00,98.64
3097.00,98.64
3096.00,98.65
3095.00,98.66
3094.00,98.67
3093.00,98.68
3092.00,98.67
3091.00,98.65
3090.00,98.62
3089.00,98.60
3088.00,98.59
3087.00,98.59
3086.00,98.59
3085.00,98.61
3084.00,98.63
3083.00,98.65
3082.00,98.67
3081.00,98.67
3080.00,98.66
3079.00,98.64
3078.00,98.63
3077.00,98.62
3076.00,98.62
3075.00,98.61
3074.00,98.61
3073.00,98.61
3072.00,98.62
3071.00,98.63
3070.00,98.64
3069.00,98.63
3068.00,98.62
3067.00,98.61
3066.00,98.61
3065.00,98.61
3064.00,98.62
3063.00,98.62
3062.00,98.63
3061.00,98.63
3060.00,98.64
3059.00,98.64
3058.00,98.64
3057.00,98.64
3056.00,98.64
3055.00,98.64
3054.00,98.65
3053.00,98.65
3052.00,98.65
3051.00,98.64
3050.00,98.63
3049.00,98.61
3048.00,98.61
3047.00,98.62
3046.00,98.64
3045.00,98.66
3044.00,98.67
3043.00,98.66
3042.00,98.65
3041.00,98.64
3040.00,98.64
3039.00,98.64
3038.00,98.64
3037.00,98.64
3036.00,98.62
3035.00,98.62
3034.00,98.63
3033.00,98.64
3032.00,98.66
3031.00,98.67
3030.00,98.67
3029.00,98.66
3028.00,98.64
3027.00,98.62
3026.00,98.61
3025.00,98.60
3024.00,98.59
3023.00,98.59
3022.00,98.59
3021.00,98.59
3020.00,98.60
3019.00,98.60
3018.00,98.61
3017.00,98.61
3016.00,98.60
3015.00,98.60
3014.00,98.58
3013.00,98.57
3012.00,98.57
3011.00,98.58
3010.00,98.58
3009.00,98.58
3008.00,98.57
3007.00,98.56
3006.00,98.55
3005.00,98.55
3004.00,98.55
3003.00,98.55
3002.00,98.55
3001.00,98.55
3000.00,98.55
2999.00,98.54
2998.00,98.53
2997.00,98.52
2996.00,98.51
2995.00,98.50
2994.00,98.50
2993.00,98.50
2992.00,98.49
2991.00,98.48
2990.00,98.47
2989.00,98.46
2988.00,98.45
2987.00,98.43
2986.00,98.41
2985.00,98.40
2984.00,98.38
2983.00,98.36
2982.00,98.34
2981.00,98.32
2980.00,98.30
2979.00,98.28
2978.00,98.26
2977.00,98.23
2976.00,98.21
2975.00,98.19
2974.00,98.17
2973.00,98.17
2972.00,98.16
2971.00,98.14
2970.00,98.10
2969.00,98.06
2968.00,98.03
2967.00,98.01
2966.00,98.00
2965.00,97.99
2964.00,97.96
2963.00,97.92
2962.00,97.88
2961.00,97.85
2960.00,97.84
2959.00,97.82
2958.00,97.82
2957.00,97.81
2956.00,97.81
2955.00,97.81
2954.00,97.80
2953.00,97.80
2952.00,97.81
2951.00,97.82
2950.00,97.82
2949.00,97.81
2948.00,97.79
2947.00,97.76
2946.00,97.72
2945.00,97.68
2944.00,97.65
2943.00,97.63
2942.00,97.61
2941.00,97.60
2940.00,97.60
2939.00,97.58
2938.00,97.55
2937.00,97.52
2936.00,97.50
2935.00,97.48
2934.00,97.46
2933.00,97.44
2932.00,97.41
2931.00,97.38
2930.00,97.36
2929.00,97.34
2928.00,97.33
2927.00,97.31
2926.00,97.30
2925.00,97.30
2924.00,97.31
2923.00,97.32
2922.00,97.32
2921.00,97.32
2920.00,97.31
2919.00,97.31
2918.00,97.33
2917.00,97.37
2916.00,97.42
2915.00,97.46
2914.00,97.50
2913.00,97.53
2912.00,97.57
2911.00,97.61
2910.00,97.66
2909.00,97.72
2908.00,97.77
2907.00,97.81
2906.00,97.84
2905.00,97.88
2904.00,97.93
2903.00,97.97
2902.00,98.00
2901.00,98.03
2900.00,98.07
2899.00,98.10
2898.00,98.14
2897.00,98.16
2896.00,98.18
2895.00,98.19
2894.00,98.20
2893.00,98.20
2892.00,98.21
2891.00,98.22
2890.00,98.23
2889.00,98.23
2888.00,98.24
2887.00,98.25
2886.00,98.27
2885.00,98.28
2884.00,98.28
2883.00,98.27
2882.00,98.26
2881.00,98.24
2880.00,98.24
2879.00,98.24
2878.00,98.26
2877.00,98.28
2876.00,98.29
2875.00,98.29
2874.00,98.28
2873.00,98.27
2872.00,98.26
2871.00,98.25
2870.00,98.25
2869.00,98.25
2868.00,98.26
2867.00,98.27
2866.00,98.29
2865.00,98.30
2864.00,98.30
2863.00,98.29
2862.00,98.28
2861.00,98.27
2860.00,98.27
2859.00,98.27
2858.00,98.27
2857.00,98.27
2856.00,98.26
2855.00,98.26
2854.00,98.26
2853.00,98.26
2852.00,98.26
2851.00,98.26
2850.00,98.26
2849.00,98.27
2848.00,98.30
2847.00,98.33
2846.00,98.36
2845.00,98.37
2844.00,98.37
2843.00,98.37
2842.00,98.37
2841.00,98.38
2840.00,98.39
2839.00,98.41
2838.00,98.43
2837.00,98.45
2836.00,98.46
2835.00,98.46
2834.00,98.47
2833.00,98.49
2832.00,98.52
2831.00,98.54
2830.00,98.55
2829.00,98.54
2828.00,98.52
2827.00,98.50
2826.00,98.49
2825.00,98.49
2824.00,98.48
2823.00,98.48
2822.00,98.48
2821.00,98.49
2820.00,98.51
2819.00,98.53
2818.00,98.55
2817.00,98.57
2816.00,98.58
2815.00,98.59
2814.00,98.60
2813.00,98.61
2812.00,98.60
2811.00,98.59
2810.00,98.58
2809.00,98.58
2808.00,98.59
2807.00,98.59
2806.00,98.58
2805.00,98.57
2804.00,98.56
2803.00,98.57
2802.00,98.58
2801.00,98.59
2800.00,98.59
2799.00,98.58
2798.00,98.57
2797.00,98.56
2796.00,98.56
2795.00,98.56
2794.00,98.57
2793.00,98.58
2792.00,98.58
2791.00,98.59
2790.00,98.59
2789.00,98.61
2788.00,98.62
2787.00,98.63
2786.00,98.62
2785.00,98.62
2784.00,98.62
2783.00,98.62
2782.00,98.61
2781.00,98.60
2780.00,98.60
2779.00,98.61
2778.00,98.61
2777.00,98.62
2776.00,98.63
2775.00,98.64
2774.00,98.65
2773.00,98.65
2772.00,98.64
2771.00,98.63
2770.00,98.63
2769.00,98.64
2768.00,98.65
2767.00,98.66
2766.00,98.67
2765.00,98.66
2764.00,98.65
2763.00,98.64
2762.00,98.62
2761.00,98.62
2760.00,98.61
2759.00,98.62
2758.00,98.62
2757.00,98.62
2756.00,98.63
2755.00,98.63
2754.00,98.63
2753.00,98.63
2752.00,98.62
2751.00,98.62
2750.00,98.62
2749.00,98.62
2748.00,98.62
2747.00,98.62
2746.00,98.62
2745.00,98.62
2744.00,98.62
2743.00,98.63
2742.00,98.63
2741.00,98.63
2740.00,98.63
2739.00,98.63
2738.00,98.61
2737.00,98.60
2736.00,98.60
2735.00,98.61
2734.00,98.63
2733.00,98.64
2732.00,98.64
2731.00,98.64
2730.00,98.63
2729.00,98.62
2728.00,98.61
2727.00,98.60
2726.00,98.60
2725.00,98.60
2724.00,98.61
2723.00,98.61
2722.00,98.61
2721.00,98.61
2720.00,98.62
2719.00,98.63
2718.00,98.63
2717.00,98.63
2716.00,98.63
2715.00,98.64
2714.00,98.64
2713.00,98.63
2712.00,98.61
2711.00,98.61
2710.00,98.60
2709.00,98.60
2708.00,98.61
2707.00,98.62
2706.00,98.62
2705.00,98.61
2704.00,98.60
2703.00,98.60
2702.00,98.60
2701.00,98.61
2700.00,98.61
2699.00,98.61
2698.00,98.61
2697.00,98.60
2696.00,98.60
2695.00,98.60
2694.00,98.61
2693.00,98.61
2692.00,98.60
2691.00,98.60
2690.00,98.59
2689.00,98.58
2688.00,98.58
2687.00,98.58
2686.00,98.58
2685.00,98.59
2684.00,98.59
2683.00,98.59
2682.00,98.60
2681.00,98.60
2680.00,98.60
2679.00,98.59
2678.00,98.58
2677.00,98.58
2676.00,98.59
2675.00,98.59
2674.00,98.60
2673.00,98.61
2672.00,98.61
2671.00,98.61
2670.00,98.61
2669.00,98.61
2668.00,98.61
2667.00,98.60
2666.00,98.59
2665.00,98.58
2664.00,98.58
2663.00,98.57
2662.00,98.57
2661.00,98.56
2660.00,98.54
2659.00,98.53
2658.00,98.52
2657.00,98.51
2656.00,98.51
2655.00,98.51
2654.00,98.50
2653.00,98.48
2652.00,98.45
2651.00,98.43
2650.00,98.42
2649.00,98.42
2648.00,98.42
2647.00,98.42
2646.00,98.42
2645.00,98.41
2644.00,98.40
2643.00,98.38
2642.00,98.36
2641.00,98.34
2640.00,98.33
2639.00,98.33
2638.00,98.33
2637.00,98.32
2636.00,98.31
2635.00,98.29
2634.00,98.28
2633.00,98.27
2632.00,98.26
2631.00,98.25
2630.00,98.24
2629.00,98.22
2628.00,98.20
2627.00,98.19
2626.00,98.19
2625.00,98.20
2624.00,98.19
2623.00,98.19
2622.00,98.20
2621.00,98.20
2620.00,98.20
2619.00,98.19
2618.00,98.17
2617.00,98.15
2616.00,98.13
2615.00,98.12
2614.00,98.11
2613.00,98.10
2612.00,98.09
2611.00,98.09
2610.00,98.09
2609.00,98.09
2608.00,98.08
2607.00,98.07
2606.00,98.07
2605.00,98.07
2604.00,98.07
2603.00,98.07
2602.00,98.07
2601.00,98.07
2600.00,98.06
2599.00,98.04
2598.00,98.02
2597.00,98.00
2596.00,97.99
2595.00,97.99
2594.00,97.98
2593.00,97.97
2592.00,97.96
2591.00,97.94
2590.00,97.93
2589.00,97.91
2588.00,97.91
2587.00,97.92
2586.00,97.93
2585.00,97.94
2584.00,97.93
2583.00,97.90
2582.00,97.87
2581.00,97.85
2580.00,97.83
2579.00,97.84
2578.00,97.85
2577.00,97.87
2576.00,97.88
2575.00,97.89
2574.00,97.88
2573.00,97.86
2572.00,97.84
2571.00,97.82
2570.00,97.81
2569.00,97.81
2568.00,97.83
2567.00,97.84
2566.00,97.86
2565.00,97.86
2564.00,97.86
2563.00,97.85
2562.00,97.85
2561.00,97.83
2560.00,97.81
2559.00,97.79
2558.00,97.79
2557.00,97.80
2556.00,97.82
2555.00,97.83
2554.00,97.82
2553.00,97.81
2552.00,97.79
2551.00,97.79
2550.00,97.79
2549.00,97.81
2548.00,97.82
2547.00,97.82
2546.00,97.80
2545.00,97.78
2544.00,97.76
2543.00,97.74
2542.00,97.72
2541.00,97.70
2540.00,97.69
2539.00,97.69
2538.00,97.71
2537.00,97.74
2536.00,97.76
2535.00,97.78
2534.00,97.79
2533.00,97.77
2532.00,97.74
2531.00,97.71
2530.00,97.70
2529.00,97.71
2528.00,97.72
2527.00,97.73
2526.00,97.74
2525.00,97.75
2524.00,97.75
2523.00,97.73
2522.00,97.72
2521.00,97.70
2520.00,97.69
2519.00,97.67
2518.00,97.66
2517.00,97.67
2516.00,97.69
2515.00,97.72
2514.00,97.74
2513.00,97.75
2512.00,97.75
2511.00,97.73
2510.00,97.70
2509.00,97.67
2508.00,97.67
2507.00,97.68
2506.00,97.71
2505.00,97.74
2504.00,97.76
2503.00,97.76
2502.00,97.75
2501.00,97.75
2500.00,97.76
2499.00,97.77
2498.00,97.79
2497.00,97.80
2496.00,97.81
2495.00,97.81
2494.00,97.81
2493.00,97.80
2492.00,97.79
2491.00,97.77
2490.00,97.75
2489.00,97.73
2488.00,97.72
2487.00,97.72
2486.00,97.73
2485.00,97.74
2484.00,97.75
2483.00,97.76
2482.00,97.78
2481.00,97.80
2480.00,97.81
2479.00,97.80
2478.00,97.79
2477.00,97.78
2476.00,97.77
2475.00,97.74
2474.00,97.72
2473.00,97.71
2472.00,97.71
2471.00,97.73
2470.00,97.74
2469.00,97.75
2468.00,97.76
2467.00,97.77
2466.00,97.77
2465.00,97.76
2464.00,97.77
2463.00,97.78
2462.00,97.79
2461.00,97.79
2460.00,97.78
2459.00,97.75
2458.00,97.73
2457.00,97.72
2456.00,97.71
2455.00,97.72
2454.00,97.73
2453.00,97.75
2452.00,97.75
2451.00,97.75
2450.00,97.73
2449.00,97.72
2448.00,97.72
2447.00,97.73
2446.00,97.73
2445.00,97.73
2444.00,97.72
2443.00,97.72
2442.00,97.72
2441.00,97.73
2440.00,97.75
2439.00,97.77
2438.00,97.79
2437.00,97.80
2436.00,97.80
2435.00,97.79
2434.00,97.78
2433.00,97.77
2432.00,97.78
2431.00,97.79
2430.00,97.78
2429.00,97.77
2428.00,97.75
2427.00,97.75
2426.00,97.77
2425.00,97.80
2424.00,97.81
2423.00,97.81
2422.00,97.78
2421.00,97.75
2420.00,97.74
2419.00,97.75
2418.00,97.79
2417.00,97.83
2416.00,97.86
2415.00,97.85
2414.00,97.83
2413.00,97.81
2412.00,97.81
2411.00,97.82
2410.00,97.83
2409.00,97.84
2408.00,97.83
2407.00,97.83
2406.00,97.83
2405.00,97.84
2404.00,97.86
2403.00,97.87
2402.00,97.88
2401.00,97.89
2400.00,97.91
2399.00,97.94
2398.00,97.95
2397.00,97.96
2396.00,97.97
2395.00,97.97
2394.00,97.96
2393.00,97.94
2392.00,97.93
2391.00,97.92
2390.00,97.93
2389.00,97.95
2388.00,97.98
2387.00,98.03
2386.00,98.07
2385.00,98.11
2384.00,98.13
2383.00,98.14
2382.00,98.16
2381.00,98.18
2380.00,98.21
2379.00,98.26
2378.00,98.30
2377.00,98.34
2376.00,98.35
2375.00,98.34
2374.00,98.32
2373.00,98.29
2372.00,98.27
2371.00,98.27
2370.00,98.28
2369.00,98.31
2368.00,98.33
2367.00,98.35
2366.00,98.34
2365.00,98.32
2364.00,98.31
2363.00,98.33
2362.00,98.36
2361.00,98.36
2360.00,98.35
2359.00,98.37
2358.00,98.42
2357.00,98.48
2356.00,98.50
2355.00,98.46
2354.00,98.39
2353.00,98.34
2352.00,98.36
2351.00,98.42
2350.00,98.50
2349.00,98.54
2348.00,98.54
2347.00,98.50
2346.00,98.44
2345.00,98.38
2344.00,98.34
2343.00,98.32
2342.00,98.30
2341.00,98.27
2340.00,98.25
2339.00,98.26
2338.00,98.29
2337.00,98.31
2336.00,98.30
2335.00,98.29
2334.00,98.29
2333.00,98.31
2332.00,98.33
2331.00,98.34
2330.00,98.33
2329.00,98.31
2328.00,98.28
2327.00,98.22
2326.00,98.14
2325.00,98.06
2324.00,98.00
2323.00,97.99
2322.00,98.00
2321.00,98.02
2320.00,98.02
2319.00,98.00
2318.00,97.99
2317.00,97.97
2316.00,97.96
2315.00,97.93
2314.00,97.90
2313.00,97.85
2312.00,97.81
2311.00,97.77
2310.00,97.76
2309.00,97.77
2308.00,97.77
2307.00,97.76
2306.00,97.74
2305.00,97.72
2304.00,97.69
2303.00,97.66
2302.00,97.64
2301.00,97.65
2300.00,97.66
2299.00,97.67
2298.00,97.66
2297.00,97.63
2296.00,97.59
2295.00,97.57
2294.00,97.53
2293.00,97.49
2292.00,97.44
2291.00,97.41
2290.00,97.39
2289.00,97.40
2288.00,97.40
2287.00,97.39
2286.00,97.36
2285.00,97.34
2284.00,97.31
2283.00,97.29
2282.00,97.25
2281.00,97.19
2280.00,97.14
2279.00,97.11
2278.00,97.10
2277.00,97.10
2276.00,97.09
2275.00,97.08
2274.00,97.05
2273.00,97.01
2272.00,96.96
2271.00,96.90
2270.00,96.87
2269.00,96.88
2268.00,96.89
2267.00,96.89
2266.00,96.86
2265.00,96.81
2264.00,96.77
2263.00,96.74
2262.00,96.72
2261.00,96.69
2260.00,96.66
2259.00,96.62
2258.00,96.57
2257.00,96.54
2256.00,96.49
2255.00,96.41
2254.00,96.29
2253.00,96.13
2252.00,95.96
2251.00,95.78
2250.00,95.60
2249.00,95.40
2248.00,95.17
2247.00,94.93
2246.00,94.69
2245.00,94.46
2244.00,94.26
2243.00,94.11
2242.00,94.02
2241.00,94.01
2240.00,94.08
2239.00,94.23
2238.00,94.43
2237.00,94.66
2236.00,94.91
2235.00,95.14
2234.00,95.35
2233.00,95.52
2232.00,95.66
2231.00,95.77
2230.00,95.85
2229.00,95.92
2228.00,95.95
2227.00,95.97
2226.00,95.99
2225.00,96.03
2224.00,96.09
2223.00,96.12
2222.00,96.11
2221.00,96.08
2220.00,96.07
2219.00,96.07
2218.00,96.07
2217.00,96.07
2216.00,96.06
2215.00,96.05
2214.00,96.05
2213.00,96.03
2212.00,95.99
2211.00,95.92
2210.00,95.84
2209.00,95.81
2208.00,95.83
2207.00,95.88
2206.00,95.92
2205.00,95.91
2204.00,95.86
2203.00,95.80
2202.00,95.75
2201.00,95.72
2200.00,95.71
2199.00,95.69
2198.00,95.65
2197.00,95.60
2196.00,95.54
2195.00,95.47
2194.00,95.42
2193.00,95.41
2192.00,95.42
2191.00,95.44
2190.00,95.46
2189.00,95.52
2188.00,95.56
2187.00,95.54
2186.00,95.45
2185.00,95.38
2184.00,95.36
2183.00,95.38
2182.00,95.40
2181.00,95.39
2180.00,95.38
2179.00,95.39
2178.00,95.40
2177.00,95.37
2176.00,95.31
2175.00,95.25
2174.00,95.23
2173.00,95.25
2172.00,95.27
2171.00,95.23
2170.00,95.16
2169.00,95.08
2168.00,95.04
2167.00,95.00
2166.00,94.94
2165.00,94.83
2164.00,94.70
2163.00,94.59
2162.00,94.52
2161.00,94.53
2160.00,94.63
2159.00,94.80
2158.00,95.01
2157.00,95.19
2156.00,95.30
2155.00,95.35
2154.00,95.38
2153.00,95.40
2152.00,95.43
2151.00,95.45
2150.00,95.49
2149.00,95.57
2148.00,95.68
2147.00,95.79
2146.00,95.85
2145.00,95.90
2144.00,95.96
2143.00,96.06
2142.00,96.17
2141.00,96.26
2140.00,96.30
2139.00,96.30
2138.00,96.30
2137.00,96.30
2136.00,96.34
2135.00,96.42
2134.00,96.51
2133.00,96.58
2132.00,96.63
2131.00,96.66
2130.00,96.68
2129.00,96.69
2128.00,96.69
2127.00,96.70
2126.00,96.72
2125.00,96.73
2124.00,96.74
2123.00,96.76
2122.00,96.78
2121.00,96.80
2120.00,96.81
2119.00,96.80
2118.00,96.79
2117.00,96.78
2116.00,96.77
2115.00,96.75
2114.00,96.76
2113.00,96.79
2112.00,96.82
2111.00,96.83
2110.00,96.80
2109.00,96.74
2108.00,96.69
2107.00,96.67
2106.00,96.69
2105.00,96.72
2104.00,96.76
2103.00,96.79
2102.00,96.79
2101.00,96.76
2100.00,96.72
2099.00,96.68
2098.00,96.66
2097.00,96.65
2096.00,96.67
2095.00,96.69
2094.00,96.73
2093.00,96.76
2092.00,96.78
2091.00,96.79
2090.00,96.80
2089.00,96.81
2088.00,96.82
2087.00,96.79
2086.00,96.75
2085.00,96.69
2084.00,96.64
2083.00,96.59
2082.00,96.57
2081.00,96.55
2080.00,96.54
2079.00,96.54
2078.00,96.54
2077.00,96.55
2076.00,96.57
2075.00,96.56
2074.00,96.55
2073.00,96.54
2072.00,96.52
2071.00,96.49
2070.00,96.45
2069.00,96.43
2068.00,96.43
2067.00,96.43
2066.00,96.42
2065.00,96.38
2064.00,96.35
2063.00,96.32
2062.00,96.31
2061.00,96.30
2060.00,96.27
2059.00,96.25
2058.00,96.22
2057.00,96.19
2056.00,96.17
2055.00,96.14
2054.00,96.11
2053.00,96.07
2052.00,96.00
2051.00,95.92
2050.00,95.83
2049.00,95.77
2048.00,95.74
2047.00,95.71
2046.00,95.70
2045.00,95.69
2044.00,95.67
2043.00,95.63
2042.00,95.58
2041.00,95.53
2040.00,95.49
2039.00,95.44
2038.00,95.37
2037.00,95.32
2036.00,95.31
2035.00,95.32
2034.00,95.29
2033.00,95.22
2032.00,95.14
2031.00,95.09
2030.00,95.08
2029.00,95.10
2028.00,95.11
2027.00,95.11
2026.00,95.10
2025.00,95.10
2024.00,95.12
2023.00,95.16
2022.00,95.20
2021.00,95.25
2020.00,95.28
2019.00,95.29
2018.00,95.26
2017.00,95.21
2016.00,95.16
2015.00,95.17
2014.00,95.23
2013.00,95.33
2012.00,95.41
2011.00,95.46
2010.00,95.47
2009.00,95.45
2008.00,95.43
2007.00,95.43
2006.00,95.45
2005.00,95.48
2004.00,95.50
2003.00,95.55
2002.00,95.61
2001.00,95.68
2000.00,95.74
1999.00,95.78
1998.00,95.81
1997.00,95.83
1996.00,95.83
1995.00,95.81
1994.00,95.81
1993.00,95.80
1992.00,95.79
1991.00,95.76
1990.00,95.73
1989.00,95.70
1988.00,95.65
1987.00,95.59
1986.00,95.55
1985.00,95.54
1984.00,95.52
1983.00,95.47
1982.00,95.37
1981.00,95.27
1980.00,95.21
1979.00,95.20
1978.00,95.23
1977.00,95.28
1976.00,95.34
1975.00,95.41
1974.00,95.47
1973.00,95.50
1972.00,95.49
1971.00,95.47
1970.00,95.47
1969.00,95.52
1968.00,95.56
1967.00,95.57
1966.00,95.57
1965.00,95.58
1964.00,95.62
1963.00,95.69
1962.00,95.79
1961.00,95.92
1960.00,96.03
1959.00,96.08
1958.00,96.10
1957.00,96.11
1956.00,96.13
1955.00,96.15
1954.00,96.18
1953.00,96.21
1952.00,96.24
1951.00,96.26
1950.00,96.28
1949.00,96.32
1948.00,96.38
1947.00,96.42
1946.00,96.44
1945.00,96.45
1944.00,96.46
1943.00,96.46
1942.00,96.45
1941.00,96.44
1940.00,96.46
1939.00,96.53
1938.00,96.62
1937.00,96.72
1936.00,96.78
1935.00,96.79
1934.00,96.77
1933.00,96.73
1932.00,96.72
1931.00,96.74
1930.00,96.78
1929.00,96.82
1928.00,96.84
1927.00,96.84
1926.00,96.83
1925.00,96.81
1924.00,96.80
1923.00,96.82
1922.00,96.86
1921.00,96.91
1920.00,96.95
1919.00,96.98
1918.00,97.00
1917.00,97.00
1916.00,96.99
1915.00,96.97
1914.00,96.96
1913.00,96.97
1912.00,96.99
1911.00,97.03
1910.00,97.06
1909.00,97.08
1908.00,97.10
1907.00,97.12
1906.00,97.13
1905.00,97.13
1904.00,97.13
1903.00,97.15
1902.00,97.17
1901.00,97.19
1900.00,97.19
1899.00,97.19
1898.00,97.18
1897.00,97.17
1896.00,97.17
1895.00,97.16
1894.00,97.17
1893.00,97.19
1892.00,97.22
1891.00,97.25
1890.00,97.27
1889.00,97.28
1888.00,97.28
1887.00,97.28
1886.00,97.27
1885.00,97.28
1884.00,97.29
1883.00,97.30
1882.00,97.31
1881.00,97.31
1880.00,97.33
1879.00,97.34
1878.00,97.35
1877.00,97.35
1876.00,97.35
1875.00,97.35
1874.00,97.36
1873.00,97.38
1872.00,97.39
1871.00,97.38
1870.00,97.36
1869.00,97.34
1868.00,97.32
1867.00,97.33
1866.00,97.35
1865.00,97.37
1864.00,97.39
1863.00,97.40
1862.00,97.41
1861.00,97.42
1860.00,97.44
1859.00,97.45
1858.00,97.46
1857.00,97.46
1856.00,97.45
1855.00,97.43
1854.00,97.43
1853.00,97.45
1852.00,97.48
1851.00,97.52
1850.00,97.53
1849.00,97.53
1848.00,97.51
1847.00,97.50
1846.00,97.50
1845.00,97.52
1844.00,97.54
1843.00,97.55
1842.00,97.56
1841.00,97.56
1840.00,97.57
1839.00,97.58
1838.00,97.57
1837.00,97.56
1836.00,97.53
1835.00,97.52
1834.00,97.53
1833.00,97.55
1832.00,97.57
1831.00,97.57
1830.00,97.57
1829.00,97.57
1828.00,97.59
1827.00,97.60
1826.00,97.62
1825.00,97.62
1824.00,97.62
1823.00,97.62
1822.00,97.62
1821.00,97.64
1820.00,97.66
1819.00,97.69
1818.00,97.72
1817.00,97.74
1816.00,97.75
1815.00,97.74
1814.00,97.74
1813.00,97.74
1812.00,97.75
1811.00,97.75
1810.00,97.75
1809.00,97.75
1808.00,97.76
1807.00,97.76
1806.00,97.76
1805.00,97.76
1804.00,97.75
1803.00,97.75
1802.00,97.76
1801.00,97.77
1800.00,97.77
1799.00,97.76
1798.00,97.75
1797.00,97.76
1796.00,97.77
1795.00,97.79
1794.00,97.79
1793.00,97.79
1792.00,97.79
1791.00,97.79
1790.00,97.80
1789.00,97.80
1788.00,97.80
1787.00,97.80
1786.00,97.81
1785.00,97.82
1784.00,97.84
1783.00,97.84
1782.00,97.84
1781.00,97.83
1780.00,97.82
1779.00,97.82
1778.00,97.83
1777.00,97.83
1776.00,97.84
1775.00,97.84
1774.00,97.83
1773.00,97.84
1772.00,97.85
1771.00,97.86
1770.00,97.84
1769.00,97.82
1768.00,97.79
1767.00,97.77
1766.00,97.77
1765.00,97.78
1764.00,97.80
1763.00,97.81
1762.00,97.81
1761.00,97.79
1760.00,97.78
1759.00,97.77
1758.00,97.76
1757.00,97.77
1756.00,97.76
1755.00,97.74
1754.00,97.72
1753.00,97.69
1752.00,97.67
1751.00,97.64
1750.00,97.61
1749.00,97.60
1748.00,97.60
1747.00,97.59
1746.00,97.57
1745.00,97.55
1744.00,97.53
1743.00,97.51
1742.00,97.49
1741.00,97.45
1740.00,97.41
1739.00,97.38
1738.00,97.34
1737.00,97.31
1736.00,97.27
1735.00,97.24
1734.00,97.23
1733.00,97.22
1732.00,97.20
1731.00,97.20
1730.00,97.21
1729.00,97.24
1728.00,97.27
1727.00,97.29
1726.00,97.30
1725.00,97.32
1724.00,97.34
1723.00,97.37
1722.00,97.38
1721.00,97.38
1720.00,97.37
1719.00,97.38
1718.00,97.41
1717.00,97.45
1716.00,97.50
1715.00,97.53
1714.00,97.55
1713.00,97.57
1712.00,97.58
1711.00,97.59
1710.00,97.60
1709.00,97.61
1708.00,97.61
1707.00,97.61
1706.00,97.61
1705.00,97.62
1704.00,97.63
1703.00,97.63
1702.00,97.63
1701.00,97.63
1700.00,97.63
1699.00,97.63
1698.00,97.63
1697.00,97.63
1696.00,97.65
1695.00,97.68
1694.00,97.70
1693.00,97.71
1692.00,97.70
1691.00,97.70
1690.00,97.69
1689.00,97.68
1688.00,97.68
1687.00,97.68
1686.00,97.69
1685.00,97.71
1684.00,97.71
1683.00,97.69
1682.00,97.67
1681.00,97.67
1680.00,97.68
1679.00,97.70
1678.00,97.71
1677.00,97.71
1676.00,97.71
1675.00,97.69
1674.00,97.68
1673.00,97.69
1672.00,97.69
1671.00,97.71
1670.00,97.71
1669.00,97.71
1668.00,97.70
1667.00,97.69
1666.00,97.68
1665.00,97.68
1664.00,97.68
1663.00,97.68
1662.00,97.67
1661.00,97.67
1660.00,97.66
1659.00,97.67
1658.00,97.67
1657.00,97.67
1656.00,97.66
1655.00,97.64
1654.00,97.64
1653.00,97.64
1652.00,97.64
1651.00,97.63
1650.00,97.62
1649.00,97.60
1648.00,97.59
1647.00,97.58
1646.00,97.58
1645.00,97.57
1644.00,97.55
1643.00,97.54
1642.00,97.53
1641.00,97.54
1640.00,97.55
1639.00,97.55
1638.00,97.54
1637.00,97.53
1636.00,97.53
1635.00,97.55
1634.00,97.55
1633.00,97.54
1632.00,97.52
1631.00,97.51
1630.00,97.49
1629.00,97.47
1628.00,97.45
1627.00,97.44
1626.00,97.43
1625.00,97.42
1624.00,97.43
1623.00,97.45
1622.00,97.47
1621.00,97.47
1620.00,97.47
1619.00,97.48
1618.00,97.49
1617.00,97.50
1616.00,97.51
1615.00,97.50
1614.00,97.50
1613.00,97.50
1612.00,97.51
1611.00,97.52
1610.00,97.54
1609.00,97.56
1608.00,97.57
1607.00,97.58
1606.00,97.59
1605.00,97.59
1604.00,97.60
1603.00,97.62
1602.00,97.63
1601.00,97.64
1600.00,97.64
1599.00,97.65
1598.00,97.65
1597.00,97.64
1596.00,97.64
1595.00,97.65
1594.00,97.66
1593.00,97.68
1592.00,97.70
1591.00,97.71
1590.00,97.73
1589.00,97.73
1588.00,97.72
1587.00,97.72
1586.00,97.73
1585.00,97.74
1584.00,97.75
1583.00,97.76
1582.00,97.76
1581.00,97.77
1580.00,97.78
1579.00,97.78
1578.00,97.78
1577.00,97.76
1576.00,97.75
1575.00,97.75
1574.00,97.75
1573.00,97.76
1572.00,97.76
1571.00,97.76
1570.00,97.77
1569.00,97.79
1568.00,97.81
1567.00,97.81
1566.00,97.80
1565.00,97.80
1564.00,97.79
1563.00,97.79
1562.00,97.78
1561.00,97.78
1560.00,97.78
1559.00,97.78
1558.00,97.79
1557.00,97.79
1556.00,97.79
1555.00,97.80
1554.00,97.80
1553.00,97.80
1552.00,97.80
1551.00,97.80
1550.00,97.80
1549.00,97.81
1548.00,97.80
1547.00,97.78
1546.00,97.77
1545.00,97.76
1544.00,97.79
1543.00,97.83
1542.00,97.87
1541.00,97.89
1540.00,97.88
1539.00,97.86
1538.00,97.83
1537.00,97.82
1536.00,97.81
1535.00,97.79
1534.00,97.79
1533.00,97.79
1532.00,97.79
1531.00,97.79
1530.00,97.79
1529.00,97.78
1528.00,97.78
1527.00,97.78
1526.00,97.79
1525.00,97.80
1524.00,97.81
1523.00,97.82
1522.00,97.82
1521.00,97.82
1520.00,97.81
1519.00,97.80
1518.00,97.78
1517.00,97.77
1516.00,97.77
1515.00,97.78
1514.00,97.78
1513.00,97.78
1512.00,97.78
1511.00,97.79
1510.00,97.80
1509.00,97.80
1508.00,97.80
1507.00,97.79
1506.00,97.78
1505.00,97.79
1504.00,97.79
1503.00,97.79
1502.00,97.79
1501.00,97.78
1500.00,97.78
1499.00,97.77
1498.00,97.76
1497.00,97.74
1496.00,97.72
1495.00,97.71
1494.00,97.69
1493.00,97.68
1492.00,97.67
1491.00,97.67
1490.00,97.67
1489.00,97.66
1488.00,97.66
1487.00,97.65
1486.00,97.65
1485.00,97.66
1484.00,97.66
1483.00,97.66
1482.00,97.66
1481.00,97.66
1480.00,97.66
1479.00,97.66
1478.00,97.67
1477.00,97.67
1476.00,97.67
1475.00,97.66
1474.00,97.64
1473.00,97.63
1472.00,97.62
1471.00,97.61
1470.00,97.60
1469.00,97.59
1468.00,97.59
1467.00,97.59
1466.00,97.57
1465.00,97.50
1464.00,97.41
1463.00,97.33
1462.00,97.25
1461.00,97.16
1460.00,97.05
1459.00,96.91
1458.00,96.70
1457.00,96.44
1456.00,96.19
1455.00,95.98
1454.00,95.78
1453.00,95.55
1452.00,95.31
1451.00,95.09
1450.00,94.89
1449.00,94.69
1448.00,94.49
1447.00,94.31
1446.00,94.14
1445.00,93.97
1444.00,93.79
1443.00,93.63
1442.00,93.49
1441.00,93.39
1440.00,93.33
1439.00,93.33
1438.00,93.37
1437.00,93.44
1436.00,93.55
1435.00,93.68
1434.00,93.85
1433.00,94.03
1432.00,94.25
1431.00,94.47
1430.00,94.69
1429.00,94.89
1428.00,95.08
1427.00,95.26
1426.00,95.42
1425.00,95.59
1424.00,95.75
1423.00,95.90
1422.00,96.02
1421.00,96.13
1420.00,96.24
1419.00,96.35
1418.00,96.45
1417.00,96.54
1416.00,96.61
1415.00,96.68
1414.00,96.75
1413.00,96.82
1412.00,96.89
1411.00,96.95
1410.00,97.00
1409.00,97.04
1408.00,97.07
1407.00,97.10
1406.00,97.13
1405.00,97.16
1404.00,97.19
1403.00,97.21
1402.00,97.22
1401.00,97.23
1400.00,97.23
1399.00,97.22
1398.00,97.20
1397.00,97.19
1396.00,97.16
1395.00,97.13
1394.00,97.09
1393.00,97.07
1392.00,97.05
1391.00,97.03
1390.00,97.00
1389.00,96.96
1388.00,96.91
1387.00,96.87
1386.00,96.83
1385.00,96.81
1384.00,96.79
1383.00,96.77
1382.00,96.73
1381.00,96.69
1380.00,96.65
1379.00,96.62
1378.00,96.59
1377.00,96.56
1376.00,96.52
1375.00,96.48
1374.00,96.43
1373.00,96.39
1372.00,96.34
1371.00,96.28
1370.00,96.21
1369.00,96.15
1368.00,96.08
1367.00,96.02
1366.00,95.96
1365.00,95.90
1364.00,95.84
1363.00,95.77
1362.00,95.71
1361.00,95.66
1360.00,95.61
1359.00,95.58
1358.00,95.55
1357.00,95.52
1356.00,95.50
1355.00,95.49
1354.00,95.50
1353.00,95.51
1352.00,95.54
1351.00,95.57
1350.00,95.61
1349.00,95.65
1348.00,95.68
1347.00,95.71
1346.00,95.75
1345.00,95.78
1344.00,95.81
1343.00,95.84
1342.00,95.87
1341.00,95.89
1340.00,95.91
1339.00,95.92
1338.00,95.91
1337.00,95.91
1336.00,95.91
1335.00,95.91
1334.00,95.91
1333.00,95.91
1332.00,95.90
1331.00,95.90
1330.00,95.89
1329.00,95.88
1328.00,95.88
1327.00,95.87
1326.00,95.88
1325.00,95.88
1324.00,95.88
1323.00,95.88
1322.00,95.88
1321.00,95.87
1320.00,95.87
1319.00,95.86
1318.00,95.83
1317.00,95.81
1316.00,95.78
1315.00,95.77
1314.00,95.77
1313.00,95.77
1312.00,95.76
1311.00,95.74
1310.00,95.73
1309.00,95.72
1308.00,95.71
1307.00,95.69
1306.00,95.67
1305.00,95.65
1304.00,95.63
1303.00,95.60
1302.00,95.57
1301.00,95.55
1300.00,95.52
1299.00,95.48
1298.00,95.45
1297.00,95.42
1296.00,95.38
1295.00,95.34
1294.00,95.31
1293.00,95.27
1292.00,95.25
1291.00,95.24
1290.00,95.22
1289.00,95.20
1288.00,95.18
1287.00,95.18
1286.00,95.20
1285.00,95.23
1284.00,95.25
1283.00,95.27
1282.00,95.28
1281.00,95.29
1280.00,95.30
1279.00,95.31
1278.00,95.32
1277.00,95.32
1276.00,95.32
1275.00,95.31
1274.00,95.28
1273.00,95.25
1272.00,95.21
1271.00,95.17
1270.00,95.13
1269.00,95.06
1268.00,94.99
1267.00,94.90
1266.00,94.82
1265.00,94.75
1264.00,94.69
1263.00,94.62
1262.00,94.55
1261.00,94.49
1260.00,94.44
1259.00,94.39
1258.00,94.37
1257.00,94.36
1256.00,94.37
1255.00,94.38
1254.00,94.40
1253.00,94.40
1252.00,94.40
1251.00,94.39
1250.00,94.39
1249.00,94.39
1248.00,94.40
1247.00,94.41
1246.00,94.42
1245.00,94.42
1244.00,94.41
1243.00,94.39
1242.00,94.39
1241.00,94.40
1240.00,94.43
1239.00,94.46
1238.00,94.50
1237.00,94.55
1236.00,94.61
1235.00,94.68
1234.00,94.74
1233.00,94.81
1232.00,94.88
1231.00,94.93
1230.00,94.99
1229.00,95.04
1228.00,95.08
1227.00,95.11
1226.00,95.11
1225.00,95.10
1224.00,95.08
1223.00,95.06
1222.00,95.03
1221.00,95.01
1220.00,94.99
1219.00,94.96
1218.00,94.93
1217.00,94.89
1216.00,94.84
1215.00,94.81
1214.00,94.80
1213.00,94.79
1212.00,94.78
1211.00,94.76
1210.00,94.75
1209.00,94.75
1208.00,94.75
1207.00,94.76
1206.00,94.77
1205.00,94.77
1204.00,94.78
1203.00,94.79
1202.00,94.79
1201.00,94.80
1200.00,94.81
1199.00,94.83
1198.00,94.86
1197.00,94.89
1196.00,94.93
1195.00,94.97
1194.00,95.01
1193.00,95.04
1192.00,95.06
1191.00,95.08
1190.00,95.10
1189.00,95.11
1188.00,95.12
1187.00,95.13
1186.00,95.14
1185.00,95.15
1184.00,95.16
1183.00,95.18
1182.00,95.20
1181.00,95.22
1180.00,95.23
1179.00,95.24
1178.00,95.24
1177.00,95.25
1176.00,95.28
1175.00,95.32
1174.00,95.35
1173.00,95.37
1172.00,95.39
1171.00,95.41
1170.00,95.46
1169.00,95.52
1168.00,95.58
1167.00,95.62
1166.00,95.66
1165.00,95.69
1164.00,95.72
1163.00,95.77
1162.00,95.83
1161.00,95.90
1160.00,95.96
1159.00,96.00
1158.00,96.01
1157.00,96.00
1156.00,95.99
1155.00,95.98
1154.00,95.99
1153.00,96.01
1152.00,96.02
1151.00,96.03
1150.00,96.05
1149.00,96.08
1148.00,96.12
1147.00,96.15
1146.00,96.17
1145.00,96.17
1144.00,96.17
1143.00,96.18
1142.00,96.21
1141.00,96.23
1140.00,96.27
1139.00,96.30
1138.00,96.33
1137.00,96.33
1136.00,96.30
1135.00,96.25
1134.00,96.18
1133.00,96.13
1132.00,96.09
1131.00,96.08
1130.00,96.07
1129.00,96.04
1128.00,96.00
1127.00,95.94
1126.00,95.87
1125.00,95.80
1124.00,95.72
1123.00,95.64
1122.00,95.57
1121.00,95.51
1120.00,95.45
1119.00,95.40
1118.00,95.34
1117.00,95.29
1116.00,95.25
1115.00,95.24
1114.00,95.23
1113.00,95.22
1112.00,95.20
1111.00,95.16
1110.00,95.14
1109.00,95.14
1108.00,95.14
1107.00,95.15
1106.00,95.13
1105.00,95.11
1104.00,95.09
1103.00,95.09
1102.00,95.11
1101.00,95.15
1100.00,95.20
1099.00,95.23
1098.00,95.25
1097.00,95.25
1096.00,95.25
1095.00,95.25
1094.00,95.25
1093.00,95.27
1092.00,95.30
1091.00,95.31
1090.00,95.30
1089.00,95.28
1088.00,95.27
1087.00,95.29
1086.00,95.32
1085.00,95.35
1084.00,95.36
1083.00,95.35
1082.00,95.32
1081.00,95.29
1080.00,95.29
1079.00,95.34
1078.00,95.39
1077.00,95.44
1076.00,95.45
1075.00,95.42
1074.00,95.38
1073.00,95.35
1072.00,95.33
1071.00,95.34
1070.00,95.35
1069.00,95.36
1068.00,95.34
1067.00,95.31
1066.00,95.27
1065.00,95.25
1064.00,95.23
1063.00,95.21
1062.00,95.18
1061.00,95.17
1060.00,95.17
1059.00,95.15
1058.00,95.12
1057.00,95.08
1056.00,95.04
1055.00,95.02
1054.00,95.03
1053.00,95.05
1052.00,95.05
1051.00,95.02
1050.00,94.95
1049.00,94.88
1048.00,94.84
1047.00,94.81
1046.00,94.78
1045.00,94.72
1044.00,94.67
1043.00,94.65
1042.00,94.63
1041.00,94.61
1040.00,94.58
1039.00,94.55
1038.00,94.52
1037.00,94.52
1036.00,94.53
1035.00,94.58
1034.00,94.65
1033.00,94.72
1032.00,94.77
1031.00,94.82
1030.00,94.87
1029.00,94.92
1028.00,94.98
1027.00,95.02
1026.00,95.06
1025.00,95.08
1024.00,95.09
1023.00,95.08
1022.00,95.07
1021.00,95.05
1020.00,95.05
1019.00,95.06
1018.00,95.07
1017.00,95.07
1016.00,95.05
1015.00,95.00
1014.00,94.92
1013.00,94.83
1012.00,94.75
1011.00,94.70
1010.00,94.67
1009.00,94.64
1008.00,94.61
1007.00,94.58
1006.00,94.57
1005.00,94.56
1004.00,94.54
1003.00,94.50
1002.00,94.46
1001.00,94.41
1000.00,94.38
999.00,94.37
998.00,94.37
997.00,94.37
996.00,94.38
995.00,94.38
994.00,94.36
993.00,94.35
992.00,94.35
991.00,94.37
990.00,94.41
989.00,94.46
988.00,94.49
987.00,94.50
986.00,94.51
985.00,94.51
984.00,94.52
983.00,94.54
982.00,94.56
981.00,94.59
980.00,94.62
979.00,94.67
978.00,94.73
977.00,94.79
976.00,94.84
975.00,94.88
974.00,94.90
973.00,94.91
972.00,94.91
971.00,94.91
970.00,94.92
969.00,94.93
968.00,94.94
967.00,94.94
966.00,94.93
965.00,94.92
964.00,94.92
963.00,94.95
962.00,95.00
961.00,95.06
960.00,95.09
959.00,95.09
958.00,95.08
957.00,95.07
956.00,95.08
955.00,95.10
954.00,95.11
953.00,95.11
952.00,95.12
951.00,95.14
950.00,95.17
949.00,95.18
948.00,95.18
947.00,95.20
946.00,95.22
945.00,95.26
944.00,95.29
943.00,95.30
942.00,95.30
941.00,95.30
940.00,95.31
939.00,95.33
938.00,95.36
937.00,95.39
936.00,95.40
935.00,95.39
934.00,95.38
933.00,95.39
932.00,95.42
931.00,95.45
930.00,95.47
929.00,95.46
928.00,95.44
927.00,95.44
926.00,95.46
925.00,95.48
924.00,95.49
923.00,95.49
922.00,95.48
921.00,95.45
920.00,95.43
919.00,95.41
918.00,95.41
917.00,95.41
916.00,95.42
915.00,95.43
914.00,95.46
913.00,95.48
912.00,95.49
911.00,95.48
910.00,95.46
909.00,95.45
908.00,95.44
907.00,95.45
906.00,95.49
905.00,95.53
904.00,95.55
903.00,95.55
902.00,95.55
901.00,95.57
900.00,95.59
899.00,95.61
898.00,95.61
897.00,95.60
896.00,95.56
895.00,95.53
894.00,95.51
893.00,95.51
892.00,95.51
891.00,95.52
890.00,95.53
889.00,95.54
888.00,95.54
887.00,95.53
886.00,95.52
885.00,95.52
884.00,95.54
883.00,95.56
882.00,95.58
881.00,95.59
880.00,95.59
879.00,95.60
878.00,95.61
877.00,95.62
876.00,95.63
875.00,95.62
874.00,95.60
873.00,95.58
872.00,95.57
871.00,95.57
870.00,95.59
869.00,95.62
868.00,95.66
867.00,95.69
866.00,95.71
865.00,95.71
864.00,95.70
863.00,95.71
862.00,95.72
861.00,95.73
860.00,95.73
859.00,95.73
858.00,95.75
857.00,95.79
856.00,95.83
855.00,95.86
854.00,95.87
853.00,95.88
852.00,95.88
851.00,95.87
850.00,95.86
849.00,95.86
848.00,95.85
847.00,95.82
846.00,95.79
845.00,95.79
844.00,95.83
843.00,95.89
842.00,95.93
841.00,95.95
840.00,95.96
839.00,95.98
838.00,96.01
837.00,96.05
836.00,96.11
835.00,96.18
834.00,96.24
833.00,96.26
832.00,96.26
831.00,96.25
830.00,96.24
829.00,96.22
828.00,96.20
827.00,96.19
826.00,96.21
825.00,96.26
824.00,96.29
823.00,96.29
822.00,96.25
821.00,96.22
820.00,96.20
819.00,96.21
818.00,96.22
817.00,96.21
816.00,96.19
815.00,96.17
814.00,96.15
813.00,96.12
812.00,96.07
811.00,96.02
810.00,95.99
809.00,95.99
808.00,96.00
807.00,96.01
806.00,96.02
805.00,96.03
804.00,96.05
803.00,96.06
802.00,96.08
801.00,96.08
800.00,96.08
799.00,96.07
798.00,96.07
797.00,96.07
796.00,96.07
795.00,96.03
794.00,95.99
793.00,95.96
792.00,95.95
791.00,95.97
790.00,96.00
789.00,96.01
788.00,96.01
787.00,95.98
786.00,95.92
785.00,95.86
784.00,95.81
783.00,95.77
782.00,95.74
781.00,95.73
780.00,95.73
779.00,95.75
778.00,95.78
777.00,95.81
776.00,95.81
775.00,95.82
774.00,95.83
773.00,95.84
772.00,95.83
771.00,95.79
770.00,95.75
769.00,95.74
768.00,95.76
767.00,95.81
766.00,95.87
765.00,95.92
764.00,95.96
763.00,95.99
762.00,96.01
761.00,96.03
760.00,96.04
759.00,96.04
758.00,96.03
757.00,96.04
756.00,96.07
755.00,96.11
754.00,96.16
753.00,96.22
752.00,96.28
751.00,96.34
750.00,96.37
749.00,96.38
748.00,96.39
747.00,96.41
746.00,96.43
745.00,96.44
744.00,96.43
743.00,96.41
742.00,96.39
741.00,96.38
740.00,96.39
739.00,96.41
738.00,96.44
737.00,96.49
736.00,96.52
735.00,96.54
734.00,96.55
733.00,96.55
732.00,96.54
731.00,96.52
730.00,96.53
729.00,96.56
728.00,96.61
727.00,96.65
726.00,96.65
725.00,96.63
724.00,96.59
723.00,96.53
722.00,96.46
721.00,96.40
720.00,96.38
719.00,96.38
718.00,96.37
717.00,96.33
716.00,96.27
715.00,96.19
714.00,96.08
713.00,95.97
712.00,95.89
711.00,95.84
710.00,95.78
709.00,95.67
708.00,95.52
707.00,95.37
706.00,95.24
705.00,95.13
704.00,95.04
703.00,94.95
702.00,94.84
701.00,94.72
700.00,94.62
699.00,94.59
698.00,94.59
697.00,94.59
696.00,94.57
695.00,94.51
694.00,94.44
693.00,94.37
692.00,94.31
691.00,94.31
690.00,94.38
689.00,94.49
688.00,94.57
687.00,94.59
686.00,94.54
685.00,94.47
684.00,94.41
683.00,94.39
682.00,94.41
681.00,94.48
680.00,94.59
679.00,94.69
678.00,94.75
677.00,94.74
676.00,94.71
675.00,94.68
674.00,94.69
673.00,94.72
672.00,94.75
671.00,94.81
670.00,94.88
669.00,94.95
668.00,94.92
667.00,94.84
666.00,94.83
665.00,94.88
664.00,94.89
663.00,94.85
662.00,94.74
661.00,94.64
660.00,94.55
659.00,94.47
658.00,94.34
657.00,94.17
656.00,94.00
655.00,93.89
654.00,93.85
653.00,93.80
652.00,93.70
651.00,93.51
650.00,93.29
649.00,93.08
648.00,92.94
647.00,92.88
646.00,92.83
645.00,92.73
644.00,92.57
643.00,92.39
642.00,92.22
641.00,92.03
640.00,91.84
639.00,91.67
638.00,91.51
637.00,91.25
636.00,90.88
635.00,90.52
634.00,90.30
633.00,90.26
632.00,90.32
631.00,90.40
630.00,90.42
629.00,90.31
628.00,90.03
627.00,89.66
626.00,89.29
625.00,89.06
624.00,89.03
623.00,89.19
622.00,89.37
621.00,89.36
620.00,89.12
619.00,88.83
618.00,88.71
617.00,88.77
616.00,88.91
615.00,89.04
614.00,89.13
613.00,89.19
612.00,89.23
611.00,89.28
610.00,89.35
609.00,89.36
608.00,89.23
607.00,89.00
606.00,88.79
605.00,88.74
604.00,88.84
603.00,88.96
602.00,88.94
601.00,88.80
600.00,88.84
599.00,89.26
598.00,89.91
597.00,90.43
596.00,90.70
595.00,90.89
594.00,91.20
593.00,91.55
592.00,91.77
591.00,91.74
590.00,91.53
589.00,91.29
588.00,91.25
587.00,91.56
586.00,92.18
585.00,92.88
584.00,93.57
583.00,94.24
582.00,94.79
581.00,94.97
580.00,94.76
579.00,94.44
578.00,94.35
577.00,94.42
576.00,94.31
575.00,93.87
574.00,93.34
573.00,93.05
572.00,93.12
571.00,93.54
570.00,94.08
569.00,94.37
568.00,94.21
567.00,93.78
566.00,93.49
565.00,93.59
564.00,93.95
563.00,94.27
562.00,94.33
561.00,94.26
560.00,94.30
559.00,94.54
558.00,94.70
557.00,94.46
556.00,93.96
555.00,93.63
554.00,93.76
553.00,94.13
552.00,94.36
551.00,94.35
550.00,94.25
