Created as New Dataset,72 Waxman Fibers
cm-1,%T
4000.00,100.63
3999.00,100.63
3998.00,100.64
3997.00,100.64
3996.00,100.63
3995.00,100.61
3994.00,100.59
3993.00,100.58
3992.00,100.57
3991.00,100.57
3990.00,100.57
3989.00,100.56
3988.00,100.55
3987.00,100.55
3986.00,100.57
3985.00,100.59
3984.00,100.61
3983.00,100.63
3982.00,100.63
3981.00,100.63
3980.00,100.63
3979.00,100.64
3978.00,100.64
3977.00,100.63
3976.00,100.62
3975.00,100.61
3974.00,100.60
3973.00,100.60
3972.00,100.61
3971.00,100.62
3970.00,100.63
3969.00,100.64
3968.00,100.63
3967.00,100.62
3966.00,100.59
3965.00,100.57
3964.00,100.56
3963.00,100.57
3962.00,100.58
3961.00,100.60
3960.00,100.60
3959.00,100.61
3958.00,100.62
3957.00,100.63
3956.00,100.64
3955.00,100.63
3954.00,100.62
3953.00,100.60
3952.00,100.59
3951.00,100.58
3950.00,100.59
3949.00,100.60
3948.00,100.62
3947.00,100.63
3946.00,100.63
3945.00,100.63
3944.00,100.63
3943.00,100.62
3942.00,100.61
3941.00,100.60
3940.00,100.59
3939.00,100.59
3938.00,100.58
3937.00,100.58
3936.00,100.58
3935.00,100.56
3934.00,100.54
3933.00,100.51
3932.00,100.50
3931.00,100.50
3930.00,100.51
3929.00,100.51
3928.00,100.51
3927.00,100.50
3926.00,100.50
3925.00,100.51
3924.00,100.52
3923.00,100.53
3922.00,100.54
3921.00,100.54
3920.00,100.55
3919.00,100.56
3918.00,100.57
3917.00,100.58
3916.00,100.58
3915.00,100.58
3914.00,100.56
3913.00,100.55
3912.00,100.55
3911.00,100.54
3910.00,100.54
3909.00,100.53
3908.00,100.53
3907.00,100.53
3906.00,100.54
3905.00,100.57
3904.00,100.59
3903.00,100.60
3902.00,100.60
3901.00,100.62
3900.00,100.64
3899.00,100.66
3898.00,100.67
3897.00,100.65
3896.00,100.62
3895.00,100.60
3894.00,100.58
3893.00,100.57
3892.00,100.59
3891.00,100.61
3890.00,100.62
3889.00,100.61
3888.00,100.59
3887.00,100.59
3886.00,100.59
3885.00,100.58
3884.00,100.55
3883.00,100.52
3882.00,100.50
3881.00,100.50
3880.00,100.52
3879.00,100.53
3878.00,100.53
3877.00,100.51
3876.00,100.51
3875.00,100.53
3874.00,100.53
3873.00,100.51
3872.00,100.48
3871.00,100.47
3870.00,100.49
3869.00,100.51
3868.00,100.50
3867.00,100.49
3866.00,100.49
3865.00,100.52
3864.00,100.55
3863.00,100.56
3862.00,100.55
3861.00,100.53
3860.00,100.51
3859.00,100.50
3858.00,100.52
3857.00,100.54
3856.00,100.56
3855.00,100.59
3854.00,100.60
3853.00,100.58
3852.00,100.55
3851.00,100.52
3850.00,100.52
3849.00,100.52
3848.00,100.53
3847.00,100.53
3846.00,100.53
3845.00,100.54
3844.00,100.57
3843.00,100.61
3842.00,100.64
3841.00,100.65
3840.00,100.64
3839.00,100.61
3838.00,100.56
3837.00,100.53
3836.00,100.51
3835.00,100.50
3834.00,100.51
3833.00,100.52
3832.00,100.53
3831.00,100.52
3830.00,100.49
3829.00,100.46
3828.00,100.45
3827.00,100.46
3826.00,100.47
3825.00,100.47
3824.00,100.45
3823.00,100.45
3822.00,100.47
3821.00,100.50
3820.00,100.50
3819.00,100.48
3818.00,100.47
3817.00,100.48
3816.00,100.48
3815.00,100.45
3814.00,100.42
3813.00,100.39
3812.00,100.39
3811.00,100.39
3810.00,100.39
3809.00,100.41
3808.00,100.44
3807.00,100.49
3806.00,100.51
3805.00,100.51
3804.00,100.50
3803.00,100.51
3802.00,100.53
3801.00,100.53
3800.00,100.49
3799.00,100.45
3798.00,100.42
3797.00,100.41
3796.00,100.41
3795.00,100.41
3794.00,100.40
3793.00,100.39
3792.00,100.38
3791.00,100.39
3790.00,100.40
3789.00,100.42
3788.00,100.42
3787.00,100.41
3786.00,100.40
3785.00,100.39
3784.00,100.39
3783.00,100.38
3782.00,100.37
3781.00,100.37
3780.00,100.39
3779.00,100.40
3778.00,100.41
3777.00,100.40
3776.00,100.39
3775.00,100.36
3774.00,100.33
3773.00,100.31
3772.00,100.30
3771.00,100.32
3770.00,100.35
3769.00,100.37
3768.00,100.37
3767.00,100.36
3766.00,100.35
3765.00,100.33
3764.00,100.30
3763.00,100.28
3762.00,100.27
3761.00,100.28
3760.00,100.30
3759.00,100.31
3758.00,100.32
3757.00,100.34
3756.00,100.35
3755.00,100.36
3754.00,100.38
3753.00,100.40
3752.00,100.41
3751.00,100.41
3750.00,100.41
3749.00,100.41
3748.00,100.38
3747.00,100.33
3746.00,100.31
3745.00,100.32
3744.00,100.33
3743.00,100.33
3742.00,100.32
3741.00,100.32
3740.00,100.33
3739.00,100.34
3738.00,100.36
3737.00,100.38
3736.00,100.40
3735.00,100.38
3734.00,100.36
3733.00,100.35
3732.00,100.36
3731.00,100.37
3730.00,100.36
3729.00,100.35
3728.00,100.34
3727.00,100.33
3726.00,100.31
3725.00,100.27
3724.00,100.23
3723.00,100.20
3722.00,100.19
3721.00,100.20
3720.00,100.22
3719.00,100.25
3718.00,100.27
3717.00,100.29
3716.00,100.30
3715.00,100.30
3714.00,100.31
3713.00,100.33
3712.00,100.32
3711.00,100.30
3710.00,100.26
3709.00,100.24
3708.00,100.23
3707.00,100.23
3706.00,100.22
3705.00,100.20
3704.00,100.19
3703.00,100.18
3702.00,100.18
3701.00,100.18
3700.00,100.18
3699.00,100.18
3698.00,100.18
3697.00,100.20
3696.00,100.21
3695.00,100.21
3694.00,100.20
3693.00,100.20
3692.00,100.19
3691.00,100.17
3690.00,100.16
3689.00,100.15
3688.00,100.16
3687.00,100.17
3686.00,100.16
3685.00,100.15
3684.00,100.14
3683.00,100.14
3682.00,100.15
3681.00,100.17
3680.00,100.19
3679.00,100.20
3678.00,100.21
3677.00,100.22
3676.00,100.23
3675.00,100.23
3674.00,100.21
3673.00,100.16
3672.00,100.11
3671.00,100.05
3670.00,100.00
3669.00,99.96
3668.00,99.95
3667.00,99.96
3666.00,99.98
3665.00,100.00
3664.00,100.01
3663.00,100.00
3662.00,100.00
3661.00,99.98
3660.00,99.96
3659.00,99.94
3658.00,99.92
3657.00,99.92
3656.00,99.93
3655.00,99.93
3654.00,99.92
3653.00,99.92
3652.00,99.93
3651.00,99.94
3650.00,99.93
3649.00,99.91
3648.00,99.89
3647.00,99.89
3646.00,99.89
3645.00,99.90
3644.00,99.89
3643.00,99.89
3642.00,99.88
3641.00,99.87
3640.00,99.88
3639.00,99.89
3638.00,99.90
3637.00,99.91
3636.00,99.91
3635.00,99.92
3634.00,99.93
3633.00,99.93
3632.00,99.91
3631.00,99.89
3630.00,99.89
3629.00,99.88
3628.00,99.86
3627.00,99.84
3626.00,99.84
3625.00,99.84
3624.00,99.85
3623.00,99.84
3622.00,99.83
3621.00,99.84
3620.00,99.85
3619.00,99.87
3618.00,99.86
3617.00,99.84
3616.00,99.83
3615.00,99.83
3614.00,99.84
3613.00,99.85
3612.00,99.85
3611.00,99.84
3610.00,99.85
3609.00,99.88
3608.00,99.90
3607.00,99.91
3606.00,99.92
3605.00,99.91
3604.00,99.89
3603.00,99.87
3602.00,99.86
3601.00,99.86
3600.00,99.88
3599.00,99.89
3598.00,99.89
3597.00,99.89
3596.00,99.89
3595.00,99.89
3594.00,99.89
3593.00,99.87
3592.00,99.85
3591.00,99.81
3590.00,99.80
3589.00,99.81
3588.00,99.83
3587.00,99.85
3586.00,99.85
3585.00,99.84
3584.00,99.83
3583.00,99.83
3582.00,99.85
3581.00,99.87
3580.00,99.88
3579.00,99.87
3578.00,99.85
3577.00,99.84
3576.00,99.83
3575.00,99.84
3574.00,99.84
3573.00,99.84
3572.00,99.84
3571.00,99.84
3570.00,99.83
3569.00,99.81
3568.00,99.79
3567.00,99.77
3566.00,99.76
3565.00,99.75
3564.00,99.75
3563.00,99.75
3562.00,99.75
3561.00,99.74
3560.00,99.75
3559.00,99.75
3558.00,99.76
3557.00,99.77
3556.00,99.78
3555.00,99.80
3554.00,99.82
3553.00,99.84
3552.00,99.83
3551.00,99.81
3550.00,99.77
3549.00,99.74
3548.00,99.71
3547.00,99.70
3546.00,99.71
3545.00,99.73
3544.00,99.74
3543.00,99.74
3542.00,99.72
3541.00,99.69
3540.00,99.67
3539.00,99.67
3538.00,99.69
3537.00,99.72
3536.00,99.74
3535.00,99.75
3534.00,99.75
3533.00,99.75
3532.00,99.74
3531.00,99.73
3530.00,99.72
3529.00,99.72
3528.00,99.72
3527.00,99.72
3526.00,99.72
3525.00,99.71
3524.00,99.71
3523.00,99.71
3522.00,99.70
3521.00,99.70
3520.00,99.69
3519.00,99.68
3518.00,99.66
3517.00,99.66
3516.00,99.67
3515.00,99.69
3514.00,99.70
3513.00,99.71
3512.00,99.71
3511.00,99.71
3510.00,99.71
3509.00,99.71
3508.00,99.69
3507.00,99.67
3506.00,99.66
3505.00,99.67
3504.00,99.68
3503.00,99.68
3502.00,99.67
3501.00,99.66
3500.00,99.65
3499.00,99.66
3498.00,99.68
3497.00,99.70
3496.00,99.72
3495.00,99.71
3494.00,99.69
3493.00,99.68
3492.00,99.69
3491.00,99.70
3490.00,99.71
3489.00,99.72
3488.00,99.71
3487.00,99.70
3486.00,99.67
3485.00,99.64
3484.00,99.62
3483.00,99.61
3482.00,99.63
3481.00,99.67
3480.00,99.71
3479.00,99.72
3478.00,99.72
3477.00,99.71
3476.00,99.70
3475.00,99.69
3474.00,99.69
3473.00,99.68
3472.00,99.69
3471.00,99.69
3470.00,99.70
3469.00,99.71
3468.00,99.71
3467.00,99.72
3466.00,99.72
3465.00,99.72
3464.00,99.71
3463.00,99.70
3462.00,99.68
3461.00,99.67
3460.00,99.67
3459.00,99.66
3458.00,99.66
3457.00,99.67
3456.00,99.67
3455.00,99.68
3454.00,99.69
3453.00,99.70
3452.00,99.69
3451.00,99.68
3450.00,99.68
3449.00,99.68
3448.00,99.68
3447.00,99.67
3446.00,99.66
3445.00,99.65
3444.00,99.67
3443.00,99.70
3442.00,99.72
3441.00,99.72
3440.00,99.71
3439.00,99.71
3438.00,99.72
3437.00,99.73
3436.00,99.73
3435.00,99.72
3434.00,99.71
3433.00,99.70
3432.00,99.69
3431.00,99.68
3430.00,99.67
3429.00,99.68
3428.00,99.71
3427.00,99.74
3426.00,99.75
3425.00,99.72
3424.00,99.67
3423.00,99.62
3422.00,99.59
3421.00,99.59
3420.00,99.61
3419.00,99.63
3418.00,99.65
3417.00,99.67
3416.00,99.68
3415.00,99.68
3414.00,99.68
3413.00,99.67
3412.00,99.67
3411.00,99.67
3410.00,99.67
3409.00,99.67
3408.00,99.67
3407.00,99.66
3406.00,99.66
3405.00,99.67
3404.00,99.68
3403.00,99.70
3402.00,99.72
3401.00,99.72
3400.00,99.70
3399.00,99.69
3398.00,99.69
3397.00,99.70
3396.00,99.71
3395.00,99.72
3394.00,99.73
3393.00,99.76
3392.00,99.78
3391.00,99.78
3390.00,99.76
3389.00,99.73
3388.00,99.71
3387.00,99.68
3386.00,99.66
3385.00,99.65
3384.00,99.65
3383.00,99.66
3382.00,99.67
3381.00,99.68
3380.00,99.69
3379.00,99.68
3378.00,99.68
3377.00,99.68
3376.00,99.69
3375.00,99.69
3374.00,99.68
3373.00,99.67
3372.00,99.66
3371.00,99.66
3370.00,99.68
3369.00,99.70
3368.00,99.71
3367.00,99.72
3366.00,99.72
3365.00,99.71
3364.00,99.71
3363.00,99.70
3362.00,99.69
3361.00,99.68
3360.00,99.68
3359.00,99.69
3358.00,99.69
3357.00,99.68
3356.00,99.67
3355.00,99.66
3354.00,99.66
3353.00,99.67
3352.00,99.68
3351.00,99.68
3350.00,99.67
3349.00,99.66
3348.00,99.67
3347.00,99.68
3346.00,99.69
3345.00,99.70
3344.00,99.71
3343.00,99.72
3342.00,99.73
3341.00,99.73
3340.00,99.72
3339.00,99.71
3338.00,99.70
3337.00,99.68
3336.00,99.67
3335.00,99.66
3334.00,99.65
3333.00,99.65
3332.00,99.64
3331.00,99.64
3330.00,99.64
3329.00,99.62
3328.00,99.60
3327.00,99.58
3326.00,99.58
3325.00,99.59
3324.00,99.59
3323.00,99.60
3322.00,99.62
3321.00,99.64
3320.00,99.66
3319.00,99.67
3318.00,99.66
3317.00,99.66
3316.00,99.67
3315.00,99.68
3314.00,99.69
3313.00,99.69
3312.00,99.69
3311.00,99.68
3310.00,99.66
3309.00,99.64
3308.00,99.62
3307.00,99.62
3306.00,99.63
3305.00,99.64
3304.00,99.65
3303.00,99.64
3302.00,99.63
3301.00,99.62
3300.00,99.61
3299.00,99.61
3298.00,99.62
3297.00,99.64
3296.00,99.64
3295.00,99.64
3294.00,99.64
3293.00,99.64
3292.00,99.64
3291.00,99.65
3290.00,99.64
3289.00,99.64
3288.00,99.63
3287.00,99.63
3286.00,99.63
3285.00,99.61
3284.00,99.60
3283.00,99.59
3282.00,99.60
3281.00,99.63
3280.00,99.66
3279.00,99.68
3278.00,99.67
3277.00,99.65
3276.00,99.63
3275.00,99.62
3274.00,99.61
3273.00,99.60
3272.00,99.59
3271.00,99.58
3270.00,99.56
3269.00,99.56
3268.00,99.56
3267.00,99.56
3266.00,99.57
3265.00,99.58
3264.00,99.60
3263.00,99.63
3262.00,99.65
3261.00,99.65
3260.00,99.64
3259.00,99.62
3258.00,99.59
3257.00,99.58
3256.00,99.57
3255.00,99.57
3254.00,99.58
3253.00,99.60
3252.00,99.62
3251.00,99.63
3250.00,99.62
3249.00,99.62
3248.00,99.61
3247.00,99.61
3246.00,99.60
3245.00,99.60
3244.00,99.59
3243.00,99.59
3242.00,99.59
3241.00,99.59
3240.00,99.59
3239.00,99.60
3238.00,99.61
3237.00,99.63
3236.00,99.65
3235.00,99.65
3234.00,99.64
3233.00,99.62
3232.00,99.61
3231.00,99.60
3230.00,99.59
3229.00,99.59
3228.00,99.59
3227.00,99.58
3226.00,99.57
3225.00,99.55
3224.00,99.55
3223.00,99.54
3222.00,99.54
3221.00,99.54
3220.00,99.56
3219.00,99.57
3218.00,99.58
3217.00,99.58
3216.00,99.58
3215.00,99.58
3214.00,99.59
3213.00,99.60
3212.00,99.61
3211.00,99.63
3210.00,99.64
3209.00,99.65
3208.00,99.66
3207.00,99.66
3206.00,99.64
3205.00,99.63
3204.00,99.60
3203.00,99.59
3202.00,99.59
3201.00,99.60
3200.00,99.60
3199.00,99.60
3198.00,99.60
3197.00,99.61
3196.00,99.63
3195.00,99.64
3194.00,99.64
3193.00,99.62
3192.00,99.60
3191.00,99.59
3190.00,99.60
3189.00,99.61
3188.00,99.63
3187.00,99.64
3186.00,99.64
3185.00,99.64
3184.00,99.64
3183.00,99.64
3182.00,99.63
3181.00,99.62
3180.00,99.61
3179.00,99.61
3178.00,99.61
3177.00,99.61
3176.00,99.61
3175.00,99.60
3174.00,99.59
3173.00,99.58
3172.00,99.58
3171.00,99.59
3170.00,99.60
3169.00,99.61
3168.00,99.61
3167.00,99.61
3166.00,99.61
3165.00,99.61
3164.00,99.61
3163.00,99.61
3162.00,99.61
3161.00,99.61
3160.00,99.62
3159.00,99.63
3158.00,99.64
3157.00,99.65
3156.00,99.64
3155.00,99.63
3154.00,99.62
3153.00,99.61
3152.00,99.62
3151.00,99.63
3150.00,99.65
3149.00,99.66
3148.00,99.66
3147.00,99.65
3146.00,99.65
3145.00,99.65
3144.00,99.66
3143.00,99.66
3142.00,99.66
3141.00,99.66
3140.00,99.66
3139.00,99.65
3138.00,99.64
3137.00,99.61
3136.00,99.59
3135.00,99.58
3134.00,99.59
3133.00,99.61
3132.00,99.63
3131.00,99.64
3130.00,99.64
3129.00,99.63
3128.00,99.62
3127.00,99.62
3126.00,99.62
3125.00,99.62
3124.00,99.62
3123.00,99.60
3122.00,99.59
3121.00,99.59
3120.00,99.60
3119.00,99.61
3118.00,99.60
3117.00,99.59
3116.00,99.59
3115.00,99.59
3114.00,99.60
3113.00,99.62
3112.00,99.64
3111.00,99.64
3110.00,99.62
3109.00,99.60
3108.00,99.57
3107.00,99.56
3106.00,99.56
3105.00,99.58
3104.00,99.60
3103.00,99.61
3102.00,99.61
3101.00,99.60
3100.00,99.59
3099.00,99.59
3098.00,99.59
3097.00,99.58
3096.00,99.58
3095.00,99.57
3094.00,99.57
3093.00,99.58
3092.00,99.59
3091.00,99.60
3090.00,99.60
3089.00,99.60
3088.00,99.60
3087.00,99.60
3086.00,99.60
3085.00,99.59
3084.00,99.58
3083.00,99.57
3082.00,99.56
3081.00,99.55
3080.00,99.55
3079.00,99.55
3078.00,99.56
3077.00,99.56
3076.00,99.56
3075.00,99.56
3074.00,99.57
3073.00,99.58
3072.00,99.58
3071.00,99.57
3070.00,99.55
3069.00,99.54
3068.00,99.54
3067.00,99.55
3066.00,99.56
3065.00,99.56
3064.00,99.55
3063.00,99.55
3062.00,99.54
3061.00,99.54
3060.00,99.53
3059.00,99.51
3058.00,99.49
3057.00,99.47
3056.00,99.46
3055.00,99.46
3054.00,99.48
3053.00,99.49
3052.00,99.50
3051.00,99.51
3050.00,99.52
3049.00,99.52
3048.00,99.53
3047.00,99.53
3046.00,99.53
3045.00,99.52
3044.00,99.50
3043.00,99.49
3042.00,99.49
3041.00,99.50
3040.00,99.51
3039.00,99.52
3038.00,99.53
3037.00,99.52
3036.00,99.51
3035.00,99.50
3034.00,99.50
3033.00,99.50
3032.00,99.50
3031.00,99.50
3030.00,99.50
3029.00,99.50
3028.00,99.49
3027.00,99.48
3026.00,99.48
3025.00,99.49
3024.00,99.49
3023.00,99.49
3022.00,99.49
3021.00,99.49
3020.00,99.48
3019.00,99.48
3018.00,99.46
3017.00,99.44
3016.00,99.42
3015.00,99.40
3014.00,99.39
3013.00,99.38
3012.00,99.38
3011.00,99.39
3010.00,99.40
3009.00,99.40
3008.00,99.41
3007.00,99.40
3006.00,99.38
3005.00,99.35
3004.00,99.32
3003.00,99.30
3002.00,99.30
3001.00,99.30
3000.00,99.30
2999.00,99.29
2998.00,99.27
2997.00,99.24
2996.00,99.22
2995.00,99.20
2994.00,99.19
2993.00,99.19
2992.00,99.19
2991.00,99.19
2990.00,99.18
2989.00,99.16
2988.00,99.13
2987.00,99.10
2986.00,99.09
2985.00,99.07
2984.00,99.05
2983.00,99.03
2982.00,99.02
2981.00,99.01
2980.00,99.00
2979.00,98.98
2978.00,98.95
2977.00,98.91
2976.00,98.88
2975.00,98.86
2974.00,98.85
2973.00,98.84
2972.00,98.84
2971.00,98.83
2970.00,98.82
2969.00,98.80
2968.00,98.79
2967.00,98.76
2966.00,98.74
2965.00,98.71
2964.00,98.69
2963.00,98.67
2962.00,98.64
2961.00,98.62
2960.00,98.60
2959.00,98.58
2958.00,98.57
2957.00,98.57
2956.00,98.56
2955.00,98.55
2954.00,98.53
2953.00,98.50
2952.00,98.45
2951.00,98.41
2950.00,98.38
2949.00,98.37
2948.00,98.35
2947.00,98.34
2946.00,98.31
2945.00,98.27
2944.00,98.22
2943.00,98.18
2942.00,98.14
2941.00,98.12
2940.00,98.10
2939.00,98.08
2938.00,98.06
2937.00,98.03
2936.00,98.01
2935.00,97.98
2934.00,97.95
2933.00,97.93
2932.00,97.91
2931.00,97.90
2930.00,97.90
2929.00,97.89
2928.00,97.88
2927.00,97.87
2926.00,97.87
2925.00,97.87
2924.00,97.88
2923.00,97.89
2922.00,97.89
2921.00,97.91
2920.00,97.94
2919.00,97.98
2918.00,98.03
2917.00,98.09
2916.00,98.15
2915.00,98.21
2914.00,98.26
2913.00,98.31
2912.00,98.35
2911.00,98.39
2910.00,98.43
2909.00,98.46
2908.00,98.51
2907.00,98.56
2906.00,98.62
2905.00,98.67
2904.00,98.72
2903.00,98.78
2902.00,98.83
2901.00,98.86
2900.00,98.89
2899.00,98.91
2898.00,98.93
2897.00,98.96
2896.00,98.99
2895.00,99.02
2894.00,99.03
2893.00,99.04
2892.00,99.05
2891.00,99.05
2890.00,99.07
2889.00,99.08
2888.00,99.09
2887.00,99.09
2886.00,99.08
2885.00,99.07
2884.00,99.07
2883.00,99.08
2882.00,99.08
2881.00,99.08
2880.00,99.07
2879.00,99.07
2878.00,99.07
2877.00,99.07
2876.00,99.08
2875.00,99.07
2874.00,99.07
2873.00,99.07
2872.00,99.07
2871.00,99.07
2870.00,99.06
2869.00,99.05
2868.00,99.05
2867.00,99.05
2866.00,99.07
2865.00,99.08
2864.00,99.09
2863.00,99.08
2862.00,99.07
2861.00,99.06
2860.00,99.06
2859.00,99.06
2858.00,99.06
2857.00,99.05
2856.00,99.05
2855.00,99.06
2854.00,99.07
2853.00,99.08
2852.00,99.08
2851.00,99.09
2850.00,99.10
2849.00,99.11
2848.00,99.11
2847.00,99.12
2846.00,99.14
2845.00,99.15
2844.00,99.17
2843.00,99.20
2842.00,99.22
2841.00,99.23
2840.00,99.24
2839.00,99.25
2838.00,99.26
2837.00,99.27
2836.00,99.28
2835.00,99.29
2834.00,99.29
2833.00,99.29
2832.00,99.29
2831.00,99.29
2830.00,99.30
2829.00,99.30
2828.00,99.30
2827.00,99.32
2826.00,99.33
2825.00,99.34
2824.00,99.36
2823.00,99.36
2822.00,99.37
2821.00,99.38
2820.00,99.39
2819.00,99.39
2818.00,99.38
2817.00,99.38
2816.00,99.38
2815.00,99.38
2814.00,99.39
2813.00,99.41
2812.00,99.42
2811.00,99.42
2810.00,99.41
2809.00,99.39
2808.00,99.38
2807.00,99.38
2806.00,99.39
2805.00,99.40
2804.00,99.41
2803.00,99.40
2802.00,99.39
2801.00,99.38
2800.00,99.38
2799.00,99.38
2798.00,99.38
2797.00,99.39
2796.00,99.39
2795.00,99.39
2794.00,99.38
2793.00,99.37
2792.00,99.37
2791.00,99.37
2790.00,99.38
2789.00,99.39
2788.00,99.39
2787.00,99.39
2786.00,99.39
2785.00,99.40
2784.00,99.40
2783.00,99.41
2782.00,99.40
2781.00,99.40
2780.00,99.39
2779.00,99.40
2778.00,99.40
2777.00,99.42
2776.00,99.43
2775.00,99.44
2774.00,99.43
2773.00,99.42
2772.00,99.42
2771.00,99.42
2770.00,99.42
2769.00,99.41
2768.00,99.41
2767.00,99.41
2766.00,99.40
2765.00,99.40
2764.00,99.40
2763.00,99.41
2762.00,99.41
2761.00,99.42
2760.00,99.43
2759.00,99.43
2758.00,99.42
2757.00,99.42
2756.00,99.41
2755.00,99.41
2754.00,99.41
2753.00,99.41
2752.00,99.41
2751.00,99.42
2750.00,99.43
2749.00,99.43
2748.00,99.42
2747.00,99.41
2746.00,99.41
2745.00,99.41
2744.00,99.40
2743.00,99.39
2742.00,99.38
2741.00,99.37
2740.00,99.36
2739.00,99.36
2738.00,99.35
2737.00,99.34
2736.00,99.34
2735.00,99.35
2734.00,99.36
2733.00,99.37
2732.00,99.38
2731.00,99.38
2730.00,99.39
2729.00,99.39
2728.00,99.39
2727.00,99.39
2726.00,99.39
2725.00,99.38
2724.00,99.38
2723.00,99.37
2722.00,99.36
2721.00,99.36
2720.00,99.36
2719.00,99.35
2718.00,99.35
2717.00,99.36
2716.00,99.36
2715.00,99.36
2714.00,99.35
2713.00,99.35
2712.00,99.35
2711.00,99.37
2710.00,99.39
2709.00,99.41
2708.00,99.42
2707.00,99.41
2706.00,99.40
2705.00,99.38
2704.00,99.36
2703.00,99.36
2702.00,99.36
2701.00,99.37
2700.00,99.38
2699.00,99.38
2698.00,99.37
2697.00,99.35
2696.00,99.34
2695.00,99.33
2694.00,99.34
2693.00,99.34
2692.00,99.33
2691.00,99.34
2690.00,99.35
2689.00,99.35
2688.00,99.35
2687.00,99.35
2686.00,99.34
2685.00,99.35
2684.00,99.36
2683.00,99.37
2682.00,99.37
2681.00,99.36
2680.00,99.35
2679.00,99.35
2678.00,99.34
2677.00,99.34
2676.00,99.33
2675.00,99.33
2674.00,99.32
2673.00,99.32
2672.00,99.32
2671.00,99.33
2670.00,99.33
2669.00,99.34
2668.00,99.34
2667.00,99.34
2666.00,99.33
2665.00,99.32
2664.00,99.31
2663.00,99.30
2662.00,99.30
2661.00,99.30
2660.00,99.29
2659.00,99.28
2658.00,99.27
2657.00,99.26
2656.00,99.24
2655.00,99.23
2654.00,99.23
2653.00,99.23
2652.00,99.23
2651.00,99.22
2650.00,99.20
2649.00,99.18
2648.00,99.17
2647.00,99.16
2646.00,99.15
2645.00,99.15
2644.00,99.15
2643.00,99.14
2642.00,99.14
2641.00,99.14
2640.00,99.13
2639.00,99.11
2638.00,99.09
2637.00,99.08
2636.00,99.08
2635.00,99.09
2634.00,99.09
2633.00,99.09
2632.00,99.08
2631.00,99.08
2630.00,99.08
2629.00,99.09
2628.00,99.10
2627.00,99.12
2626.00,99.12
2625.00,99.11
2624.00,99.09
2623.00,99.05
2622.00,99.02
2621.00,98.99
2620.00,98.99
2619.00,99.00
2618.00,99.00
2617.00,99.00
2616.00,99.00
2615.00,99.00
2614.00,99.00
2613.00,98.99
2612.00,98.98
2611.00,98.96
2610.00,98.95
2609.00,98.96
2608.00,98.98
2607.00,98.99
2606.00,98.99
2605.00,98.99
2604.00,98.98
2603.00,98.97
2602.00,98.96
2601.00,98.95
2600.00,98.93
2599.00,98.91
2598.00,98.88
2597.00,98.87
2596.00,98.88
2595.00,98.90
2594.00,98.92
2593.00,98.93
2592.00,98.93
2591.00,98.93
2590.00,98.93
2589.00,98.91
2588.00,98.90
2587.00,98.89
2586.00,98.88
2585.00,98.86
2584.00,98.84
2583.00,98.83
2582.00,98.81
2581.00,98.79
2580.00,98.78
2579.00,98.78
2578.00,98.80
2577.00,98.82
2576.00,98.84
2575.00,98.84
2574.00,98.84
2573.00,98.84
2572.00,98.83
2571.00,98.83
2570.00,98.83
2569.00,98.83
2568.00,98.83
2567.00,98.83
2566.00,98.83
2565.00,98.83
2564.00,98.82
2563.00,98.81
2562.00,98.80
2561.00,98.79
2560.00,98.79
2559.00,98.80
2558.00,98.81
2557.00,98.81
2556.00,98.82
2555.00,98.83
2554.00,98.83
2553.00,98.83
2552.00,98.83
2551.00,98.81
2550.00,98.78
2549.00,98.76
2548.00,98.74
2547.00,98.74
2546.00,98.74
2545.00,98.75
2544.00,98.77
2543.00,98.77
2542.00,98.77
2541.00,98.76
2540.00,98.75
2539.00,98.74
2538.00,98.72
2537.00,98.71
2536.00,98.71
2535.00,98.72
2534.00,98.73
2533.00,98.74
2532.00,98.73
2531.00,98.72
2530.00,98.73
2529.00,98.73
2528.00,98.73
2527.00,98.71
2526.00,98.69
2525.00,98.68
2524.00,98.70
2523.00,98.72
2522.00,98.73
2521.00,98.74
2520.00,98.74
2519.00,98.74
2518.00,98.74
2517.00,98.75
2516.00,98.75
2515.00,98.75
2514.00,98.75
2513.00,98.75
2512.00,98.76
2511.00,98.78
2510.00,98.80
2509.00,98.82
2508.00,98.82
2507.00,98.81
2506.00,98.80
2505.00,98.78
2504.00,98.76
2503.00,98.74
2502.00,98.73
2501.00,98.73
2500.00,98.73
2499.00,98.74
2498.00,98.75
2497.00,98.75
2496.00,98.76
2495.00,98.77
2494.00,98.77
2493.00,98.76
2492.00,98.75
2491.00,98.74
2490.00,98.74
2489.00,98.75
2488.00,98.77
2487.00,98.77
2486.00,98.76
2485.00,98.74
2484.00,98.73
2483.00,98.73
2482.00,98.73
2481.00,98.74
2480.00,98.75
2479.00,98.75
2478.00,98.75
2477.00,98.74
2476.00,98.72
2475.00,98.72
2474.00,98.72
2473.00,98.72
2472.00,98.70
2471.00,98.68
2470.00,98.65
2469.00,98.64
2468.00,98.64
2467.00,98.66
2466.00,98.68
2465.00,98.70
2464.00,98.71
2463.00,98.72
2462.00,98.73
2461.00,98.73
2460.00,98.72
2459.00,98.70
2458.00,98.69
2457.00,98.69
2456.00,98.72
2455.00,98.75
2454.00,98.77
2453.00,98.77
2452.00,98.74
2451.00,98.70
2450.00,98.68
2449.00,98.67
2448.00,98.69
2447.00,98.71
2446.00,98.72
2445.00,98.72
2444.00,98.71
2443.00,98.69
2442.00,98.69
2441.00,98.69
2440.00,98.69
2439.00,98.71
2438.00,98.71
2437.00,98.70
2436.00,98.68
2435.00,98.68
2434.00,98.68
2433.00,98.69
2432.00,98.70
2431.00,98.70
2430.00,98.70
2429.00,98.70
2428.00,98.68
2427.00,98.68
2426.00,98.68
2425.00,98.69
2424.00,98.71
2423.00,98.72
2422.00,98.71
2421.00,98.70
2420.00,98.68
2419.00,98.68
2418.00,98.67
2417.00,98.67
2416.00,98.68
2415.00,98.70
2414.00,98.71
2413.00,98.71
2412.00,98.71
2411.00,98.73
2410.00,98.76
2409.00,98.78
2408.00,98.79
2407.00,98.79
2406.00,98.78
2405.00,98.78
2404.00,98.77
2403.00,98.77
2402.00,98.77
2401.00,98.77
2400.00,98.78
2399.00,98.79
2398.00,98.79
2397.00,98.80
2396.00,98.80
2395.00,98.80
2394.00,98.80
2393.00,98.81
2392.00,98.82
2391.00,98.82
2390.00,98.84
2389.00,98.85
2388.00,98.87
2387.00,98.88
2386.00,98.90
2385.00,98.92
2384.00,98.97
2383.00,99.02
2382.00,99.07
2381.00,99.11
2380.00,99.14
2379.00,99.17
2378.00,99.18
2377.00,99.18
2376.00,99.17
2375.00,99.16
2374.00,99.14
2373.00,99.13
2372.00,99.14
2371.00,99.18
2370.00,99.24
2369.00,99.30
2368.00,99.34
2367.00,99.35
2366.00,99.33
2365.00,99.28
2364.00,99.22
2363.00,99.19
2362.00,99.17
2361.00,99.17
2360.00,99.16
2359.00,99.17
2358.00,99.21
2357.00,99.27
2356.00,99.34
2355.00,99.41
2354.00,99.47
2353.00,99.46
2352.00,99.41
2351.00,99.34
2350.00,99.29
2349.00,99.27
2348.00,99.26
2347.00,99.26
2346.00,99.25
2345.00,99.25
2344.00,99.23
2343.00,99.21
2342.00,99.20
2341.00,99.21
2340.00,99.23
2339.00,99.24
2338.00,99.23
2337.00,99.20
2336.00,99.17
2335.00,99.15
2334.00,99.13
2333.00,99.11
2332.00,99.11
2331.00,99.13
2330.00,99.18
2329.00,99.19
2328.00,99.15
2327.00,99.06
2326.00,98.96
2325.00,98.89
2324.00,98.85
2323.00,98.81
2322.00,98.78
2321.00,98.75
2320.00,98.74
2319.00,98.73
2318.00,98.75
2317.00,98.78
2316.00,98.81
2315.00,98.81
2314.00,98.80
2313.00,98.79
2312.00,98.81
2311.00,98.82
2310.00,98.80
2309.00,98.73
2308.00,98.65
2307.00,98.60
2306.00,98.59
2305.00,98.60
2304.00,98.62
2303.00,98.62
2302.00,98.60
2301.00,98.58
2300.00,98.56
2299.00,98.55
2298.00,98.54
2297.00,98.53
2296.00,98.51
2295.00,98.48
2294.00,98.45
2293.00,98.41
2292.00,98.36
2291.00,98.33
2290.00,98.33
2289.00,98.32
2288.00,98.31
2287.00,98.28
2286.00,98.26
2285.00,98.25
2284.00,98.27
2283.00,98.29
2282.00,98.31
2281.00,98.32
2280.00,98.31
2279.00,98.29
2278.00,98.26
2277.00,98.23
2276.00,98.21
2275.00,98.19
2274.00,98.17
2273.00,98.15
2272.00,98.11
2271.00,98.07
2270.00,98.05
2269.00,98.05
2268.00,98.06
2267.00,98.06
2266.00,98.04
2265.00,98.00
2264.00,97.98
2263.00,97.95
2262.00,97.93
2261.00,97.89
2260.00,97.83
2259.00,97.76
2258.00,97.69
2257.00,97.61
2256.00,97.53
2255.00,97.43
2254.00,97.30
2253.00,97.13
2252.00,96.92
2251.00,96.68
2250.00,96.44
2249.00,96.19
2248.00,95.93
2247.00,95.67
2246.00,95.42
2245.00,95.22
2244.00,95.07
2243.00,95.00
2242.00,95.00
2241.00,95.10
2240.00,95.25
2239.00,95.46
2238.00,95.70
2237.00,95.97
2236.00,96.25
2235.00,96.52
2234.00,96.75
2233.00,96.94
2232.00,97.10
2231.00,97.24
2230.00,97.37
2229.00,97.49
2228.00,97.56
2227.00,97.57
2226.00,97.53
2225.00,97.48
2224.00,97.44
2223.00,97.42
2222.00,97.44
2221.00,97.49
2220.00,97.56
2219.00,97.60
2218.00,97.61
2217.00,97.62
2216.00,97.62
2215.00,97.61
2214.00,97.56
2213.00,97.50
2212.00,97.45
2211.00,97.42
2210.00,97.42
2209.00,97.41
2208.00,97.39
2207.00,97.36
2206.00,97.34
2205.00,97.31
2204.00,97.28
2203.00,97.27
2202.00,97.30
2201.00,97.35
2200.00,97.38
2199.00,97.38
2198.00,97.36
2197.00,97.36
2196.00,97.38
2195.00,97.39
2194.00,97.36
2193.00,97.30
2192.00,97.24
2191.00,97.19
2190.00,97.16
2189.00,97.13
2188.00,97.11
2187.00,97.10
2186.00,97.10
2185.00,97.11
2184.00,97.12
2183.00,97.15
2182.00,97.17
2181.00,97.18
2180.00,97.19
2179.00,97.20
2178.00,97.23
2177.00,97.28
2176.00,97.33
2175.00,97.37
2174.00,97.37
2173.00,97.33
2172.00,97.25
2171.00,97.15
2170.00,97.06
2169.00,96.98
2168.00,96.94
2167.00,96.92
2166.00,96.90
2165.00,96.88
2164.00,96.85
2163.00,96.81
2162.00,96.78
2161.00,96.82
2160.00,96.95
2159.00,97.12
2158.00,97.26
2157.00,97.30
2156.00,97.29
2155.00,97.28
2154.00,97.32
2153.00,97.39
2152.00,97.46
2151.00,97.49
2150.00,97.48
2149.00,97.47
2148.00,97.46
2147.00,97.49
2146.00,97.53
2145.00,97.58
2144.00,97.61
2143.00,97.62
2142.00,97.62
2141.00,97.63
2140.00,97.66
2139.00,97.72
2138.00,97.79
2137.00,97.85
2136.00,97.90
2135.00,97.94
2134.00,97.98
2133.00,98.03
2132.00,98.06
2131.00,98.07
2130.00,98.06
2129.00,98.04
2128.00,98.02
2127.00,98.00
2126.00,97.98
2125.00,97.97
2124.00,97.98
2123.00,98.00
2122.00,98.03
2121.00,98.04
2120.00,98.03
2119.00,98.03
2118.00,98.03
2117.00,98.03
2116.00,98.02
2115.00,98.00
2114.00,97.98
2113.00,97.98
2112.00,97.98
2111.00,97.98
2110.00,97.95
2109.00,97.92
2108.00,97.90
2107.00,97.89
2106.00,97.90
2105.00,97.89
2104.00,97.87
2103.00,97.85
2102.00,97.82
2101.00,97.79
2100.00,97.80
2099.00,97.84
2098.00,97.90
2097.00,97.95
2096.00,97.95
2095.00,97.93
2094.00,97.91
2093.00,97.89
2092.00,97.89
2091.00,97.89
2090.00,97.90
2089.00,97.89
2088.00,97.85
2087.00,97.80
2086.00,97.77
2085.00,97.76
2084.00,97.78
2083.00,97.80
2082.00,97.82
2081.00,97.82
2080.00,97.81
2079.00,97.80
2078.00,97.80
2077.00,97.80
2076.00,97.80
2075.00,97.79
2074.00,97.77
2073.00,97.76
2072.00,97.74
2071.00,97.72
2070.00,97.71
2069.00,97.69
2068.00,97.68
2067.00,97.67
2066.00,97.67
2065.00,97.64
2064.00,97.61
2063.00,97.59
2062.00,97.61
2061.00,97.67
2060.00,97.72
2059.00,97.71
2058.00,97.67
2057.00,97.62
2056.00,97.61
2055.00,97.61
2054.00,97.59
2053.00,97.52
2052.00,97.41
2051.00,97.32
2050.00,97.27
2049.00,97.24
2048.00,97.19
2047.00,97.15
2046.00,97.15
2045.00,97.19
2044.00,97.21
2043.00,97.18
2042.00,97.13
2041.00,97.09
2040.00,97.08
2039.00,97.07
2038.00,97.06
2037.00,97.04
2036.00,97.02
2035.00,97.03
2034.00,97.07
2033.00,97.12
2032.00,97.15
2031.00,97.13
2030.00,97.10
2029.00,97.09
2028.00,97.08
2027.00,97.06
2026.00,97.03
2025.00,97.01
2024.00,96.99
2023.00,97.00
2022.00,97.03
2021.00,97.10
2020.00,97.19
2019.00,97.27
2018.00,97.30
2017.00,97.28
2016.00,97.23
2015.00,97.18
2014.00,97.14
2013.00,97.11
2012.00,97.08
2011.00,97.06
2010.00,97.07
2009.00,97.10
2008.00,97.12
2007.00,97.14
2006.00,97.18
2005.00,97.25
2004.00,97.35
2003.00,97.42
2002.00,97.44
2001.00,97.41
2000.00,97.38
1999.00,97.37
1998.00,97.39
1997.00,97.40
1996.00,97.39
1995.00,97.33
1994.00,97.26
1993.00,97.22
1992.00,97.21
1991.00,97.23
1990.00,97.26
1989.00,97.28
1988.00,97.28
1987.00,97.26
1986.00,97.21
1985.00,97.12
1984.00,97.02
1983.00,96.94
1982.00,96.91
1981.00,96.92
1980.00,96.95
1979.00,96.98
1978.00,97.02
1977.00,97.08
1976.00,97.13
1975.00,97.14
1974.00,97.13
1973.00,97.14
1972.00,97.19
1971.00,97.28
1970.00,97.34
1969.00,97.37
1968.00,97.36
1967.00,97.35
1966.00,97.35
1965.00,97.37
1964.00,97.37
1963.00,97.33
1962.00,97.28
1961.00,97.27
1960.00,97.29
1959.00,97.34
1958.00,97.41
1957.00,97.48
1956.00,97.55
1955.00,97.58
1954.00,97.57
1953.00,97.53
1952.00,97.53
1951.00,97.58
1950.00,97.65
1949.00,97.72
1948.00,97.77
1947.00,97.80
1946.00,97.81
1945.00,97.80
1944.00,97.78
1943.00,97.75
1942.00,97.73
1941.00,97.75
1940.00,97.78
1939.00,97.81
1938.00,97.83
1937.00,97.84
1936.00,97.85
1935.00,97.85
1934.00,97.86
1933.00,97.85
1932.00,97.85
1931.00,97.87
1930.00,97.89
1929.00,97.92
1928.00,97.93
1927.00,97.92
1926.00,97.90
1925.00,97.89
1924.00,97.88
1923.00,97.87
1922.00,97.86
1921.00,97.85
1920.00,97.85
1919.00,97.87
1918.00,97.89
1917.00,97.92
1916.00,97.95
1915.00,97.97
1914.00,97.99
1913.00,98.00
1912.00,98.01
1911.00,98.02
1910.00,98.03
1909.00,98.04
1908.00,98.05
1907.00,98.05
1906.00,98.06
1905.00,98.08
1904.00,98.08
1903.00,98.08
1902.00,98.05
1901.00,98.02
1900.00,98.01
1899.00,98.04
1898.00,98.09
1897.00,98.13
1896.00,98.14
1895.00,98.15
1894.00,98.17
1893.00,98.20
1892.00,98.21
1891.00,98.20
1890.00,98.16
1889.00,98.11
1888.00,98.09
1887.00,98.09
1886.00,98.12
1885.00,98.15
1884.00,98.18
1883.00,98.19
1882.00,98.17
1881.00,98.16
1880.00,98.15
1879.00,98.16
1878.00,98.15
1877.00,98.14
1876.00,98.13
1875.00,98.13
1874.00,98.14
1873.00,98.16
1872.00,98.18
1871.00,98.20
1870.00,98.22
1869.00,98.23
1868.00,98.24
1867.00,98.22
1866.00,98.19
1865.00,98.15
1864.00,98.14
1863.00,98.15
1862.00,98.18
1861.00,98.20
1860.00,98.22
1859.00,98.22
1858.00,98.22
1857.00,98.23
1856.00,98.24
1855.00,98.25
1854.00,98.26
1853.00,98.26
1852.00,98.27
1851.00,98.27
1850.00,98.26
1849.00,98.25
1848.00,98.25
1847.00,98.26
1846.00,98.27
1845.00,98.29
1844.00,98.29
1843.00,98.28
1842.00,98.27
1841.00,98.27
1840.00,98.28
1839.00,98.30
1838.00,98.32
1837.00,98.32
1836.00,98.32
1835.00,98.31
1834.00,98.30
1833.00,98.29
1832.00,98.28
1831.00,98.28
1830.00,98.27
1829.00,98.26
1828.00,98.25
1827.00,98.25
1826.00,98.26
1825.00,98.27
1824.00,98.28
1823.00,98.29
1822.00,98.29
1821.00,98.30
1820.00,98.30
1819.00,98.30
1818.00,98.31
1817.00,98.33
1816.00,98.33
1815.00,98.31
1814.00,98.30
1813.00,98.30
1812.00,98.31
1811.00,98.32
1810.00,98.31
1809.00,98.30
1808.00,98.30
1807.00,98.31
1806.00,98.31
1805.00,98.31
1804.00,98.31
1803.00,98.32
1802.00,98.33
1801.00,98.35
1800.00,98.38
1799.00,98.38
1798.00,98.38
1797.00,98.36
1796.00,98.35
1795.00,98.34
1794.00,98.33
1793.00,98.33
1792.00,98.34
1791.00,98.34
1790.00,98.33
1789.00,98.34
1788.00,98.34
1787.00,98.35
1786.00,98.36
1785.00,98.36
1784.00,98.35
1783.00,98.34
1782.00,98.32
1781.00,98.30
1780.00,98.30
1779.00,98.32
1778.00,98.33
1777.00,98.34
1776.00,98.33
1775.00,98.33
1774.00,98.32
1773.00,98.33
1772.00,98.34
1771.00,98.34
1770.00,98.32
1769.00,98.30
1768.00,98.28
1767.00,98.28
1766.00,98.29
1765.00,98.30
1764.00,98.31
1763.00,98.31
1762.00,98.30
1761.00,98.28
1760.00,98.26
1759.00,98.24
1758.00,98.22
1757.00,98.21
1756.00,98.20
1755.00,98.18
1754.00,98.16
1753.00,98.12
1752.00,98.08
1751.00,98.04
1750.00,98.00
1749.00,97.97
1748.00,97.94
1747.00,97.90
1746.00,97.84
1745.00,97.77
1744.00,97.71
1743.00,97.66
1742.00,97.63
1741.00,97.59
1740.00,97.55
1739.00,97.50
1738.00,97.45
1737.00,97.41
1736.00,97.37
1735.00,97.32
1734.00,97.28
1733.00,97.24
1732.00,97.23
1731.00,97.24
1730.00,97.25
1729.00,97.26
1728.00,97.27
1727.00,97.29
1726.00,97.30
1725.00,97.32
1724.00,97.33
1723.00,97.36
1722.00,97.40
1721.00,97.43
1720.00,97.47
1719.00,97.50
1718.00,97.54
1717.00,97.58
1716.00,97.61
1715.00,97.65
1714.00,97.67
1713.00,97.69
1712.00,97.71
1711.00,97.73
1710.00,97.76
1709.00,97.79
1708.00,97.82
1707.00,97.84
1706.00,97.86
1705.00,97.87
1704.00,97.89
1703.00,97.90
1702.00,97.94
1701.00,97.98
1700.00,98.00
1699.00,98.01
1698.00,98.00
1697.00,98.00
1696.00,98.00
1695.00,98.00
1694.00,98.00
1693.00,98.01
1692.00,98.01
1691.00,98.01
1690.00,98.02
1689.00,98.03
1688.00,98.04
1687.00,98.05
1686.00,98.06
1685.00,98.04
1684.00,98.03
1683.00,98.03
1682.00,98.03
1681.00,98.04
1680.00,98.04
1679.00,98.03
1678.00,98.04
1677.00,98.04
1676.00,98.04
1675.00,98.03
1674.00,98.04
1673.00,98.05
1672.00,98.07
1671.00,98.08
1670.00,98.08
1669.00,98.06
1668.00,98.04
1667.00,98.03
1666.00,98.03
1665.00,98.03
1664.00,98.03
1663.00,98.03
1662.00,98.02
1661.00,98.01
1660.00,98.00
1659.00,97.99
1658.00,97.98
1657.00,97.98
1656.00,97.97
1655.00,97.97
1654.00,97.96
1653.00,97.96
1652.00,97.96
1651.00,97.95
1650.00,97.95
1649.00,97.95
1648.00,97.95
1647.00,97.96
1646.00,97.97
1645.00,97.95
1644.00,97.92
1643.00,97.90
1642.00,97.89
1641.00,97.89
1640.00,97.89
1639.00,97.89
1638.00,97.89
1637.00,97.89
1636.00,97.87
1635.00,97.85
1634.00,97.84
1633.00,97.84
1632.00,97.83
1631.00,97.83
1630.00,97.82
1629.00,97.82
1628.00,97.82
1627.00,97.82
1626.00,97.83
1625.00,97.82
1624.00,97.80
1623.00,97.76
1622.00,97.72
1621.00,97.72
1620.00,97.73
1619.00,97.75
1618.00,97.77
1617.00,97.78
1616.00,97.78
1615.00,97.78
1614.00,97.78
1613.00,97.79
1612.00,97.80
1611.00,97.80
1610.00,97.81
1609.00,97.83
1608.00,97.84
1607.00,97.85
1606.00,97.86
1605.00,97.86
1604.00,97.87
1603.00,97.88
1602.00,97.90
1601.00,97.91
1600.00,97.92
1599.00,97.92
1598.00,97.93
1597.00,97.95
1596.00,97.96
1595.00,97.98
1594.00,97.99
1593.00,98.01
1592.00,98.03
1591.00,98.05
1590.00,98.06
1589.00,98.06
1588.00,98.07
1587.00,98.07
1586.00,98.08
1585.00,98.10
1584.00,98.11
1583.00,98.11
1582.00,98.11
1581.00,98.10
1580.00,98.09
1579.00,98.08
1578.00,98.07
1577.00,98.05
1576.00,98.05
1575.00,98.06
1574.00,98.07
1573.00,98.08
1572.00,98.10
1571.00,98.12
1570.00,98.13
1569.00,98.14
1568.00,98.13
1567.00,98.13
1566.00,98.14
1565.00,98.15
1564.00,98.15
1563.00,98.14
1562.00,98.13
1561.00,98.12
1560.00,98.12
1559.00,98.12
1558.00,98.13
1557.00,98.13
1556.00,98.13
1555.00,98.12
1554.00,98.11
1553.00,98.10
1552.00,98.08
1551.00,98.08
1550.00,98.09
1549.00,98.10
1548.00,98.10
1547.00,98.10
1546.00,98.11
1545.00,98.11
1544.00,98.12
1543.00,98.13
1542.00,98.14
1541.00,98.15
1540.00,98.16
1539.00,98.14
1538.00,98.12
1537.00,98.10
1536.00,98.09
1535.00,98.10
1534.00,98.12
1533.00,98.14
1532.00,98.15
1531.00,98.15
1530.00,98.14
1529.00,98.13
1528.00,98.12
1527.00,98.13
1526.00,98.13
1525.00,98.13
1524.00,98.12
1523.00,98.11
1522.00,98.09
1521.00,98.09
1520.00,98.10
1519.00,98.11
1518.00,98.11
1517.00,98.11
1516.00,98.11
1515.00,98.12
1514.00,98.13
1513.00,98.13
1512.00,98.14
1511.00,98.14
1510.00,98.14
1509.00,98.13
1508.00,98.13
1507.00,98.13
1506.00,98.13
1505.00,98.13
1504.00,98.13
1503.00,98.14
1502.00,98.13
1501.00,98.10
1500.00,98.07
1499.00,98.05
1498.00,98.04
1497.00,98.05
1496.00,98.06
1495.00,98.05
1494.00,98.04
1493.00,98.02
1492.00,98.00
1491.00,97.98
1490.00,97.96
1489.00,97.96
1488.00,97.95
1487.00,97.95
1486.00,97.94
1485.00,97.94
1484.00,97.93
1483.00,97.94
1482.00,97.94
1481.00,97.95
1480.00,97.94
1479.00,97.92
1478.00,97.89
1477.00,97.86
1476.00,97.85
1475.00,97.85
1474.00,97.87
1473.00,97.89
1472.00,97.89
1471.00,97.89
1470.00,97.87
1469.00,97.84
1468.00,97.81
1467.00,97.78
1466.00,97.75
1465.00,97.69
1464.00,97.62
1463.00,97.55
1462.00,97.47
1461.00,97.37
1460.00,97.25
1459.00,97.11
1458.00,96.91
1457.00,96.64
1456.00,96.34
1455.00,96.09
1454.00,95.87
1453.00,95.65
1452.00,95.43
1451.00,95.22
1450.00,95.02
1449.00,94.81
1448.00,94.62
1447.00,94.46
1446.00,94.32
1445.00,94.18
1444.00,94.02
1443.00,93.87
1442.00,93.73
1441.00,93.61
1440.00,93.51
1439.00,93.45
1438.00,93.42
1437.00,93.44
1436.00,93.51
1435.00,93.63
1434.00,93.75
1433.00,93.87
1432.00,94.01
1431.00,94.20
1430.00,94.41
1429.00,94.62
1428.00,94.81
1427.00,94.98
1426.00,95.14
1425.00,95.30
1424.00,95.47
1423.00,95.63
1422.00,95.76
1421.00,95.89
1420.00,96.03
1419.00,96.19
1418.00,96.33
1417.00,96.45
1416.00,96.54
1415.00,96.63
1414.00,96.71
1413.00,96.79
1412.00,96.86
1411.00,96.94
1410.00,97.00
1409.00,97.06
1408.00,97.11
1407.00,97.16
1406.00,97.20
1405.00,97.24
1404.00,97.27
1403.00,97.30
1402.00,97.32
1401.00,97.34
1400.00,97.36
1399.00,97.36
1398.00,97.35
1397.00,97.34
1396.00,97.32
1395.00,97.31
1394.00,97.30
1393.00,97.29
1392.00,97.27
1391.00,97.24
1390.00,97.20
1389.00,97.16
1388.00,97.13
1387.00,97.09
1386.00,97.06
1385.00,97.03
1384.00,97.02
1383.00,97.00
1382.00,96.97
1381.00,96.94
1380.00,96.90
1379.00,96.86
1378.00,96.81
1377.00,96.76
1376.00,96.72
1375.00,96.68
1374.00,96.63
1373.00,96.59
1372.00,96.54
1371.00,96.49
1370.00,96.44
1369.00,96.38
1368.00,96.32
1367.00,96.27
1366.00,96.23
1365.00,96.19
1364.00,96.14
1363.00,96.08
1362.00,96.04
1361.00,96.00
1360.00,95.96
1359.00,95.93
1358.00,95.90
1357.00,95.87
1356.00,95.85
1355.00,95.84
1354.00,95.85
1353.00,95.86
1352.00,95.88
1351.00,95.89
1350.00,95.91
1349.00,95.94
1348.00,95.98
1347.00,96.02
1346.00,96.07
1345.00,96.11
1344.00,96.14
1343.00,96.17
1342.00,96.19
1341.00,96.21
1340.00,96.23
1339.00,96.24
1338.00,96.26
1337.00,96.27
1336.00,96.29
1335.00,96.32
1334.00,96.34
1333.00,96.35
1332.00,96.35
1331.00,96.34
1330.00,96.33
1329.00,96.32
1328.00,96.32
1327.00,96.31
1326.00,96.30
1325.00,96.28
1324.00,96.26
1323.00,96.25
1322.00,96.26
1321.00,96.26
1320.00,96.26
1319.00,96.26
1318.00,96.26
1317.00,96.26
1316.00,96.26
1315.00,96.26
1314.00,96.25
1313.00,96.23
1312.00,96.22
1311.00,96.21
1310.00,96.21
1309.00,96.20
1308.00,96.19
1307.00,96.17
1306.00,96.14
1305.00,96.11
1304.00,96.07
1303.00,96.05
1302.00,96.03
1301.00,96.01
1300.00,96.00
1299.00,95.99
1298.00,95.98
1297.00,95.97
1296.00,95.95
1295.00,95.94
1294.00,95.92
1293.00,95.90
1292.00,95.88
1291.00,95.86
1290.00,95.83
1289.00,95.81
1288.00,95.81
1287.00,95.82
1286.00,95.83
1285.00,95.82
1284.00,95.80
1283.00,95.77
1282.00,95.75
1281.00,95.73
1280.00,95.72
1279.00,95.71
1278.00,95.70
1277.00,95.68
1276.00,95.66
1275.00,95.63
1274.00,95.58
1273.00,95.53
1272.00,95.49
1271.00,95.45
1270.00,95.41
1269.00,95.37
1268.00,95.32
1267.00,95.26
1266.00,95.20
1265.00,95.15
1264.00,95.09
1263.00,95.03
1262.00,94.97
1261.00,94.92
1260.00,94.87
1259.00,94.83
1258.00,94.80
1257.00,94.76
1256.00,94.73
1255.00,94.70
1254.00,94.68
1253.00,94.66
1252.00,94.66
1251.00,94.66
1250.00,94.67
1249.00,94.67
1248.00,94.67
1247.00,94.66
1246.00,94.65
1245.00,94.65
1244.00,94.64
1243.00,94.63
1242.00,94.62
1241.00,94.60
1240.00,94.59
1239.00,94.58
1238.00,94.57
1237.00,94.56
1236.00,94.56
1235.00,94.57
1234.00,94.59
1233.00,94.61
1232.00,94.64
1231.00,94.68
1230.00,94.71
1229.00,94.74
1228.00,94.76
1227.00,94.78
1226.00,94.79
1225.00,94.80
1224.00,94.79
1223.00,94.79
1222.00,94.79
1221.00,94.80
1220.00,94.80
1219.00,94.80
1218.00,94.80
1217.00,94.82
1216.00,94.82
1215.00,94.81
1214.00,94.78
1213.00,94.76
1212.00,94.77
1211.00,94.79
1210.00,94.82
1209.00,94.84
1208.00,94.86
1207.00,94.88
1206.00,94.90
1205.00,94.91
1204.00,94.92
1203.00,94.92
1202.00,94.92
1201.00,94.93
1200.00,94.94
1199.00,94.96
1198.00,94.96
1197.00,94.97
1196.00,94.97
1195.00,94.98
1194.00,95.00
1193.00,95.02
1192.00,95.05
1191.00,95.08
1190.00,95.11
1189.00,95.12
1188.00,95.12
1187.00,95.12
1186.00,95.11
1185.00,95.10
1184.00,95.07
1183.00,95.05
1182.00,95.04
1181.00,95.03
1180.00,95.03
1179.00,95.03
1178.00,95.04
1177.00,95.06
1176.00,95.08
1175.00,95.11
1174.00,95.17
1173.00,95.24
1172.00,95.30
1171.00,95.35
1170.00,95.40
1169.00,95.46
1168.00,95.52
1167.00,95.59
1166.00,95.66
1165.00,95.73
1164.00,95.81
1163.00,95.90
1162.00,95.96
1161.00,96.01
1160.00,96.02
1159.00,96.02
1158.00,96.02
1157.00,96.03
1156.00,96.05
1155.00,96.06
1154.00,96.06
1153.00,96.05
1152.00,96.02
1151.00,95.99
1150.00,95.96
1149.00,95.98
1148.00,96.03
1147.00,96.10
1146.00,96.17
1145.00,96.21
1144.00,96.22
1143.00,96.22
1142.00,96.21
1141.00,96.20
1140.00,96.20
1139.00,96.21
1138.00,96.21
1137.00,96.21
1136.00,96.21
1135.00,96.20
1134.00,96.17
1133.00,96.13
1132.00,96.09
1131.00,96.06
1130.00,96.04
1129.00,96.01
1128.00,95.98
1127.00,95.95
1126.00,95.91
1125.00,95.86
1124.00,95.81
1123.00,95.77
1122.00,95.73
1121.00,95.70
1120.00,95.68
1119.00,95.66
1118.00,95.64
1117.00,95.61
1116.00,95.55
1115.00,95.48
1114.00,95.40
1113.00,95.32
1112.00,95.25
1111.00,95.21
1110.00,95.20
1109.00,95.20
1108.00,95.17
1107.00,95.11
1106.00,95.05
1105.00,94.99
1104.00,94.94
1103.00,94.89
1102.00,94.83
1101.00,94.76
1100.00,94.71
1099.00,94.69
1098.00,94.68
1097.00,94.69
1096.00,94.69
1095.00,94.67
1094.00,94.64
1093.00,94.59
1092.00,94.55
1091.00,94.52
1090.00,94.50
1089.00,94.48
1088.00,94.46
1087.00,94.45
1086.00,94.43
1085.00,94.41
1084.00,94.38
1083.00,94.36
1082.00,94.34
1081.00,94.31
1080.00,94.27
1079.00,94.23
1078.00,94.18
1077.00,94.12
1076.00,94.07
1075.00,94.02
1074.00,93.99
1073.00,93.97
1072.00,93.98
1071.00,93.99
1070.00,93.98
1069.00,93.95
1068.00,93.90
1067.00,93.85
1066.00,93.82
1065.00,93.79
1064.00,93.76
1063.00,93.73
1062.00,93.70
1061.00,93.68
1060.00,93.68
1059.00,93.68
1058.00,93.67
1057.00,93.63
1056.00,93.60
1055.00,93.58
1054.00,93.59
1053.00,93.61
1052.00,93.62
1051.00,93.61
1050.00,93.59
1049.00,93.57
1048.00,93.54
1047.00,93.52
1046.00,93.51
1045.00,93.51
1044.00,93.50
1043.00,93.47
1042.00,93.45
1041.00,93.43
1040.00,93.44
1039.00,93.45
1038.00,93.48
1037.00,93.52
1036.00,93.57
1035.00,93.64
1034.00,93.70
1033.00,93.76
1032.00,93.81
1031.00,93.86
1030.00,93.93
1029.00,93.99
1028.00,94.03
1027.00,94.08
1026.00,94.14
1025.00,94.20
1024.00,94.25
1023.00,94.28
1022.00,94.30
1021.00,94.31
1020.00,94.32
1019.00,94.32
1018.00,94.32
1017.00,94.32
1016.00,94.32
1015.00,94.29
1014.00,94.24
1013.00,94.18
1012.00,94.13
1011.00,94.12
1010.00,94.13
1009.00,94.17
1008.00,94.21
1007.00,94.24
1006.00,94.26
1005.00,94.27
1004.00,94.27
1003.00,94.27
1002.00,94.27
1001.00,94.26
1000.00,94.25
999.00,94.25
998.00,94.27
997.00,94.30
996.00,94.32
995.00,94.33
994.00,94.35
993.00,94.36
992.00,94.37
991.00,94.37
990.00,94.38
989.00,94.38
988.00,94.40
987.00,94.43
986.00,94.46
985.00,94.49
984.00,94.52
983.00,94.53
982.00,94.54
981.00,94.56
980.00,94.59
979.00,94.61
978.00,94.63
977.00,94.64
976.00,94.65
975.00,94.66
974.00,94.67
973.00,94.68
972.00,94.69
971.00,94.69
970.00,94.70
969.00,94.71
968.00,94.73
967.00,94.76
966.00,94.76
965.00,94.75
964.00,94.74
963.00,94.73
962.00,94.76
961.00,94.81
960.00,94.86
959.00,94.89
958.00,94.89
957.00,94.88
956.00,94.87
955.00,94.87
954.00,94.87
953.00,94.89
952.00,94.92
951.00,94.96
950.00,94.98
949.00,94.99
948.00,94.99
947.00,94.99
946.00,94.99
945.00,94.99
944.00,94.99
943.00,94.99
942.00,95.00
941.00,95.01
940.00,95.01
939.00,95.00
938.00,95.01
937.00,95.03
936.00,95.06
935.00,95.08
934.00,95.08
933.00,95.07
932.00,95.06
931.00,95.06
930.00,95.08
929.00,95.09
928.00,95.11
927.00,95.12
926.00,95.12
925.00,95.10
924.00,95.07
923.00,95.06
922.00,95.06
921.00,95.06
920.00,95.08
919.00,95.10
918.00,95.11
917.00,95.10
916.00,95.08
915.00,95.07
914.00,95.08
913.00,95.09
912.00,95.09
911.00,95.08
910.00,95.07
909.00,95.06
908.00,95.05
907.00,95.05
906.00,95.06
905.00,95.08
904.00,95.10
903.00,95.12
902.00,95.14
901.00,95.16
900.00,95.19
899.00,95.22
898.00,95.25
897.00,95.27
896.00,95.27
895.00,95.27
894.00,95.28
893.00,95.30
892.00,95.31
891.00,95.34
890.00,95.37
889.00,95.39
888.00,95.40
887.00,95.40
886.00,95.39
885.00,95.39
884.00,95.40
883.00,95.41
882.00,95.41
881.00,95.41
880.00,95.41
879.00,95.42
878.00,95.43
877.00,95.44
876.00,95.42
875.00,95.40
874.00,95.39
873.00,95.40
872.00,95.42
871.00,95.46
870.00,95.49
869.00,95.52
868.00,95.54
867.00,95.57
866.00,95.60
865.00,95.62
864.00,95.64
863.00,95.65
862.00,95.66
861.00,95.67
860.00,95.66
859.00,95.63
858.00,95.60
857.00,95.59
856.00,95.59
855.00,95.58
854.00,95.58
853.00,95.57
852.00,95.58
851.00,95.60
850.00,95.63
849.00,95.65
848.00,95.67
847.00,95.68
846.00,95.68
845.00,95.68
844.00,95.69
843.00,95.71
842.00,95.73
841.00,95.74
840.00,95.73
839.00,95.71
838.00,95.72
837.00,95.76
836.00,95.81
835.00,95.86
834.00,95.88
833.00,95.89
832.00,95.92
831.00,95.97
830.00,96.00
829.00,96.00
828.00,95.98
827.00,95.96
826.00,95.96
825.00,95.97
824.00,95.97
823.00,95.96
822.00,95.95
821.00,95.93
820.00,95.93
819.00,95.93
818.00,95.93
817.00,95.92
816.00,95.91
815.00,95.93
814.00,95.96
813.00,95.98
812.00,95.99
811.00,95.97
810.00,95.96
809.00,95.92
808.00,95.88
807.00,95.84
806.00,95.83
805.00,95.87
804.00,95.90
803.00,95.92
802.00,95.91
801.00,95.90
800.00,95.87
799.00,95.85
798.00,95.84
797.00,95.85
796.00,95.86
795.00,95.86
794.00,95.86
793.00,95.86
792.00,95.86
791.00,95.86
790.00,95.85
789.00,95.83
788.00,95.82
787.00,95.80
786.00,95.79
785.00,95.78
784.00,95.77
783.00,95.75
782.00,95.72
781.00,95.70
780.00,95.69
779.00,95.69
778.00,95.70
777.00,95.71
776.00,95.73
775.00,95.76
774.00,95.78
773.00,95.79
772.00,95.78
771.00,95.77
770.00,95.79
769.00,95.81
768.00,95.82
767.00,95.81
766.00,95.77
765.00,95.74
764.00,95.73
763.00,95.72
762.00,95.71
761.00,95.70
760.00,95.69
759.00,95.71
758.00,95.73
757.00,95.75
756.00,95.76
755.00,95.77
754.00,95.79
753.00,95.82
752.00,95.86
751.00,95.87
750.00,95.84
749.00,95.81
748.00,95.79
747.00,95.79
746.00,95.80
745.00,95.82
744.00,95.83
743.00,95.86
742.00,95.91
741.00,95.99
740.00,96.02
739.00,95.98
738.00,95.88
737.00,95.76
736.00,95.69
735.00,95.67
734.00,95.67
733.00,95.66
732.00,95.64
731.00,95.60
730.00,95.56
729.00,95.51
728.00,95.46
727.00,95.42
726.00,95.39
725.00,95.34
724.00,95.27
723.00,95.19
722.00,95.13
721.00,95.09
720.00,95.07
719.00,95.03
718.00,94.98
717.00,94.93
716.00,94.88
715.00,94.84
714.00,94.77
713.00,94.69
712.00,94.60
711.00,94.53
710.00,94.46
709.00,94.38
708.00,94.29
707.00,94.22
706.00,94.19
705.00,94.19
704.00,94.20
703.00,94.19
702.00,94.15
701.00,94.09
700.00,94.05
699.00,94.01
698.00,93.96
697.00,93.89
696.00,93.83
695.00,93.82
694.00,93.85
693.00,93.90
692.00,93.91
691.00,93.87
690.00,93.81
689.00,93.74
688.00,93.70
687.00,93.72
686.00,93.79
685.00,93.85
684.00,93.86
683.00,93.79
682.00,93.68
681.00,93.58
680.00,93.55
679.00,93.60
678.00,93.66
677.00,93.64
676.00,93.52
675.00,93.34
674.00,93.19
673.00,93.13
672.00,93.14
671.00,93.20
670.00,93.27
669.00,93.33
668.00,93.33
667.00,93.25
666.00,93.13
665.00,92.98
664.00,92.81
663.00,92.66
662.00,92.57
661.00,92.51
660.00,92.45
659.00,92.34
658.00,92.17
657.00,91.91
656.00,91.63
655.00,91.40
654.00,91.26
653.00,91.19
652.00,91.11
651.00,91.01
650.00,90.93
649.00,90.87
648.00,90.79
647.00,90.64
646.00,90.44
645.00,90.24
644.00,90.11
643.00,90.02
642.00,89.92
641.00,89.78
640.00,89.63
639.00,89.55
638.00,89.56
637.00,89.62
636.00,89.66
635.00,89.66
634.00,89.63
633.00,89.63
632.00,89.68
631.00,89.74
630.00,89.70
629.00,89.48
628.00,89.10
627.00,88.71
626.00,88.47
625.00,88.44
624.00,88.57
623.00,88.72
622.00,88.74
621.00,88.59
620.00,88.41
619.00,88.37
618.00,88.52
617.00,88.77
616.00,89.02
615.00,89.21
614.00,89.30
613.00,89.28
612.00,89.19
611.00,89.10
610.00,89.02
609.00,88.95
608.00,88.93
607.00,88.95
606.00,89.01
605.00,89.02
604.00,88.81
603.00,88.14
602.00,87.06
601.00,86.10
600.00,86.08
599.00,87.27
598.00,88.95
597.00,90.13
596.00,90.43
595.00,90.23
594.00,89.99
593.00,89.88
592.00,89.91
591.00,90.16
590.00,90.58
589.00,90.99
588.00,91.28
587.00,91.50
586.00,91.67
585.00,91.66
584.00,91.37
583.00,90.92
582.00,90.48
581.00,90.12
580.00,89.99
579.00,90.42
578.00,91.45
577.00,92.59
576.00,93.16
575.00,92.82
574.00,91.95
573.00,91.28
572.00,91.20
571.00,91.55
570.00,91.76
569.00,91.47
568.00,90.97
567.00,90.87
566.00,91.36
565.00,92.02
564.00,92.40
563.00,92.37
562.00,92.08
561.00,91.76
560.00,91.55
559.00,91.52
558.00,91.54
557.00,91.45
556.00,91.26
555.00,91.10
554.00,91.11
553.00,91.30
552.00,91.63
551.00,91.92
550.00,91.99
