Created as New Dataset,62 Modacrylic Snia Velicren FR Italy
cm-1,%T
4000.00,100.30
3999.00,100.29
3998.00,100.27
3997.00,100.25
3996.00,100.25
3995.00,100.25
3994.00,100.26
3993.00,100.26
3992.00,100.25
3991.00,100.24
3990.00,100.24
3989.00,100.24
3988.00,100.26
3987.00,100.27
3986.00,100.28
3985.00,100.27
3984.00,100.26
3983.00,100.25
3982.00,100.24
3981.00,100.25
3980.00,100.26
3979.00,100.28
3978.00,100.29
3977.00,100.29
3976.00,100.28
3975.00,100.27
3974.00,100.26
3973.00,100.26
3972.00,100.28
3971.00,100.29
3970.00,100.31
3969.00,100.31
3968.00,100.30
3967.00,100.28
3966.00,100.27
3965.00,100.26
3964.00,100.27
3963.00,100.28
3962.00,100.29
3961.00,100.29
3960.00,100.29
3959.00,100.29
3958.00,100.29
3957.00,100.28
3956.00,100.27
3955.00,100.27
3954.00,100.27
3953.00,100.27
3952.00,100.28
3951.00,100.28
3950.00,100.27
3949.00,100.27
3948.00,100.27
3947.00,100.26
3946.00,100.25
3945.00,100.25
3944.00,100.26
3943.00,100.28
3942.00,100.29
3941.00,100.29
3940.00,100.27
3939.00,100.25
3938.00,100.24
3937.00,100.24
3936.00,100.24
3935.00,100.24
3934.00,100.25
3933.00,100.27
3932.00,100.29
3931.00,100.30
3930.00,100.29
3929.00,100.27
3928.00,100.25
3927.00,100.23
3926.00,100.23
3925.00,100.23
3924.00,100.24
3923.00,100.25
3922.00,100.25
3921.00,100.27
3920.00,100.28
3919.00,100.28
3918.00,100.28
3917.00,100.28
3916.00,100.28
3915.00,100.27
3914.00,100.25
3913.00,100.22
3912.00,100.19
3911.00,100.19
3910.00,100.20
3909.00,100.21
3908.00,100.23
3907.00,100.24
3906.00,100.23
3905.00,100.23
3904.00,100.24
3903.00,100.25
3902.00,100.24
3901.00,100.24
3900.00,100.24
3899.00,100.24
3898.00,100.24
3897.00,100.23
3896.00,100.21
3895.00,100.18
3894.00,100.17
3893.00,100.17
3892.00,100.19
3891.00,100.23
3890.00,100.25
3889.00,100.23
3888.00,100.20
3887.00,100.18
3886.00,100.20
3885.00,100.20
3884.00,100.18
3883.00,100.14
3882.00,100.14
3881.00,100.18
3880.00,100.23
3879.00,100.24
3878.00,100.20
3877.00,100.15
3876.00,100.13
3875.00,100.14
3874.00,100.16
3873.00,100.14
3872.00,100.11
3871.00,100.10
3870.00,100.13
3869.00,100.17
3868.00,100.17
3867.00,100.16
3866.00,100.18
3865.00,100.22
3864.00,100.25
3863.00,100.24
3862.00,100.23
3861.00,100.23
3860.00,100.23
3859.00,100.23
3858.00,100.22
3857.00,100.19
3856.00,100.14
3855.00,100.11
3854.00,100.10
3853.00,100.09
3852.00,100.07
3851.00,100.07
3850.00,100.10
3849.00,100.15
3848.00,100.21
3847.00,100.24
3846.00,100.24
3845.00,100.23
3844.00,100.21
3843.00,100.19
3842.00,100.15
3841.00,100.12
3840.00,100.11
3839.00,100.13
3838.00,100.16
3837.00,100.17
3836.00,100.15
3835.00,100.13
3834.00,100.11
3833.00,100.12
3832.00,100.15
3831.00,100.17
3830.00,100.17
3829.00,100.17
3828.00,100.17
3827.00,100.20
3826.00,100.23
3825.00,100.22
3824.00,100.19
3823.00,100.15
3822.00,100.14
3821.00,100.15
3820.00,100.11
3819.00,100.04
3818.00,99.99
3817.00,100.03
3816.00,100.12
3815.00,100.19
3814.00,100.20
3813.00,100.19
3812.00,100.19
3811.00,100.21
3810.00,100.21
3809.00,100.20
3808.00,100.20
3807.00,100.22
3806.00,100.20
3805.00,100.13
3804.00,100.05
3803.00,100.03
3802.00,100.08
3801.00,100.14
3800.00,100.14
3799.00,100.11
3798.00,100.09
3797.00,100.11
3796.00,100.14
3795.00,100.16
3794.00,100.16
3793.00,100.16
3792.00,100.17
3791.00,100.18
3790.00,100.17
3789.00,100.16
3788.00,100.15
3787.00,100.15
3786.00,100.17
3785.00,100.19
3784.00,100.20
3783.00,100.19
3782.00,100.16
3781.00,100.13
3780.00,100.13
3779.00,100.15
3778.00,100.17
3777.00,100.17
3776.00,100.18
3775.00,100.20
3774.00,100.20
3773.00,100.18
3772.00,100.15
3771.00,100.14
3770.00,100.14
3769.00,100.12
3768.00,100.08
3767.00,100.05
3766.00,100.06
3765.00,100.09
3764.00,100.11
3763.00,100.11
3762.00,100.09
3761.00,100.09
3760.00,100.10
3759.00,100.10
3758.00,100.09
3757.00,100.09
3756.00,100.09
3755.00,100.09
3754.00,100.10
3753.00,100.12
3752.00,100.11
3751.00,100.07
3750.00,100.03
3749.00,100.00
3748.00,99.97
3747.00,99.93
3746.00,99.92
3745.00,99.97
3744.00,100.04
3743.00,100.04
3742.00,100.01
3741.00,99.99
3740.00,99.98
3739.00,99.97
3738.00,99.96
3737.00,99.95
3736.00,99.96
3735.00,99.95
3734.00,99.93
3733.00,99.93
3732.00,99.94
3731.00,99.97
3730.00,99.98
3729.00,100.00
3728.00,100.03
3727.00,100.06
3726.00,100.07
3725.00,100.05
3724.00,100.02
3723.00,100.00
3722.00,99.99
3721.00,99.99
3720.00,100.00
3719.00,100.01
3718.00,100.04
3717.00,100.06
3716.00,100.07
3715.00,100.05
3714.00,100.04
3713.00,100.03
3712.00,100.00
3711.00,99.96
3710.00,99.92
3709.00,99.90
3708.00,99.93
3707.00,99.97
3706.00,100.01
3705.00,100.01
3704.00,99.99
3703.00,99.97
3702.00,99.96
3701.00,99.97
3700.00,99.98
3699.00,99.98
3698.00,99.99
3697.00,100.01
3696.00,100.03
3695.00,100.04
3694.00,100.04
3693.00,100.04
3692.00,100.03
3691.00,100.01
3690.00,99.98
3689.00,99.95
3688.00,99.95
3687.00,99.97
3686.00,100.01
3685.00,100.05
3684.00,100.10
3683.00,100.12
3682.00,100.11
3681.00,100.08
3680.00,100.04
3679.00,99.98
3678.00,99.90
3677.00,99.86
3676.00,99.88
3675.00,99.93
3674.00,99.93
3673.00,99.89
3672.00,99.85
3671.00,99.84
3670.00,99.84
3669.00,99.83
3668.00,99.83
3667.00,99.85
3666.00,99.89
3665.00,99.94
3664.00,99.98
3663.00,99.99
3662.00,99.99
3661.00,99.99
3660.00,99.98
3659.00,99.97
3658.00,99.95
3657.00,99.94
3656.00,99.94
3655.00,99.92
3654.00,99.89
3653.00,99.86
3652.00,99.85
3651.00,99.85
3650.00,99.83
3649.00,99.79
3648.00,99.76
3647.00,99.77
3646.00,99.80
3645.00,99.82
3644.00,99.83
3643.00,99.84
3642.00,99.86
3641.00,99.88
3640.00,99.90
3639.00,99.91
3638.00,99.91
3637.00,99.90
3636.00,99.87
3635.00,99.85
3634.00,99.84
3633.00,99.82
3632.00,99.78
3631.00,99.72
3630.00,99.71
3629.00,99.74
3628.00,99.77
3627.00,99.78
3626.00,99.78
3625.00,99.78
3624.00,99.78
3623.00,99.77
3622.00,99.75
3621.00,99.74
3620.00,99.74
3619.00,99.74
3618.00,99.74
3617.00,99.72
3616.00,99.70
3615.00,99.71
3614.00,99.74
3613.00,99.79
3612.00,99.81
3611.00,99.80
3610.00,99.77
3609.00,99.75
3608.00,99.75
3607.00,99.76
3606.00,99.77
3605.00,99.78
3604.00,99.81
3603.00,99.85
3602.00,99.88
3601.00,99.88
3600.00,99.86
3599.00,99.82
3598.00,99.78
3597.00,99.76
3596.00,99.76
3595.00,99.78
3594.00,99.80
3593.00,99.82
3592.00,99.83
3591.00,99.84
3590.00,99.85
3589.00,99.86
3588.00,99.87
3587.00,99.86
3586.00,99.85
3585.00,99.84
3584.00,99.84
3583.00,99.84
3582.00,99.85
3581.00,99.85
3580.00,99.86
3579.00,99.87
3578.00,99.88
3577.00,99.88
3576.00,99.88
3575.00,99.87
3574.00,99.87
3573.00,99.87
3572.00,99.87
3571.00,99.86
3570.00,99.84
3569.00,99.82
3568.00,99.80
3567.00,99.77
3566.00,99.76
3565.00,99.75
3564.00,99.76
3563.00,99.79
3562.00,99.82
3561.00,99.84
3560.00,99.85
3559.00,99.84
3558.00,99.82
3557.00,99.81
3556.00,99.82
3555.00,99.83
3554.00,99.85
3553.00,99.87
3552.00,99.88
3551.00,99.87
3550.00,99.85
3549.00,99.82
3548.00,99.82
3547.00,99.83
3546.00,99.86
3545.00,99.88
3544.00,99.87
3543.00,99.87
3542.00,99.88
3541.00,99.91
3540.00,99.94
3539.00,99.95
3538.00,99.93
3537.00,99.90
3536.00,99.87
3535.00,99.86
3534.00,99.86
3533.00,99.85
3532.00,99.84
3531.00,99.81
3530.00,99.79
3529.00,99.79
3528.00,99.81
3527.00,99.83
3526.00,99.85
3525.00,99.86
3524.00,99.86
3523.00,99.85
3522.00,99.85
3521.00,99.85
3520.00,99.86
3519.00,99.87
3518.00,99.88
3517.00,99.89
3516.00,99.88
3515.00,99.86
3514.00,99.84
3513.00,99.83
3512.00,99.81
3511.00,99.80
3510.00,99.80
3509.00,99.81
3508.00,99.82
3507.00,99.83
3506.00,99.83
3505.00,99.82
3504.00,99.80
3503.00,99.78
3502.00,99.76
3501.00,99.76
3500.00,99.79
3499.00,99.83
3498.00,99.86
3497.00,99.87
3496.00,99.87
3495.00,99.88
3494.00,99.89
3493.00,99.91
3492.00,99.92
3491.00,99.91
3490.00,99.89
3489.00,99.88
3488.00,99.87
3487.00,99.86
3486.00,99.84
3485.00,99.82
3484.00,99.80
3483.00,99.78
3482.00,99.78
3481.00,99.79
3480.00,99.81
3479.00,99.83
3478.00,99.84
3477.00,99.85
3476.00,99.86
3475.00,99.86
3474.00,99.87
3473.00,99.88
3472.00,99.89
3471.00,99.89
3470.00,99.90
3469.00,99.90
3468.00,99.89
3467.00,99.89
3466.00,99.89
3465.00,99.89
3464.00,99.88
3463.00,99.86
3462.00,99.85
3461.00,99.84
3460.00,99.82
3459.00,99.81
3458.00,99.81
3457.00,99.82
3456.00,99.83
3455.00,99.84
3454.00,99.85
3453.00,99.85
3452.00,99.85
3451.00,99.85
3450.00,99.84
3449.00,99.84
3448.00,99.85
3447.00,99.87
3446.00,99.89
3445.00,99.90
3444.00,99.90
3443.00,99.89
3442.00,99.89
3441.00,99.89
3440.00,99.89
3439.00,99.88
3438.00,99.86
3437.00,99.86
3436.00,99.86
3435.00,99.88
3434.00,99.90
3433.00,99.91
3432.00,99.90
3431.00,99.88
3430.00,99.86
3429.00,99.83
3428.00,99.81
3427.00,99.81
3426.00,99.82
3425.00,99.84
3424.00,99.86
3423.00,99.87
3422.00,99.87
3421.00,99.87
3420.00,99.86
3419.00,99.85
3418.00,99.85
3417.00,99.86
3416.00,99.87
3415.00,99.89
3414.00,99.90
3413.00,99.89
3412.00,99.89
3411.00,99.88
3410.00,99.87
3409.00,99.85
3408.00,99.83
3407.00,99.82
3406.00,99.82
3405.00,99.83
3404.00,99.83
3403.00,99.82
3402.00,99.82
3401.00,99.83
3400.00,99.85
3399.00,99.87
3398.00,99.88
3397.00,99.88
3396.00,99.87
3395.00,99.85
3394.00,99.83
3393.00,99.82
3392.00,99.81
3391.00,99.81
3390.00,99.81
3389.00,99.82
3388.00,99.83
3387.00,99.86
3386.00,99.88
3385.00,99.89
3384.00,99.88
3383.00,99.88
3382.00,99.87
3381.00,99.88
3380.00,99.88
3379.00,99.88
3378.00,99.88
3377.00,99.88
3376.00,99.87
3375.00,99.87
3374.00,99.85
3373.00,99.84
3372.00,99.83
3371.00,99.83
3370.00,99.83
3369.00,99.82
3368.00,99.81
3367.00,99.81
3366.00,99.82
3365.00,99.83
3364.00,99.83
3363.00,99.82
3362.00,99.80
3361.00,99.80
3360.00,99.81
3359.00,99.81
3358.00,99.81
3357.00,99.80
3356.00,99.80
3355.00,99.80
3354.00,99.80
3353.00,99.80
3352.00,99.81
3351.00,99.81
3350.00,99.82
3349.00,99.81
3348.00,99.81
3347.00,99.81
3346.00,99.82
3345.00,99.84
3344.00,99.84
3343.00,99.84
3342.00,99.84
3341.00,99.84
3340.00,99.84
3339.00,99.84
3338.00,99.83
3337.00,99.82
3336.00,99.81
3335.00,99.80
3334.00,99.80
3333.00,99.81
3332.00,99.82
3331.00,99.83
3330.00,99.83
3329.00,99.81
3328.00,99.78
3327.00,99.77
3326.00,99.77
3325.00,99.79
3324.00,99.82
3323.00,99.84
3322.00,99.87
3321.00,99.88
3320.00,99.88
3319.00,99.88
3318.00,99.88
3317.00,99.87
3316.00,99.86
3315.00,99.85
3314.00,99.83
3313.00,99.81
3312.00,99.80
3311.00,99.81
3310.00,99.82
3309.00,99.84
3308.00,99.85
3307.00,99.84
3306.00,99.82
3305.00,99.80
3304.00,99.78
3303.00,99.76
3302.00,99.75
3301.00,99.75
3300.00,99.77
3299.00,99.80
3298.00,99.83
3297.00,99.85
3296.00,99.85
3295.00,99.83
3294.00,99.82
3293.00,99.82
3292.00,99.83
3291.00,99.84
3290.00,99.84
3289.00,99.84
3288.00,99.85
3287.00,99.85
3286.00,99.84
3285.00,99.84
3284.00,99.83
3283.00,99.82
3282.00,99.83
3281.00,99.86
3280.00,99.89
3279.00,99.91
3278.00,99.92
3277.00,99.90
3276.00,99.89
3275.00,99.87
3274.00,99.86
3273.00,99.85
3272.00,99.85
3271.00,99.85
3270.00,99.85
3269.00,99.84
3268.00,99.83
3267.00,99.83
3266.00,99.85
3265.00,99.86
3264.00,99.87
3263.00,99.88
3262.00,99.89
3261.00,99.89
3260.00,99.89
3259.00,99.88
3258.00,99.86
3257.00,99.85
3256.00,99.84
3255.00,99.84
3254.00,99.84
3253.00,99.84
3252.00,99.85
3251.00,99.86
3250.00,99.87
3249.00,99.88
3248.00,99.87
3247.00,99.87
3246.00,99.87
3245.00,99.87
3244.00,99.87
3243.00,99.88
3242.00,99.87
3241.00,99.87
3240.00,99.86
3239.00,99.86
3238.00,99.87
3237.00,99.88
3236.00,99.89
3235.00,99.88
3234.00,99.87
3233.00,99.87
3232.00,99.88
3231.00,99.89
3230.00,99.88
3229.00,99.87
3228.00,99.86
3227.00,99.85
3226.00,99.84
3225.00,99.84
3224.00,99.84
3223.00,99.85
3222.00,99.85
3221.00,99.87
3220.00,99.88
3219.00,99.91
3218.00,99.94
3217.00,99.96
3216.00,99.95
3215.00,99.93
3214.00,99.90
3213.00,99.88
3212.00,99.88
3211.00,99.87
3210.00,99.87
3209.00,99.88
3208.00,99.88
3207.00,99.90
3206.00,99.92
3205.00,99.93
3204.00,99.93
3203.00,99.92
3202.00,99.90
3201.00,99.90
3200.00,99.90
3199.00,99.91
3198.00,99.91
3197.00,99.90
3196.00,99.88
3195.00,99.87
3194.00,99.88
3193.00,99.90
3192.00,99.92
3191.00,99.93
3190.00,99.94
3189.00,99.94
3188.00,99.94
3187.00,99.92
3186.00,99.91
3185.00,99.89
3184.00,99.89
3183.00,99.90
3182.00,99.91
3181.00,99.92
3180.00,99.93
3179.00,99.94
3178.00,99.95
3177.00,99.97
3176.00,99.98
3175.00,99.99
3174.00,99.99
3173.00,99.97
3172.00,99.96
3171.00,99.97
3170.00,99.98
3169.00,99.99
3168.00,100.01
3167.00,100.02
3166.00,100.02
3165.00,100.02
3164.00,100.00
3163.00,99.98
3162.00,99.96
3161.00,99.96
3160.00,99.96
3159.00,99.96
3158.00,99.96
3157.00,99.95
3156.00,99.95
3155.00,99.96
3154.00,99.97
3153.00,99.98
3152.00,99.98
3151.00,99.97
3150.00,99.97
3149.00,99.98
3148.00,99.99
3147.00,99.98
3146.00,99.98
3145.00,99.99
3144.00,100.00
3143.00,100.01
3142.00,100.02
3141.00,100.01
3140.00,100.00
3139.00,99.99
3138.00,100.00
3137.00,100.01
3136.00,100.01
3135.00,100.00
3134.00,99.97
3133.00,99.96
3132.00,99.95
3131.00,99.96
3130.00,99.96
3129.00,99.96
3128.00,99.97
3127.00,99.99
3126.00,100.01
3125.00,100.02
3124.00,100.02
3123.00,100.00
3122.00,99.98
3121.00,99.97
3120.00,99.99
3119.00,100.01
3118.00,100.02
3117.00,100.01
3116.00,100.00
3115.00,100.00
3114.00,100.00
3113.00,99.99
3112.00,99.99
3111.00,99.98
3110.00,99.97
3109.00,99.98
3108.00,99.99
3107.00,100.01
3106.00,100.02
3105.00,100.02
3104.00,100.01
3103.00,100.00
3102.00,99.99
3101.00,99.99
3100.00,99.99
3099.00,99.99
3098.00,99.98
3097.00,99.98
3096.00,99.98
3095.00,99.98
3094.00,99.99
3093.00,99.98
3092.00,99.97
3091.00,99.96
3090.00,99.95
3089.00,99.95
3088.00,99.96
3087.00,99.96
3086.00,99.97
3085.00,99.98
3084.00,99.98
3083.00,99.97
3082.00,99.94
3081.00,99.91
3080.00,99.91
3079.00,99.93
3078.00,99.95
3077.00,99.96
3076.00,99.96
3075.00,99.95
3074.00,99.94
3073.00,99.95
3072.00,99.96
3071.00,99.97
3070.00,99.97
3069.00,99.95
3068.00,99.92
3067.00,99.91
3066.00,99.91
3065.00,99.93
3064.00,99.94
3063.00,99.93
3062.00,99.91
3061.00,99.90
3060.00,99.89
3059.00,99.89
3058.00,99.90
3057.00,99.91
3056.00,99.93
3055.00,99.94
3054.00,99.96
3053.00,99.97
3052.00,99.98
3051.00,99.98
3050.00,99.98
3049.00,99.99
3048.00,100.00
3047.00,100.00
3046.00,99.99
3045.00,99.98
3044.00,99.98
3043.00,99.99
3042.00,100.00
3041.00,100.00
3040.00,100.00
3039.00,99.99
3038.00,99.98
3037.00,99.97
3036.00,99.96
3035.00,99.96
3034.00,99.96
3033.00,99.97
3032.00,99.97
3031.00,99.95
3030.00,99.93
3029.00,99.92
3028.00,99.92
3027.00,99.93
3026.00,99.94
3025.00,99.93
3024.00,99.91
3023.00,99.89
3022.00,99.89
3021.00,99.91
3020.00,99.93
3019.00,99.94
3018.00,99.92
3017.00,99.89
3016.00,99.86
3015.00,99.85
3014.00,99.86
3013.00,99.87
3012.00,99.87
3011.00,99.87
3010.00,99.85
3009.00,99.85
3008.00,99.84
3007.00,99.84
3006.00,99.84
3005.00,99.83
3004.00,99.82
3003.00,99.80
3002.00,99.78
3001.00,99.77
3000.00,99.77
2999.00,99.78
2998.00,99.78
2997.00,99.77
2996.00,99.75
2995.00,99.73
2994.00,99.72
2993.00,99.70
2992.00,99.68
2991.00,99.67
2990.00,99.66
2989.00,99.63
2988.00,99.60
2987.00,99.56
2986.00,99.54
2985.00,99.53
2984.00,99.52
2983.00,99.51
2982.00,99.50
2981.00,99.47
2980.00,99.46
2979.00,99.45
2978.00,99.46
2977.00,99.46
2976.00,99.46
2975.00,99.45
2974.00,99.44
2973.00,99.43
2972.00,99.42
2971.00,99.41
2970.00,99.42
2969.00,99.43
2968.00,99.42
2967.00,99.40
2966.00,99.38
2965.00,99.37
2964.00,99.36
2963.00,99.36
2962.00,99.35
2961.00,99.33
2960.00,99.32
2959.00,99.29
2958.00,99.25
2957.00,99.22
2956.00,99.19
2955.00,99.18
2954.00,99.17
2953.00,99.17
2952.00,99.16
2951.00,99.15
2950.00,99.13
2949.00,99.11
2948.00,99.08
2947.00,99.05
2946.00,99.01
2945.00,98.96
2944.00,98.90
2943.00,98.85
2942.00,98.80
2941.00,98.77
2940.00,98.73
2939.00,98.69
2938.00,98.62
2937.00,98.56
2936.00,98.51
2935.00,98.46
2934.00,98.42
2933.00,98.37
2932.00,98.31
2931.00,98.26
2930.00,98.22
2929.00,98.19
2928.00,98.15
2927.00,98.09
2926.00,98.02
2925.00,97.94
2924.00,97.85
2923.00,97.78
2922.00,97.73
2921.00,97.68
2920.00,97.65
2919.00,97.64
2918.00,97.68
2917.00,97.78
2916.00,97.91
2915.00,98.06
2914.00,98.21
2913.00,98.36
2912.00,98.49
2911.00,98.62
2910.00,98.72
2909.00,98.82
2908.00,98.89
2907.00,98.95
2906.00,99.01
2905.00,99.04
2904.00,99.07
2903.00,99.08
2902.00,99.10
2901.00,99.12
2900.00,99.15
2899.00,99.16
2898.00,99.17
2897.00,99.17
2896.00,99.19
2895.00,99.22
2894.00,99.25
2893.00,99.28
2892.00,99.28
2891.00,99.27
2890.00,99.26
2889.00,99.26
2888.00,99.27
2887.00,99.30
2886.00,99.33
2885.00,99.35
2884.00,99.34
2883.00,99.33
2882.00,99.33
2881.00,99.34
2880.00,99.36
2879.00,99.38
2878.00,99.38
2877.00,99.38
2876.00,99.37
2875.00,99.35
2874.00,99.33
2873.00,99.32
2872.00,99.31
2871.00,99.32
2870.00,99.32
2869.00,99.33
2868.00,99.33
2867.00,99.34
2866.00,99.34
2865.00,99.33
2864.00,99.32
2863.00,99.31
2862.00,99.30
2861.00,99.29
2860.00,99.28
2859.00,99.26
2858.00,99.22
2857.00,99.17
2856.00,99.12
2855.00,99.06
2854.00,98.98
2853.00,98.91
2852.00,98.87
2851.00,98.87
2850.00,98.92
2849.00,99.01
2848.00,99.13
2847.00,99.25
2846.00,99.36
2845.00,99.45
2844.00,99.54
2843.00,99.60
2842.00,99.65
2841.00,99.69
2840.00,99.73
2839.00,99.76
2838.00,99.79
2837.00,99.82
2836.00,99.84
2835.00,99.85
2834.00,99.87
2833.00,99.89
2832.00,99.90
2831.00,99.90
2830.00,99.89
2829.00,99.89
2828.00,99.89
2827.00,99.91
2826.00,99.92
2825.00,99.92
2824.00,99.91
2823.00,99.90
2822.00,99.90
2821.00,99.90
2820.00,99.91
2819.00,99.92
2818.00,99.93
2817.00,99.94
2816.00,99.95
2815.00,99.96
2814.00,99.95
2813.00,99.94
2812.00,99.93
2811.00,99.93
2810.00,99.93
2809.00,99.93
2808.00,99.94
2807.00,99.95
2806.00,99.96
2805.00,99.97
2804.00,99.97
2803.00,99.97
2802.00,99.96
2801.00,99.96
2800.00,99.98
2799.00,100.00
2798.00,100.02
2797.00,100.04
2796.00,100.05
2795.00,100.05
2794.00,100.05
2793.00,100.04
2792.00,100.04
2791.00,100.05
2790.00,100.05
2789.00,100.06
2788.00,100.05
2787.00,100.05
2786.00,100.05
2785.00,100.05
2784.00,100.06
2783.00,100.07
2782.00,100.08
2781.00,100.08
2780.00,100.07
2779.00,100.06
2778.00,100.05
2777.00,100.06
2776.00,100.08
2775.00,100.09
2774.00,100.10
2773.00,100.10
2772.00,100.11
2771.00,100.11
2770.00,100.12
2769.00,100.11
2768.00,100.10
2767.00,100.08
2766.00,100.07
2765.00,100.07
2764.00,100.09
2763.00,100.11
2762.00,100.12
2761.00,100.12
2760.00,100.12
2759.00,100.12
2758.00,100.11
2757.00,100.11
2756.00,100.11
2755.00,100.10
2754.00,100.09
2753.00,100.09
2752.00,100.09
2751.00,100.10
2750.00,100.11
2749.00,100.11
2748.00,100.10
2747.00,100.09
2746.00,100.08
2745.00,100.07
2744.00,100.07
2743.00,100.09
2742.00,100.10
2741.00,100.11
2740.00,100.11
2739.00,100.11
2738.00,100.11
2737.00,100.11
2736.00,100.11
2735.00,100.12
2734.00,100.12
2733.00,100.13
2732.00,100.13
2731.00,100.13
2730.00,100.13
2729.00,100.13
2728.00,100.15
2727.00,100.16
2726.00,100.17
2725.00,100.17
2724.00,100.16
2723.00,100.15
2722.00,100.13
2721.00,100.11
2720.00,100.10
2719.00,100.10
2718.00,100.10
2717.00,100.10
2716.00,100.10
2715.00,100.11
2714.00,100.11
2713.00,100.11
2712.00,100.11
2711.00,100.11
2710.00,100.12
2709.00,100.12
2708.00,100.12
2707.00,100.13
2706.00,100.13
2705.00,100.12
2704.00,100.11
2703.00,100.11
2702.00,100.12
2701.00,100.13
2700.00,100.14
2699.00,100.14
2698.00,100.15
2697.00,100.15
2696.00,100.15
2695.00,100.15
2694.00,100.15
2693.00,100.15
2692.00,100.14
2691.00,100.14
2690.00,100.14
2689.00,100.15
2688.00,100.15
2687.00,100.15
2686.00,100.16
2685.00,100.16
2684.00,100.17
2683.00,100.17
2682.00,100.18
2681.00,100.19
2680.00,100.19
2679.00,100.19
2678.00,100.18
2677.00,100.16
2676.00,100.15
2675.00,100.16
2674.00,100.17
2673.00,100.18
2672.00,100.18
2671.00,100.17
2670.00,100.16
2669.00,100.15
2668.00,100.16
2667.00,100.16
2666.00,100.17
2665.00,100.17
2664.00,100.16
2663.00,100.15
2662.00,100.14
2661.00,100.12
2660.00,100.11
2659.00,100.11
2658.00,100.12
2657.00,100.13
2656.00,100.13
2655.00,100.12
2654.00,100.11
2653.00,100.09
2652.00,100.08
2651.00,100.07
2650.00,100.06
2649.00,100.06
2648.00,100.06
2647.00,100.05
2646.00,100.03
2645.00,100.02
2644.00,100.00
2643.00,100.00
2642.00,100.00
2641.00,100.01
2640.00,100.03
2639.00,100.04
2638.00,100.04
2637.00,100.03
2636.00,100.02
2635.00,100.01
2634.00,100.01
2633.00,100.01
2632.00,100.00
2631.00,100.00
2630.00,99.99
2629.00,99.98
2628.00,99.98
2627.00,99.98
2626.00,99.98
2625.00,99.98
2624.00,99.98
2623.00,99.99
2622.00,100.00
2621.00,100.01
2620.00,100.00
2619.00,99.99
2618.00,99.98
2617.00,99.96
2616.00,99.94
2615.00,99.93
2614.00,99.92
2613.00,99.92
2612.00,99.93
2611.00,99.96
2610.00,99.98
2609.00,99.98
2608.00,99.97
2607.00,99.95
2606.00,99.94
2605.00,99.92
2604.00,99.91
2603.00,99.91
2602.00,99.90
2601.00,99.91
2600.00,99.91
2599.00,99.90
2598.00,99.89
2597.00,99.87
2596.00,99.85
2595.00,99.86
2594.00,99.88
2593.00,99.90
2592.00,99.92
2591.00,99.91
2590.00,99.89
2589.00,99.87
2588.00,99.86
2587.00,99.87
2586.00,99.88
2585.00,99.88
2584.00,99.88
2583.00,99.90
2582.00,99.92
2581.00,99.92
2580.00,99.90
2579.00,99.87
2578.00,99.86
2577.00,99.87
2576.00,99.90
2575.00,99.92
2574.00,99.93
2573.00,99.92
2572.00,99.91
2571.00,99.90
2570.00,99.90
2569.00,99.89
2568.00,99.87
2567.00,99.85
2566.00,99.84
2565.00,99.82
2564.00,99.82
2563.00,99.83
2562.00,99.84
2561.00,99.85
2560.00,99.86
2559.00,99.86
2558.00,99.86
2557.00,99.86
2556.00,99.86
2555.00,99.85
2554.00,99.86
2553.00,99.87
2552.00,99.87
2551.00,99.85
2550.00,99.82
2549.00,99.80
2548.00,99.78
2547.00,99.78
2546.00,99.78
2545.00,99.79
2544.00,99.81
2543.00,99.84
2542.00,99.86
2541.00,99.87
2540.00,99.87
2539.00,99.86
2538.00,99.85
2537.00,99.83
2536.00,99.82
2535.00,99.80
2534.00,99.78
2533.00,99.78
2532.00,99.78
2531.00,99.79
2530.00,99.79
2529.00,99.80
2528.00,99.79
2527.00,99.78
2526.00,99.78
2525.00,99.79
2524.00,99.80
2523.00,99.82
2522.00,99.83
2521.00,99.84
2520.00,99.84
2519.00,99.85
2518.00,99.86
2517.00,99.88
2516.00,99.89
2515.00,99.88
2514.00,99.86
2513.00,99.86
2512.00,99.88
2511.00,99.90
2510.00,99.91
2509.00,99.91
2508.00,99.90
2507.00,99.87
2506.00,99.85
2505.00,99.84
2504.00,99.84
2503.00,99.85
2502.00,99.87
2501.00,99.90
2500.00,99.91
2499.00,99.92
2498.00,99.90
2497.00,99.87
2496.00,99.84
2495.00,99.82
2494.00,99.81
2493.00,99.80
2492.00,99.81
2491.00,99.83
2490.00,99.83
2489.00,99.82
2488.00,99.81
2487.00,99.80
2486.00,99.80
2485.00,99.82
2484.00,99.83
2483.00,99.83
2482.00,99.85
2481.00,99.87
2480.00,99.89
2479.00,99.91
2478.00,99.90
2477.00,99.89
2476.00,99.87
2475.00,99.85
2474.00,99.84
2473.00,99.83
2472.00,99.83
2471.00,99.84
2470.00,99.85
2469.00,99.86
2468.00,99.87
2467.00,99.88
2466.00,99.89
2465.00,99.91
2464.00,99.93
2463.00,99.94
2462.00,99.94
2461.00,99.93
2460.00,99.92
2459.00,99.91
2458.00,99.90
2457.00,99.89
2456.00,99.88
2455.00,99.87
2454.00,99.88
2453.00,99.89
2452.00,99.89
2451.00,99.88
2450.00,99.87
2449.00,99.87
2448.00,99.87
2447.00,99.88
2446.00,99.88
2445.00,99.87
2444.00,99.86
2443.00,99.84
2442.00,99.83
2441.00,99.82
2440.00,99.82
2439.00,99.83
2438.00,99.83
2437.00,99.82
2436.00,99.82
2435.00,99.83
2434.00,99.85
2433.00,99.88
2432.00,99.89
2431.00,99.89
2430.00,99.89
2429.00,99.90
2428.00,99.91
2427.00,99.91
2426.00,99.91
2425.00,99.91
2424.00,99.90
2423.00,99.90
2422.00,99.90
2421.00,99.90
2420.00,99.91
2419.00,99.92
2418.00,99.93
2417.00,99.93
2416.00,99.95
2415.00,99.96
2414.00,99.97
2413.00,99.96
2412.00,99.96
2411.00,99.95
2410.00,99.95
2409.00,99.96
2408.00,99.96
2407.00,99.95
2406.00,99.95
2405.00,99.96
2404.00,99.98
2403.00,100.00
2402.00,100.01
2401.00,100.01
2400.00,100.02
2399.00,100.03
2398.00,100.03
2397.00,100.04
2396.00,100.05
2395.00,100.05
2394.00,100.04
2393.00,100.04
2392.00,100.04
2391.00,100.04
2390.00,100.05
2389.00,100.04
2388.00,100.04
2387.00,100.05
2386.00,100.06
2385.00,100.07
2384.00,100.07
2383.00,100.07
2382.00,100.06
2381.00,100.06
2380.00,100.07
2379.00,100.09
2378.00,100.11
2377.00,100.13
2376.00,100.12
2375.00,100.12
2374.00,100.12
2373.00,100.14
2372.00,100.14
2371.00,100.11
2370.00,100.07
2369.00,100.02
2368.00,99.99
2367.00,99.97
2366.00,99.96
2365.00,99.97
2364.00,100.02
2363.00,100.06
2362.00,100.04
2361.00,99.96
2360.00,99.86
2359.00,99.80
2358.00,99.77
2357.00,99.76
2356.00,99.71
2355.00,99.72
2354.00,100.16
2353.00,100.13
2352.00,100.14
2351.00,100.14
2350.00,100.16
2349.00,100.21
2348.00,100.28
2347.00,100.37
2346.00,100.34
2345.00,99.87
2344.00,99.86
2343.00,99.83
2342.00,99.86
2341.00,99.87
2340.00,99.89
2339.00,99.89
2338.00,99.91
2337.00,99.94
2336.00,99.97
2335.00,100.01
2334.00,100.03
2333.00,100.06
2332.00,100.07
2331.00,100.08
2330.00,100.07
2329.00,100.08
2328.00,100.09
2327.00,100.07
2326.00,100.03
2325.00,99.96
2324.00,99.91
2323.00,99.90
2322.00,99.91
2321.00,99.93
2320.00,99.94
2319.00,99.94
2318.00,99.92
2317.00,99.91
2316.00,99.90
2315.00,99.92
2314.00,99.93
2313.00,99.95
2312.00,99.95
2311.00,99.93
2310.00,99.90
2309.00,99.89
2308.00,99.89
2307.00,99.89
2306.00,99.89
2305.00,99.88
2304.00,99.87
2303.00,99.88
2302.00,99.88
2301.00,99.89
2300.00,99.89
2299.00,99.88
2298.00,99.86
2297.00,99.83
2296.00,99.82
2295.00,99.83
2294.00,99.85
2293.00,99.86
2292.00,99.86
2291.00,99.84
2290.00,99.82
2289.00,99.79
2288.00,99.75
2287.00,99.71
2286.00,99.68
2285.00,99.67
2284.00,99.66
2283.00,99.66
2282.00,99.65
2281.00,99.64
2280.00,99.62
2279.00,99.60
2278.00,99.59
2277.00,99.58
2276.00,99.57
2275.00,99.57
2274.00,99.55
2273.00,99.53
2272.00,99.49
2271.00,99.45
2270.00,99.40
2269.00,99.34
2268.00,99.31
2267.00,99.32
2266.00,99.37
2265.00,99.43
2264.00,99.47
2263.00,99.45
2262.00,99.38
2261.00,99.29
2260.00,99.17
2259.00,99.06
2258.00,98.96
2257.00,98.84
2256.00,98.72
2255.00,98.58
2254.00,98.45
2253.00,98.31
2252.00,98.16
2251.00,98.00
2250.00,97.82
2249.00,97.66
2248.00,97.51
2247.00,97.39
2246.00,97.30
2245.00,97.24
2244.00,97.20
2243.00,97.19
2242.00,97.24
2241.00,97.35
2240.00,97.53
2239.00,97.74
2238.00,97.98
2237.00,98.22
2236.00,98.46
2235.00,98.67
2234.00,98.85
2233.00,98.98
2232.00,99.06
2231.00,99.12
2230.00,99.17
2229.00,99.19
2228.00,99.18
2227.00,99.15
2226.00,99.13
2225.00,99.11
2224.00,99.11
2223.00,99.11
2222.00,99.11
2221.00,99.13
2220.00,99.17
2219.00,99.20
2218.00,99.20
2217.00,99.16
2216.00,99.13
2215.00,99.09
2214.00,99.05
2213.00,99.04
2212.00,99.05
2211.00,99.07
2210.00,99.07
2209.00,99.06
2208.00,99.05
2207.00,99.05
2206.00,99.04
2205.00,99.04
2204.00,99.05
2203.00,99.08
2202.00,99.12
2201.00,99.13
2200.00,99.11
2199.00,99.07
2198.00,99.02
2197.00,98.98
2196.00,98.94
2195.00,98.91
2194.00,98.91
2193.00,98.92
2192.00,98.93
2191.00,98.94
2190.00,98.93
2189.00,98.92
2188.00,98.92
2187.00,98.94
2186.00,98.97
2185.00,98.99
2184.00,98.97
2183.00,98.94
2182.00,98.93
2181.00,98.91
2180.00,98.88
2179.00,98.83
2178.00,98.81
2177.00,98.85
2176.00,98.90
2175.00,98.94
2174.00,98.92
2173.00,98.88
2172.00,98.85
2171.00,98.82
2170.00,98.80
2169.00,98.80
2168.00,98.80
2167.00,98.79
2166.00,98.75
2165.00,98.67
2164.00,98.56
2163.00,98.46
2162.00,98.41
2161.00,98.43
2160.00,98.53
2159.00,98.67
2158.00,98.83
2157.00,98.94
2156.00,98.98
2155.00,98.95
2154.00,98.88
2153.00,98.81
2152.00,98.78
2151.00,98.80
2150.00,98.87
2149.00,98.97
2148.00,99.05
2147.00,99.10
2146.00,99.12
2145.00,99.14
2144.00,99.18
2143.00,99.24
2142.00,99.28
2141.00,99.29
2140.00,99.27
2139.00,99.24
2138.00,99.25
2137.00,99.31
2136.00,99.42
2135.00,99.51
2134.00,99.57
2133.00,99.58
2132.00,99.57
2131.00,99.55
2130.00,99.52
2129.00,99.49
2128.00,99.49
2127.00,99.52
2126.00,99.56
2125.00,99.59
2124.00,99.61
2123.00,99.63
2122.00,99.64
2121.00,99.65
2120.00,99.66
2119.00,99.66
2118.00,99.65
2117.00,99.66
2116.00,99.67
2115.00,99.68
2114.00,99.65
2113.00,99.60
2112.00,99.56
2111.00,99.56
2110.00,99.58
2109.00,99.60
2108.00,99.60
2107.00,99.60
2106.00,99.60
2105.00,99.59
2104.00,99.57
2103.00,99.55
2102.00,99.55
2101.00,99.56
2100.00,99.57
2099.00,99.59
2098.00,99.60
2097.00,99.61
2096.00,99.60
2095.00,99.59
2094.00,99.58
2093.00,99.57
2092.00,99.56
2091.00,99.56
2090.00,99.58
2089.00,99.62
2088.00,99.64
2087.00,99.63
2086.00,99.61
2085.00,99.58
2084.00,99.56
2083.00,99.53
2082.00,99.52
2081.00,99.54
2080.00,99.57
2079.00,99.60
2078.00,99.59
2077.00,99.54
2076.00,99.49
2075.00,99.47
2074.00,99.49
2073.00,99.52
2072.00,99.54
2071.00,99.55
2070.00,99.55
2069.00,99.54
2068.00,99.52
2067.00,99.49
2066.00,99.44
2065.00,99.40
2064.00,99.38
2063.00,99.39
2062.00,99.42
2061.00,99.45
2060.00,99.46
2059.00,99.43
2058.00,99.37
2057.00,99.33
2056.00,99.32
2055.00,99.34
2054.00,99.35
2053.00,99.32
2052.00,99.27
2051.00,99.22
2050.00,99.19
2049.00,99.18
2048.00,99.17
2047.00,99.15
2046.00,99.12
2045.00,99.08
2044.00,99.04
2043.00,99.01
2042.00,98.98
2041.00,98.95
2040.00,98.91
2039.00,98.86
2038.00,98.83
2037.00,98.82
2036.00,98.84
2035.00,98.88
2034.00,98.92
2033.00,98.96
2032.00,99.00
2031.00,99.05
2030.00,99.10
2029.00,99.14
2028.00,99.14
2027.00,99.07
2026.00,98.96
2025.00,98.86
2024.00,98.82
2023.00,98.84
2022.00,98.87
2021.00,98.91
2020.00,98.94
2019.00,98.96
2018.00,98.97
2017.00,98.97
2016.00,98.98
2015.00,98.99
2014.00,99.01
2013.00,99.05
2012.00,99.08
2011.00,99.09
2010.00,99.05
2009.00,98.97
2008.00,98.92
2007.00,98.94
2006.00,99.02
2005.00,99.11
2004.00,99.17
2003.00,99.19
2002.00,99.18
2001.00,99.16
2000.00,99.13
1999.00,99.12
1998.00,99.14
1997.00,99.19
1996.00,99.25
1995.00,99.29
1994.00,99.28
1993.00,99.24
1992.00,99.22
1991.00,99.21
1990.00,99.22
1989.00,99.22
1988.00,99.21
1987.00,99.19
1986.00,99.18
1985.00,99.17
1984.00,99.14
1983.00,99.10
1982.00,99.05
1981.00,99.00
1980.00,98.97
1979.00,98.96
1978.00,98.98
1977.00,99.01
1976.00,99.04
1975.00,99.05
1974.00,99.03
1973.00,99.02
1972.00,99.02
1971.00,99.04
1970.00,99.06
1969.00,99.06
1968.00,99.06
1967.00,99.07
1966.00,99.08
1965.00,99.11
1964.00,99.15
1963.00,99.22
1962.00,99.30
1961.00,99.38
1960.00,99.42
1959.00,99.43
1958.00,99.41
1957.00,99.41
1956.00,99.43
1955.00,99.47
1954.00,99.50
1953.00,99.50
1952.00,99.48
1951.00,99.48
1950.00,99.50
1949.00,99.54
1948.00,99.59
1947.00,99.64
1946.00,99.70
1945.00,99.76
1944.00,99.81
1943.00,99.83
1942.00,99.81
1941.00,99.77
1940.00,99.72
1939.00,99.68
1938.00,99.68
1937.00,99.70
1936.00,99.73
1935.00,99.77
1934.00,99.80
1933.00,99.80
1932.00,99.80
1931.00,99.79
1930.00,99.77
1929.00,99.76
1928.00,99.75
1927.00,99.77
1926.00,99.81
1925.00,99.85
1924.00,99.88
1923.00,99.89
1922.00,99.89
1921.00,99.88
1920.00,99.88
1919.00,99.88
1918.00,99.89
1917.00,99.89
1916.00,99.89
1915.00,99.89
1914.00,99.89
1913.00,99.91
1912.00,99.93
1911.00,99.94
1910.00,99.95
1909.00,99.96
1908.00,99.99
1907.00,100.02
1906.00,100.04
1905.00,100.05
1904.00,100.05
1903.00,100.03
1902.00,100.01
1901.00,100.00
1900.00,100.00
1899.00,99.99
1898.00,99.99
1897.00,99.98
1896.00,99.98
1895.00,100.00
1894.00,100.02
1893.00,100.04
1892.00,100.05
1891.00,100.05
1890.00,100.05
1889.00,100.04
1888.00,100.05
1887.00,100.06
1886.00,100.07
1885.00,100.07
1884.00,100.06
1883.00,100.06
1882.00,100.06
1881.00,100.06
1880.00,100.07
1879.00,100.08
1878.00,100.08
1877.00,100.09
1876.00,100.09
1875.00,100.10
1874.00,100.10
1873.00,100.11
1872.00,100.12
1871.00,100.12
1870.00,100.12
1869.00,100.11
1868.00,100.11
1867.00,100.13
1866.00,100.16
1865.00,100.18
1864.00,100.19
1863.00,100.19
1862.00,100.19
1861.00,100.20
1860.00,100.21
1859.00,100.22
1858.00,100.23
1857.00,100.24
1856.00,100.24
1855.00,100.23
1854.00,100.23
1853.00,100.23
1852.00,100.24
1851.00,100.26
1850.00,100.27
1849.00,100.26
1848.00,100.25
1847.00,100.23
1846.00,100.22
1845.00,100.22
1844.00,100.23
1843.00,100.24
1842.00,100.25
1841.00,100.25
1840.00,100.26
1839.00,100.26
1838.00,100.26
1837.00,100.26
1836.00,100.26
1835.00,100.26
1834.00,100.26
1833.00,100.26
1832.00,100.25
1831.00,100.24
1830.00,100.24
1829.00,100.26
1828.00,100.28
1827.00,100.30
1826.00,100.31
1825.00,100.32
1824.00,100.31
1823.00,100.31
1822.00,100.32
1821.00,100.33
1820.00,100.33
1819.00,100.33
1818.00,100.33
1817.00,100.33
1816.00,100.33
1815.00,100.32
1814.00,100.32
1813.00,100.32
1812.00,100.32
1811.00,100.32
1810.00,100.32
1809.00,100.32
1808.00,100.32
1807.00,100.34
1806.00,100.35
1805.00,100.36
1804.00,100.37
1803.00,100.37
1802.00,100.37
1801.00,100.38
1800.00,100.41
1799.00,100.43
1798.00,100.44
1797.00,100.44
1796.00,100.43
1795.00,100.43
1794.00,100.44
1793.00,100.44
1792.00,100.43
1791.00,100.43
1790.00,100.43
1789.00,100.42
1788.00,100.40
1787.00,100.40
1786.00,100.41
1785.00,100.41
1784.00,100.40
1783.00,100.38
1782.00,100.37
1781.00,100.36
1780.00,100.37
1779.00,100.38
1778.00,100.40
1777.00,100.41
1776.00,100.41
1775.00,100.40
1774.00,100.40
1773.00,100.41
1772.00,100.41
1771.00,100.41
1770.00,100.41
1769.00,100.41
1768.00,100.41
1767.00,100.41
1766.00,100.40
1765.00,100.39
1764.00,100.37
1763.00,100.35
1762.00,100.32
1761.00,100.31
1760.00,100.30
1759.00,100.31
1758.00,100.33
1757.00,100.35
1756.00,100.36
1755.00,100.36
1754.00,100.36
1753.00,100.35
1752.00,100.34
1751.00,100.34
1750.00,100.33
1749.00,100.33
1748.00,100.32
1747.00,100.31
1746.00,100.30
1745.00,100.27
1744.00,100.25
1743.00,100.22
1742.00,100.21
1741.00,100.20
1740.00,100.21
1739.00,100.22
1738.00,100.22
1737.00,100.22
1736.00,100.22
1735.00,100.23
1734.00,100.23
1733.00,100.23
1732.00,100.24
1731.00,100.25
1730.00,100.26
1729.00,100.26
1728.00,100.26
1727.00,100.27
1726.00,100.29
1725.00,100.31
1724.00,100.31
1723.00,100.29
1722.00,100.28
1721.00,100.28
1720.00,100.30
1719.00,100.32
1718.00,100.34
1717.00,100.34
1716.00,100.34
1715.00,100.35
1714.00,100.37
1713.00,100.38
1712.00,100.40
1711.00,100.40
1710.00,100.40
1709.00,100.40
1708.00,100.40
1707.00,100.40
1706.00,100.41
1705.00,100.42
1704.00,100.42
1703.00,100.42
1702.00,100.41
1701.00,100.40
1700.00,100.39
1699.00,100.38
1698.00,100.37
1697.00,100.36
1696.00,100.35
1695.00,100.34
1694.00,100.34
1693.00,100.34
1692.00,100.34
1691.00,100.34
1690.00,100.34
1689.00,100.34
1688.00,100.32
1687.00,100.29
1686.00,100.24
1685.00,100.19
1684.00,100.14
1683.00,100.11
1682.00,100.08
1681.00,100.06
1680.00,100.02
1679.00,99.98
1678.00,99.94
1677.00,99.88
1676.00,99.82
1675.00,99.76
1674.00,99.72
1673.00,99.70
1672.00,99.68
1671.00,99.66
1670.00,99.65
1669.00,99.65
1668.00,99.64
1667.00,99.64
1666.00,99.62
1665.00,99.62
1664.00,99.63
1663.00,99.66
1662.00,99.69
1661.00,99.70
1660.00,99.71
1659.00,99.71
1658.00,99.73
1657.00,99.73
1656.00,99.71
1655.00,99.69
1654.00,99.70
1653.00,99.73
1652.00,99.77
1651.00,99.81
1650.00,99.85
1649.00,99.87
1648.00,99.88
1647.00,99.89
1646.00,99.90
1645.00,99.90
1644.00,99.90
1643.00,99.90
1642.00,99.90
1641.00,99.91
1640.00,99.92
1639.00,99.93
1638.00,99.94
1637.00,99.95
1636.00,99.96
1635.00,99.95
1634.00,99.93
1633.00,99.92
1632.00,99.92
1631.00,99.93
1630.00,99.93
1629.00,99.93
1628.00,99.92
1627.00,99.92
1626.00,99.93
1625.00,99.95
1624.00,99.96
1623.00,99.96
1622.00,99.97
1621.00,99.98
1620.00,99.99
1619.00,99.99
1618.00,99.98
1617.00,99.99
1616.00,100.01
1615.00,100.02
1614.00,100.04
1613.00,100.07
1612.00,100.10
1611.00,100.12
1610.00,100.14
1609.00,100.16
1608.00,100.19
1607.00,100.23
1606.00,100.26
1605.00,100.29
1604.00,100.31
1603.00,100.31
1602.00,100.31
1601.00,100.31
1600.00,100.32
1599.00,100.35
1598.00,100.36
1597.00,100.37
1596.00,100.38
1595.00,100.39
1594.00,100.41
1593.00,100.44
1592.00,100.46
1591.00,100.47
1590.00,100.47
1589.00,100.47
1588.00,100.48
1587.00,100.49
1586.00,100.50
1585.00,100.51
1584.00,100.51
1583.00,100.50
1582.00,100.51
1581.00,100.52
1580.00,100.52
1579.00,100.51
1578.00,100.49
1577.00,100.47
1576.00,100.46
1575.00,100.45
1574.00,100.46
1573.00,100.46
1572.00,100.46
1571.00,100.46
1570.00,100.46
1569.00,100.45
1568.00,100.43
1567.00,100.42
1566.00,100.42
1565.00,100.43
1564.00,100.43
1563.00,100.41
1562.00,100.37
1561.00,100.32
1560.00,100.29
1559.00,100.26
1558.00,100.25
1557.00,100.27
1556.00,100.29
1555.00,100.30
1554.00,100.29
1553.00,100.28
1552.00,100.25
1551.00,100.23
1550.00,100.22
1549.00,100.21
1548.00,100.21
1547.00,100.19
1546.00,100.16
1545.00,100.15
1544.00,100.15
1543.00,100.17
1542.00,100.18
1541.00,100.19
1540.00,100.19
1539.00,100.19
1538.00,100.19
1537.00,100.19
1536.00,100.19
1535.00,100.21
1534.00,100.23
1533.00,100.26
1532.00,100.27
1531.00,100.28
1530.00,100.28
1529.00,100.29
1528.00,100.29
1527.00,100.30
1526.00,100.31
1525.00,100.31
1524.00,100.31
1523.00,100.32
1522.00,100.33
1521.00,100.35
1520.00,100.37
1519.00,100.39
1518.00,100.40
1517.00,100.42
1516.00,100.44
1515.00,100.46
1514.00,100.46
1513.00,100.46
1512.00,100.46
1511.00,100.46
1510.00,100.47
1509.00,100.47
1508.00,100.49
1507.00,100.53
1506.00,100.54
1505.00,100.55
1504.00,100.54
1503.00,100.54
1502.00,100.55
1501.00,100.55
1500.00,100.55
1499.00,100.54
1498.00,100.54
1497.00,100.53
1496.00,100.53
1495.00,100.54
1494.00,100.54
1493.00,100.53
1492.00,100.53
1491.00,100.52
1490.00,100.52
1489.00,100.51
1488.00,100.51
1487.00,100.51
1486.00,100.50
1485.00,100.49
1484.00,100.48
1483.00,100.47
1482.00,100.45
1481.00,100.42
1480.00,100.39
1479.00,100.36
1478.00,100.33
1477.00,100.30
1476.00,100.27
1475.00,100.21
1474.00,100.15
1473.00,100.08
1472.00,100.02
1471.00,99.98
1470.00,99.95
1469.00,99.90
1468.00,99.83
1467.00,99.76
1466.00,99.70
1465.00,99.65
1464.00,99.59
1463.00,99.52
1462.00,99.42
1461.00,99.28
1460.00,99.12
1459.00,98.92
1458.00,98.67
1457.00,98.39
1456.00,98.15
1455.00,97.98
1454.00,97.84
1453.00,97.73
1452.00,97.63
1451.00,97.57
1450.00,97.53
1449.00,97.51
1448.00,97.51
1447.00,97.51
1446.00,97.52
1445.00,97.52
1444.00,97.54
1443.00,97.57
1442.00,97.60
1441.00,97.63
1440.00,97.64
1439.00,97.64
1438.00,97.66
1437.00,97.71
1436.00,97.78
1435.00,97.85
1434.00,97.92
1433.00,97.99
1432.00,98.08
1431.00,98.19
1430.00,98.31
1429.00,98.45
1428.00,98.59
1427.00,98.72
1426.00,98.84
1425.00,98.97
1424.00,99.10
1423.00,99.22
1422.00,99.30
1421.00,99.37
1420.00,99.44
1419.00,99.53
1418.00,99.63
1417.00,99.72
1416.00,99.79
1415.00,99.84
1414.00,99.89
1413.00,99.94
1412.00,99.99
1411.00,100.04
1410.00,100.08
1409.00,100.12
1408.00,100.15
1407.00,100.17
1406.00,100.18
1405.00,100.20
1404.00,100.22
1403.00,100.24
1402.00,100.26
1401.00,100.28
1400.00,100.28
1399.00,100.28
1398.00,100.26
1397.00,100.24
1396.00,100.25
1395.00,100.25
1394.00,100.25
1393.00,100.23
1392.00,100.20
1391.00,100.17
1390.00,100.14
1389.00,100.11
1388.00,100.09
1387.00,100.07
1386.00,100.06
1385.00,100.04
1384.00,100.02
1383.00,99.99
1382.00,99.97
1381.00,99.94
1380.00,99.92
1379.00,99.89
1378.00,99.87
1377.00,99.85
1376.00,99.83
1375.00,99.82
1374.00,99.80
1373.00,99.77
1372.00,99.74
1371.00,99.69
1370.00,99.64
1369.00,99.60
1368.00,99.58
1367.00,99.56
1366.00,99.54
1365.00,99.51
1364.00,99.47
1363.00,99.44
1362.00,99.42
1361.00,99.41
1360.00,99.39
1359.00,99.39
1358.00,99.40
1357.00,99.42
1356.00,99.45
1355.00,99.48
1354.00,99.50
1353.00,99.50
1352.00,99.50
1351.00,99.50
1350.00,99.49
1349.00,99.48
1348.00,99.46
1347.00,99.44
1346.00,99.44
1345.00,99.47
1344.00,99.54
1343.00,99.62
1342.00,99.70
1341.00,99.77
1340.00,99.83
1339.00,99.87
1338.00,99.91
1337.00,99.94
1336.00,99.98
1335.00,100.00
1334.00,100.00
1333.00,100.00
1332.00,100.00
1331.00,100.00
1330.00,100.01
1329.00,100.03
1328.00,100.05
1327.00,100.08
1326.00,100.09
1325.00,100.09
1324.00,100.09
1323.00,100.09
1322.00,100.10
1321.00,100.11
1320.00,100.11
1319.00,100.11
1318.00,100.10
1317.00,100.08
1316.00,100.08
1315.00,100.08
1314.00,100.08
1313.00,100.08
1312.00,100.07
1311.00,100.06
1310.00,100.05
1309.00,100.05
1308.00,100.04
1307.00,100.04
1306.00,100.04
1305.00,100.04
1304.00,100.02
1303.00,100.00
1302.00,99.98
1301.00,99.96
1300.00,99.94
1299.00,99.92
1298.00,99.91
1297.00,99.89
1296.00,99.88
1295.00,99.87
1294.00,99.85
1293.00,99.84
1292.00,99.84
1291.00,99.84
1290.00,99.83
1289.00,99.82
1288.00,99.81
1287.00,99.81
1286.00,99.80
1285.00,99.78
1284.00,99.76
1283.00,99.74
1282.00,99.71
1281.00,99.69
1280.00,99.68
1279.00,99.67
1278.00,99.66
1277.00,99.65
1276.00,99.64
1275.00,99.63
1274.00,99.64
1273.00,99.65
1272.00,99.65
1271.00,99.64
1270.00,99.62
1269.00,99.59
1268.00,99.57
1267.00,99.54
1266.00,99.53
1265.00,99.51
1264.00,99.49
1263.00,99.47
1262.00,99.46
1261.00,99.45
1260.00,99.43
1259.00,99.41
1258.00,99.39
1257.00,99.37
1256.00,99.35
1255.00,99.34
1254.00,99.33
1253.00,99.31
1252.00,99.30
1251.00,99.29
1250.00,99.28
1249.00,99.28
1248.00,99.26
1247.00,99.24
1246.00,99.21
1245.00,99.19
1244.00,99.17
1243.00,99.15
1242.00,99.13
1241.00,99.12
1240.00,99.12
1239.00,99.12
1238.00,99.11
1237.00,99.10
1236.00,99.10
1235.00,99.10
1234.00,99.11
1233.00,99.11
1232.00,99.10
1231.00,99.07
1230.00,99.03
1229.00,99.00
1228.00,98.99
1227.00,98.99
1226.00,99.00
1225.00,99.00
1224.00,99.00
1223.00,98.99
1222.00,98.99
1221.00,98.99
1220.00,99.00
1219.00,99.02
1218.00,99.04
1217.00,99.07
1216.00,99.09
1215.00,99.11
1214.00,99.13
1213.00,99.14
1212.00,99.15
1211.00,99.17
1210.00,99.18
1209.00,99.20
1208.00,99.22
1207.00,99.26
1206.00,99.29
1205.00,99.33
1204.00,99.37
1203.00,99.39
1202.00,99.39
1201.00,99.39
1200.00,99.40
1199.00,99.41
1198.00,99.45
1197.00,99.49
1196.00,99.53
1195.00,99.55
1194.00,99.55
1193.00,99.54
1192.00,99.54
1191.00,99.54
1190.00,99.54
1189.00,99.55
1188.00,99.55
1187.00,99.55
1186.00,99.55
1185.00,99.54
1184.00,99.54
1183.00,99.54
1182.00,99.57
1181.00,99.60
1180.00,99.62
1179.00,99.64
1178.00,99.65
1177.00,99.68
1176.00,99.72
1175.00,99.79
1174.00,99.86
1173.00,99.94
1172.00,99.99
1171.00,100.02
1170.00,100.04
1169.00,100.05
1168.00,100.07
1167.00,100.09
1166.00,100.11
1165.00,100.13
1164.00,100.13
1163.00,100.12
1162.00,100.11
1161.00,100.10
1160.00,100.09
1159.00,100.09
1158.00,100.10
1157.00,100.11
1156.00,100.11
1155.00,100.10
1154.00,100.08
1153.00,100.06
1152.00,100.06
1151.00,100.05
1150.00,100.05
1149.00,100.06
1148.00,100.07
1147.00,100.09
1146.00,100.11
1145.00,100.12
1144.00,100.12
1143.00,100.12
1142.00,100.10
1141.00,100.08
1140.00,100.06
1139.00,100.06
1138.00,100.07
1137.00,100.08
1136.00,100.08
1135.00,100.05
1134.00,100.00
1133.00,99.95
1132.00,99.91
1131.00,99.88
1130.00,99.87
1129.00,99.87
1128.00,99.85
1127.00,99.81
1126.00,99.73
1125.00,99.62
1124.00,99.49
1123.00,99.36
1122.00,99.23
1121.00,99.11
1120.00,99.00
1119.00,98.90
1118.00,98.81
1117.00,98.72
1116.00,98.64
1115.00,98.59
1114.00,98.57
1113.00,98.57
1112.00,98.56
1111.00,98.54
1110.00,98.51
1109.00,98.49
1108.00,98.46
1107.00,98.41
1106.00,98.36
1105.00,98.31
1104.00,98.26
1103.00,98.20
1102.00,98.13
1101.00,98.07
1100.00,98.03
1099.00,97.99
1098.00,97.96
1097.00,97.91
1096.00,97.84
1095.00,97.76
1094.00,97.68
1093.00,97.61
1092.00,97.58
1091.00,97.57
1090.00,97.56
1089.00,97.52
1088.00,97.43
1087.00,97.34
1086.00,97.26
1085.00,97.21
1084.00,97.18
1083.00,97.17
1082.00,97.15
1081.00,97.13
1080.00,97.10
1079.00,97.06
1078.00,97.02
1077.00,96.96
1076.00,96.89
1075.00,96.84
1074.00,96.80
1073.00,96.78
1072.00,96.78
1071.00,96.77
1070.00,96.73
1069.00,96.69
1068.00,96.65
1067.00,96.64
1066.00,96.64
1065.00,96.67
1064.00,96.72
1063.00,96.77
1062.00,96.81
1061.00,96.85
1060.00,96.89
1059.00,96.94
1058.00,97.00
1057.00,97.06
1056.00,97.13
1055.00,97.20
1054.00,97.26
1053.00,97.30
1052.00,97.33
1051.00,97.36
1050.00,97.39
1049.00,97.41
1048.00,97.43
1047.00,97.45
1046.00,97.46
1045.00,97.44
1044.00,97.40
1043.00,97.37
1042.00,97.35
1041.00,97.38
1040.00,97.43
1039.00,97.50
1038.00,97.58
1037.00,97.67
1036.00,97.78
1035.00,97.91
1034.00,98.03
1033.00,98.16
1032.00,98.28
1031.00,98.41
1030.00,98.51
1029.00,98.60
1028.00,98.66
1027.00,98.72
1026.00,98.78
1025.00,98.83
1024.00,98.89
1023.00,98.94
1022.00,99.00
1021.00,99.08
1020.00,99.16
1019.00,99.25
1018.00,99.31
1017.00,99.34
1016.00,99.35
1015.00,99.38
1014.00,99.41
1013.00,99.43
1012.00,99.45
1011.00,99.46
1010.00,99.48
1009.00,99.51
1008.00,99.54
1007.00,99.57
1006.00,99.59
1005.00,99.61
1004.00,99.65
1003.00,99.69
1002.00,99.73
1001.00,99.75
1000.00,99.76
999.00,99.76
998.00,99.76
997.00,99.75
996.00,99.74
995.00,99.75
994.00,99.77
993.00,99.80
992.00,99.83
991.00,99.87
990.00,99.91
989.00,99.92
988.00,99.92
987.00,99.91
986.00,99.90
985.00,99.89
984.00,99.90
983.00,99.91
982.00,99.93
981.00,99.94
980.00,99.94
979.00,99.94
978.00,99.95
977.00,99.96
976.00,99.99
975.00,100.01
974.00,100.03
973.00,100.02
972.00,100.00
971.00,99.97
970.00,99.95
969.00,99.93
968.00,99.91
967.00,99.90
966.00,99.90
965.00,99.90
964.00,99.91
963.00,99.94
962.00,99.96
961.00,99.98
960.00,100.00
959.00,100.00
958.00,99.98
957.00,99.95
956.00,99.93
955.00,99.93
954.00,99.97
953.00,100.00
952.00,100.00
951.00,99.99
950.00,99.98
949.00,99.99
948.00,100.00
947.00,100.00
946.00,99.97
945.00,99.94
944.00,99.93
943.00,99.94
942.00,99.96
941.00,99.98
940.00,99.98
939.00,99.99
938.00,100.00
937.00,100.03
936.00,100.06
935.00,100.06
934.00,100.06
933.00,100.04
932.00,100.02
931.00,100.01
930.00,100.02
929.00,100.03
928.00,100.05
927.00,100.07
926.00,100.09
925.00,100.09
924.00,100.09
923.00,100.09
922.00,100.09
921.00,100.11
920.00,100.14
919.00,100.17
918.00,100.21
917.00,100.22
916.00,100.20
915.00,100.18
914.00,100.17
913.00,100.19
912.00,100.22
911.00,100.24
910.00,100.23
909.00,100.22
908.00,100.22
907.00,100.24
906.00,100.29
905.00,100.33
904.00,100.37
903.00,100.40
902.00,100.42
901.00,100.41
900.00,100.38
899.00,100.36
898.00,100.35
897.00,100.36
896.00,100.40
895.00,100.46
894.00,100.51
893.00,100.55
892.00,100.57
891.00,100.56
890.00,100.54
889.00,100.52
888.00,100.51
887.00,100.53
886.00,100.57
885.00,100.60
884.00,100.61
883.00,100.61
882.00,100.64
881.00,100.69
880.00,100.73
879.00,100.75
878.00,100.76
877.00,100.77
876.00,100.77
875.00,100.78
874.00,100.79
873.00,100.81
872.00,100.84
871.00,100.88
870.00,100.90
869.00,100.89
868.00,100.88
867.00,100.86
866.00,100.86
865.00,100.86
864.00,100.88
863.00,100.92
862.00,100.96
861.00,101.00
860.00,101.03
859.00,101.05
858.00,101.06
857.00,101.06
856.00,101.05
855.00,101.07
854.00,101.11
853.00,101.15
852.00,101.15
851.00,101.11
850.00,101.06
849.00,101.03
848.00,101.02
847.00,101.01
846.00,101.00
845.00,101.00
844.00,101.01
843.00,101.03
842.00,101.03
841.00,101.02
840.00,101.02
839.00,101.03
838.00,101.04
837.00,101.05
836.00,101.05
835.00,101.05
834.00,101.05
833.00,101.05
832.00,101.05
831.00,101.03
830.00,101.01
829.00,100.97
828.00,100.95
827.00,100.95
826.00,100.97
825.00,101.00
824.00,101.03
823.00,101.06
822.00,101.09
821.00,101.08
820.00,101.06
819.00,101.05
818.00,101.08
817.00,101.11
816.00,101.13
815.00,101.10
814.00,101.06
813.00,101.03
812.00,101.02
811.00,101.02
810.00,101.05
809.00,101.07
808.00,101.08
807.00,101.08
806.00,101.09
805.00,101.10
804.00,101.11
803.00,101.12
802.00,101.14
801.00,101.18
800.00,101.20
799.00,101.17
798.00,101.12
797.00,101.09
796.00,101.11
795.00,101.17
794.00,101.22
793.00,101.22
792.00,101.20
791.00,101.19
790.00,101.20
789.00,101.23
788.00,101.24
787.00,101.24
786.00,101.21
785.00,101.17
784.00,101.14
783.00,101.12
782.00,101.11
781.00,101.11
780.00,101.12
779.00,101.14
778.00,101.16
777.00,101.16
776.00,101.17
775.00,101.17
774.00,101.17
773.00,101.15
772.00,101.12
771.00,101.12
770.00,101.12
769.00,101.12
768.00,101.12
767.00,101.11
766.00,101.11
765.00,101.12
764.00,101.13
763.00,101.13
762.00,101.13
761.00,101.12
760.00,101.09
759.00,101.06
758.00,101.03
757.00,101.03
756.00,101.06
755.00,101.08
754.00,101.10
753.00,101.11
752.00,101.10
751.00,101.07
750.00,101.03
749.00,100.99
748.00,100.98
747.00,100.98
746.00,100.98
745.00,100.96
744.00,100.92
743.00,100.88
742.00,100.86
741.00,100.86
740.00,100.86
739.00,100.85
738.00,100.79
737.00,100.71
736.00,100.63
735.00,100.59
734.00,100.57
733.00,100.56
732.00,100.53
731.00,100.47
730.00,100.39
729.00,100.30
728.00,100.21
727.00,100.15
726.00,100.13
725.00,100.12
724.00,100.10
723.00,100.05
722.00,99.99
721.00,99.94
720.00,99.89
719.00,99.84
718.00,99.78
717.00,99.71
716.00,99.68
715.00,99.66
714.00,99.66
713.00,99.65
712.00,99.62
711.00,99.59
710.00,99.58
709.00,99.59
708.00,99.60
707.00,99.63
706.00,99.67
705.00,99.74
704.00,99.80
703.00,99.85
702.00,99.86
701.00,99.85
700.00,99.82
699.00,99.80
698.00,99.79
697.00,99.82
696.00,99.87
695.00,99.93
694.00,99.96
693.00,99.93
692.00,99.85
691.00,99.77
690.00,99.72
689.00,99.70
688.00,99.68
687.00,99.65
686.00,99.59
685.00,99.51
684.00,99.41
683.00,99.32
682.00,99.25
681.00,99.19
680.00,99.13
679.00,99.02
678.00,98.88
677.00,98.70
676.00,98.54
675.00,98.44
674.00,98.39
673.00,98.31
672.00,98.22
671.00,98.19
670.00,98.23
669.00,98.24
668.00,98.12
667.00,97.91
666.00,97.74
665.00,97.66
664.00,97.65
663.00,97.61
662.00,97.46
661.00,97.22
660.00,96.98
659.00,96.83
658.00,96.81
657.00,96.85
656.00,96.89
655.00,96.89
654.00,96.86
653.00,96.81
652.00,96.74
651.00,96.68
650.00,96.64
649.00,96.60
648.00,96.55
647.00,96.49
646.00,96.49
645.00,96.52
644.00,96.56
643.00,96.56
642.00,96.53
641.00,96.51
640.00,96.53
639.00,96.59
638.00,96.63
637.00,96.63
636.00,96.57
635.00,96.51
634.00,96.50
633.00,96.54
632.00,96.62
631.00,96.72
630.00,96.85
629.00,96.99
628.00,97.07
627.00,97.09
626.00,97.08
625.00,97.04
624.00,96.96
623.00,96.86
622.00,96.83
621.00,96.93
620.00,97.15
619.00,97.46
618.00,97.81
617.00,98.08
616.00,98.18
615.00,98.06
614.00,97.80
613.00,97.55
612.00,97.39
611.00,97.39
610.00,97.54
609.00,97.76
608.00,97.90
607.00,97.89
606.00,97.75
605.00,97.60
604.00,97.58
603.00,97.81
602.00,98.28
601.00,98.77
600.00,98.98
599.00,98.74
598.00,98.32
597.00,98.13
596.00,98.35
595.00,98.72
594.00,98.87
593.00,98.79
592.00,98.75
591.00,98.92
590.00,99.14
589.00,99.10
588.00,98.78
587.00,98.42
586.00,98.26
585.00,98.30
584.00,98.34
583.00,98.19
582.00,97.86
581.00,97.51
580.00,97.29
579.00,97.22
578.00,97.23
577.00,97.33
576.00,97.62
575.00,98.11
574.00,98.66
573.00,99.09
572.00,99.37
571.00,99.50
570.00,99.44
569.00,99.19
568.00,98.82
567.00,98.49
566.00,98.34
565.00,98.44
564.00,98.79
563.00,99.18
562.00,99.18
561.00,98.55
560.00,97.62
559.00,96.99
558.00,96.98
557.00,97.35
556.00,97.77
555.00,98.12
554.00,98.41
553.00,98.56
552.00,98.48
551.00,98.32
550.00,98.37
