Created as New Dataset,60 Lenzing Lenzing Modal
cm-1,%T
4000.00,97.26
3999.00,97.28
3998.00,97.29
3997.00,97.27
3996.00,97.25
3995.00,97.23
3994.00,97.22
3993.00,97.24
3992.00,97.26
3991.00,97.27
3990.00,97.27
3989.00,97.26
3988.00,97.25
3987.00,97.25
3986.00,97.26
3985.00,97.27
3984.00,97.27
3983.00,97.26
3982.00,97.24
3981.00,97.23
3980.00,97.24
3979.00,97.25
3978.00,97.27
3977.00,97.28
3976.00,97.29
3975.00,97.27
3974.00,97.25
3973.00,97.23
3972.00,97.22
3971.00,97.23
3970.00,97.24
3969.00,97.24
3968.00,97.25
3967.00,97.25
3966.00,97.25
3965.00,97.24
3964.00,97.24
3963.00,97.23
3962.00,97.23
3961.00,97.24
3960.00,97.25
3959.00,97.26
3958.00,97.26
3957.00,97.27
3956.00,97.27
3955.00,97.26
3954.00,97.26
3953.00,97.26
3952.00,97.26
3951.00,97.27
3950.00,97.27
3949.00,97.27
3948.00,97.25
3947.00,97.23
3946.00,97.21
3945.00,97.20
3944.00,97.20
3943.00,97.20
3942.00,97.20
3941.00,97.19
3940.00,97.17
3939.00,97.16
3938.00,97.15
3937.00,97.16
3936.00,97.16
3935.00,97.16
3934.00,97.16
3933.00,97.16
3932.00,97.16
3931.00,97.17
3930.00,97.18
3929.00,97.19
3928.00,97.20
3927.00,97.21
3926.00,97.22
3925.00,97.24
3924.00,97.25
3923.00,97.26
3922.00,97.25
3921.00,97.25
3920.00,97.25
3919.00,97.25
3918.00,97.25
3917.00,97.24
3916.00,97.24
3915.00,97.25
3914.00,97.26
3913.00,97.29
3912.00,97.31
3911.00,97.32
3910.00,97.31
3909.00,97.28
3908.00,97.24
3907.00,97.20
3906.00,97.17
3905.00,97.16
3904.00,97.16
3903.00,97.14
3902.00,97.13
3901.00,97.13
3900.00,97.16
3899.00,97.20
3898.00,97.21
3897.00,97.21
3896.00,97.21
3895.00,97.20
3894.00,97.20
3893.00,97.22
3892.00,97.24
3891.00,97.25
3890.00,97.24
3889.00,97.20
3888.00,97.16
3887.00,97.15
3886.00,97.16
3885.00,97.15
3884.00,97.11
3883.00,97.07
3882.00,97.07
3881.00,97.10
3880.00,97.14
3879.00,97.17
3878.00,97.17
3877.00,97.17
3876.00,97.19
3875.00,97.21
3874.00,97.21
3873.00,97.17
3872.00,97.12
3871.00,97.10
3870.00,97.13
3869.00,97.15
3868.00,97.15
3867.00,97.14
3866.00,97.15
3865.00,97.18
3864.00,97.20
3863.00,97.20
3862.00,97.19
3861.00,97.19
3860.00,97.18
3859.00,97.17
3858.00,97.16
3857.00,97.12
3856.00,97.09
3855.00,97.08
3854.00,97.09
3853.00,97.09
3852.00,97.07
3851.00,97.08
3850.00,97.10
3849.00,97.14
3848.00,97.18
3847.00,97.20
3846.00,97.20
3845.00,97.20
3844.00,97.20
3843.00,97.19
3842.00,97.17
3841.00,97.15
3840.00,97.13
3839.00,97.13
3838.00,97.12
3837.00,97.10
3836.00,97.07
3835.00,97.05
3834.00,97.05
3833.00,97.08
3832.00,97.13
3831.00,97.16
3830.00,97.15
3829.00,97.12
3828.00,97.09
3827.00,97.10
3826.00,97.11
3825.00,97.12
3824.00,97.11
3823.00,97.10
3822.00,97.12
3821.00,97.13
3820.00,97.11
3819.00,97.07
3818.00,97.04
3817.00,97.06
3816.00,97.11
3815.00,97.13
3814.00,97.13
3813.00,97.13
3812.00,97.15
3811.00,97.17
3810.00,97.17
3809.00,97.16
3808.00,97.15
3807.00,97.14
3806.00,97.11
3805.00,97.05
3804.00,96.99
3803.00,96.98
3802.00,97.03
3801.00,97.07
3800.00,97.08
3799.00,97.07
3798.00,97.08
3797.00,97.10
3796.00,97.13
3795.00,97.12
3794.00,97.11
3793.00,97.11
3792.00,97.13
3791.00,97.16
3790.00,97.17
3789.00,97.17
3788.00,97.17
3787.00,97.16
3786.00,97.16
3785.00,97.17
3784.00,97.18
3783.00,97.18
3782.00,97.17
3781.00,97.16
3780.00,97.17
3779.00,97.17
3778.00,97.16
3777.00,97.15
3776.00,97.14
3775.00,97.14
3774.00,97.14
3773.00,97.13
3772.00,97.14
3771.00,97.16
3770.00,97.20
3769.00,97.20
3768.00,97.18
3767.00,97.16
3766.00,97.15
3765.00,97.16
3764.00,97.15
3763.00,97.13
3762.00,97.10
3761.00,97.08
3760.00,97.07
3759.00,97.06
3758.00,97.05
3757.00,97.05
3756.00,97.05
3755.00,97.04
3754.00,97.03
3753.00,97.01
3752.00,96.98
3751.00,96.96
3750.00,96.93
3749.00,96.91
3748.00,96.88
3747.00,96.85
3746.00,96.87
3745.00,96.95
3744.00,97.02
3743.00,97.04
3742.00,97.03
3741.00,97.03
3740.00,97.04
3739.00,97.03
3738.00,97.00
3737.00,96.97
3736.00,96.95
3735.00,96.93
3734.00,96.92
3733.00,96.92
3732.00,96.95
3731.00,96.99
3730.00,97.03
3729.00,97.08
3728.00,97.15
3727.00,97.20
3726.00,97.21
3725.00,97.19
3724.00,97.14
3723.00,97.09
3722.00,97.05
3721.00,97.02
3720.00,97.01
3719.00,97.02
3718.00,97.03
3717.00,97.04
3716.00,97.04
3715.00,97.02
3714.00,97.01
3713.00,97.01
3712.00,97.01
3711.00,97.01
3710.00,96.99
3709.00,96.98
3708.00,96.98
3707.00,96.99
3706.00,97.00
3705.00,97.01
3704.00,97.01
3703.00,97.02
3702.00,97.02
3701.00,97.03
3700.00,97.03
3699.00,97.03
3698.00,97.03
3697.00,97.05
3696.00,97.06
3695.00,97.07
3694.00,97.05
3693.00,97.02
3692.00,96.97
3691.00,96.94
3690.00,96.93
3689.00,96.95
3688.00,96.97
3687.00,96.99
3686.00,96.99
3685.00,96.98
3684.00,96.98
3683.00,96.97
3682.00,96.95
3681.00,96.94
3680.00,96.93
3679.00,96.90
3678.00,96.86
3677.00,96.82
3676.00,96.81
3675.00,96.80
3674.00,96.78
3673.00,96.76
3672.00,96.75
3671.00,96.78
3670.00,96.81
3669.00,96.82
3668.00,96.81
3667.00,96.82
3666.00,96.85
3665.00,96.87
3664.00,96.87
3663.00,96.86
3662.00,96.84
3661.00,96.84
3660.00,96.83
3659.00,96.82
3658.00,96.81
3657.00,96.80
3656.00,96.79
3655.00,96.76
3654.00,96.70
3653.00,96.64
3652.00,96.60
3651.00,96.58
3650.00,96.57
3649.00,96.55
3648.00,96.54
3647.00,96.55
3646.00,96.56
3645.00,96.58
3644.00,96.59
3643.00,96.61
3642.00,96.63
3641.00,96.63
3640.00,96.63
3639.00,96.62
3638.00,96.59
3637.00,96.57
3636.00,96.55
3635.00,96.55
3634.00,96.55
3633.00,96.53
3632.00,96.48
3631.00,96.41
3630.00,96.34
3629.00,96.30
3628.00,96.26
3627.00,96.24
3626.00,96.25
3625.00,96.26
3624.00,96.25
3623.00,96.22
3622.00,96.16
3621.00,96.12
3620.00,96.09
3619.00,96.08
3618.00,96.05
3617.00,96.02
3616.00,96.00
3615.00,95.98
3614.00,95.97
3613.00,95.95
3612.00,95.93
3611.00,95.90
3610.00,95.87
3609.00,95.86
3608.00,95.85
3607.00,95.84
3606.00,95.83
3605.00,95.81
3604.00,95.80
3603.00,95.77
3602.00,95.74
3601.00,95.71
3600.00,95.67
3599.00,95.63
3598.00,95.59
3597.00,95.55
3596.00,95.51
3595.00,95.48
3594.00,95.47
3593.00,95.48
3592.00,95.48
3591.00,95.47
3590.00,95.44
3589.00,95.40
3588.00,95.34
3587.00,95.28
3586.00,95.21
3585.00,95.17
3584.00,95.16
3583.00,95.17
3582.00,95.19
3581.00,95.18
3580.00,95.15
3579.00,95.09
3578.00,95.03
3577.00,94.97
3576.00,94.92
3575.00,94.88
3574.00,94.86
3573.00,94.84
3572.00,94.82
3571.00,94.78
3570.00,94.74
3569.00,94.69
3568.00,94.65
3567.00,94.61
3566.00,94.57
3565.00,94.53
3564.00,94.50
3563.00,94.46
3562.00,94.42
3561.00,94.38
3560.00,94.36
3559.00,94.33
3558.00,94.30
3557.00,94.27
3556.00,94.23
3555.00,94.20
3554.00,94.16
3553.00,94.11
3552.00,94.06
3551.00,94.01
3550.00,93.97
3549.00,93.92
3548.00,93.87
3547.00,93.84
3546.00,93.81
3545.00,93.78
3544.00,93.75
3543.00,93.71
3542.00,93.66
3541.00,93.62
3540.00,93.59
3539.00,93.57
3538.00,93.55
3537.00,93.53
3536.00,93.49
3535.00,93.45
3534.00,93.39
3533.00,93.34
3532.00,93.28
3531.00,93.23
3530.00,93.20
3529.00,93.18
3528.00,93.17
3527.00,93.16
3526.00,93.14
3525.00,93.10
3524.00,93.03
3523.00,92.95
3522.00,92.88
3521.00,92.81
3520.00,92.75
3519.00,92.69
3518.00,92.62
3517.00,92.56
3516.00,92.51
3515.00,92.49
3514.00,92.48
3513.00,92.46
3512.00,92.43
3511.00,92.37
3510.00,92.31
3509.00,92.25
3508.00,92.22
3507.00,92.19
3506.00,92.16
3505.00,92.12
3504.00,92.07
3503.00,92.01
3502.00,91.96
3501.00,91.91
3500.00,91.85
3499.00,91.79
3498.00,91.74
3497.00,91.68
3496.00,91.63
3495.00,91.56
3494.00,91.49
3493.00,91.44
3492.00,91.40
3491.00,91.36
3490.00,91.32
3489.00,91.26
3488.00,91.21
3487.00,91.17
3486.00,91.14
3485.00,91.13
3484.00,91.10
3483.00,91.06
3482.00,91.00
3481.00,90.93
3480.00,90.86
3479.00,90.80
3478.00,90.76
3477.00,90.75
3476.00,90.73
3475.00,90.71
3474.00,90.68
3473.00,90.63
3472.00,90.58
3471.00,90.54
3470.00,90.50
3469.00,90.47
3468.00,90.45
3467.00,90.41
3466.00,90.37
3465.00,90.32
3464.00,90.28
3463.00,90.24
3462.00,90.20
3461.00,90.14
3460.00,90.09
3459.00,90.05
3458.00,90.02
3457.00,89.99
3456.00,89.94
3455.00,89.90
3454.00,89.86
3453.00,89.82
3452.00,89.78
3451.00,89.73
3450.00,89.67
3449.00,89.61
3448.00,89.55
3447.00,89.51
3446.00,89.47
3445.00,89.44
3444.00,89.41
3443.00,89.37
3442.00,89.33
3441.00,89.30
3440.00,89.29
3439.00,89.29
3438.00,89.27
3437.00,89.23
3436.00,89.20
3435.00,89.17
3434.00,89.14
3433.00,89.11
3432.00,89.08
3431.00,89.06
3430.00,89.03
3429.00,89.00
3428.00,88.98
3427.00,88.94
3426.00,88.91
3425.00,88.88
3424.00,88.87
3423.00,88.85
3422.00,88.84
3421.00,88.83
3420.00,88.81
3419.00,88.80
3418.00,88.77
3417.00,88.74
3416.00,88.70
3415.00,88.67
3414.00,88.65
3413.00,88.64
3412.00,88.63
3411.00,88.62
3410.00,88.60
3409.00,88.58
3408.00,88.55
3407.00,88.52
3406.00,88.50
3405.00,88.47
3404.00,88.44
3403.00,88.43
3402.00,88.42
3401.00,88.41
3400.00,88.41
3399.00,88.41
3398.00,88.41
3397.00,88.41
3396.00,88.39
3395.00,88.35
3394.00,88.29
3393.00,88.24
3392.00,88.20
3391.00,88.17
3390.00,88.16
3389.00,88.16
3388.00,88.15
3387.00,88.14
3386.00,88.12
3385.00,88.11
3384.00,88.09
3383.00,88.07
3382.00,88.05
3381.00,88.03
3380.00,88.01
3379.00,87.99
3378.00,87.99
3377.00,87.98
3376.00,87.98
3375.00,87.98
3374.00,87.97
3373.00,87.96
3372.00,87.96
3371.00,87.95
3370.00,87.94
3369.00,87.90
3368.00,87.86
3367.00,87.81
3366.00,87.79
3365.00,87.78
3364.00,87.80
3363.00,87.83
3362.00,87.85
3361.00,87.85
3360.00,87.84
3359.00,87.81
3358.00,87.78
3357.00,87.76
3356.00,87.74
3355.00,87.74
3354.00,87.74
3353.00,87.74
3352.00,87.73
3351.00,87.73
3350.00,87.72
3349.00,87.71
3348.00,87.71
3347.00,87.70
3346.00,87.70
3345.00,87.69
3344.00,87.68
3343.00,87.66
3342.00,87.64
3341.00,87.63
3340.00,87.63
3339.00,87.65
3338.00,87.67
3337.00,87.67
3336.00,87.67
3335.00,87.66
3334.00,87.66
3333.00,87.67
3332.00,87.67
3331.00,87.67
3330.00,87.66
3329.00,87.66
3328.00,87.66
3327.00,87.65
3326.00,87.65
3325.00,87.65
3324.00,87.65
3323.00,87.66
3322.00,87.67
3321.00,87.69
3320.00,87.69
3319.00,87.68
3318.00,87.67
3317.00,87.65
3316.00,87.63
3315.00,87.63
3314.00,87.63
3313.00,87.66
3312.00,87.70
3311.00,87.74
3310.00,87.76
3309.00,87.74
3308.00,87.71
3307.00,87.68
3306.00,87.66
3305.00,87.67
3304.00,87.69
3303.00,87.72
3302.00,87.74
3301.00,87.76
3300.00,87.76
3299.00,87.76
3298.00,87.76
3297.00,87.75
3296.00,87.74
3295.00,87.73
3294.00,87.73
3293.00,87.74
3292.00,87.76
3291.00,87.78
3290.00,87.80
3289.00,87.81
3288.00,87.81
3287.00,87.81
3286.00,87.82
3285.00,87.83
3284.00,87.83
3283.00,87.82
3282.00,87.81
3281.00,87.80
3280.00,87.79
3279.00,87.80
3278.00,87.80
3277.00,87.82
3276.00,87.85
3275.00,87.88
3274.00,87.91
3273.00,87.93
3272.00,87.93
3271.00,87.92
3270.00,87.91
3269.00,87.90
3268.00,87.91
3267.00,87.93
3266.00,87.96
3265.00,87.99
3264.00,88.01
3263.00,88.03
3262.00,88.04
3261.00,88.04
3260.00,88.03
3259.00,88.03
3258.00,88.04
3257.00,88.05
3256.00,88.07
3255.00,88.09
3254.00,88.11
3253.00,88.12
3252.00,88.13
3251.00,88.14
3250.00,88.14
3249.00,88.14
3248.00,88.14
3247.00,88.16
3246.00,88.18
3245.00,88.21
3244.00,88.24
3243.00,88.25
3242.00,88.26
3241.00,88.26
3240.00,88.26
3239.00,88.27
3238.00,88.30
3237.00,88.33
3236.00,88.37
3235.00,88.40
3234.00,88.41
3233.00,88.43
3232.00,88.45
3231.00,88.49
3230.00,88.53
3229.00,88.56
3228.00,88.58
3227.00,88.59
3226.00,88.62
3225.00,88.65
3224.00,88.67
3223.00,88.69
3222.00,88.70
3221.00,88.71
3220.00,88.72
3219.00,88.73
3218.00,88.74
3217.00,88.75
3216.00,88.77
3215.00,88.78
3214.00,88.80
3213.00,88.81
3212.00,88.84
3211.00,88.87
3210.00,88.89
3209.00,88.90
3208.00,88.92
3207.00,88.94
3206.00,88.98
3205.00,89.02
3204.00,89.05
3203.00,89.07
3202.00,89.07
3201.00,89.07
3200.00,89.09
3199.00,89.13
3198.00,89.19
3197.00,89.24
3196.00,89.27
3195.00,89.29
3194.00,89.30
3193.00,89.32
3192.00,89.34
3191.00,89.36
3190.00,89.38
3189.00,89.38
3188.00,89.40
3187.00,89.42
3186.00,89.46
3185.00,89.51
3184.00,89.55
3183.00,89.57
3182.00,89.59
3181.00,89.60
3180.00,89.62
3179.00,89.65
3178.00,89.68
3177.00,89.71
3176.00,89.73
3175.00,89.75
3174.00,89.76
3173.00,89.77
3172.00,89.78
3171.00,89.80
3170.00,89.82
3169.00,89.86
3168.00,89.91
3167.00,89.95
3166.00,89.98
3165.00,90.01
3164.00,90.03
3163.00,90.06
3162.00,90.08
3161.00,90.11
3160.00,90.14
3159.00,90.17
3158.00,90.19
3157.00,90.23
3156.00,90.27
3155.00,90.32
3154.00,90.36
3153.00,90.39
3152.00,90.42
3151.00,90.45
3150.00,90.48
3149.00,90.52
3148.00,90.55
3147.00,90.58
3146.00,90.60
3145.00,90.62
3144.00,90.63
3143.00,90.65
3142.00,90.69
3141.00,90.74
3140.00,90.80
3139.00,90.86
3138.00,90.90
3137.00,90.92
3136.00,90.93
3135.00,90.95
3134.00,90.96
3133.00,90.99
3132.00,91.02
3131.00,91.04
3130.00,91.07
3129.00,91.10
3128.00,91.15
3127.00,91.21
3126.00,91.25
3125.00,91.29
3124.00,91.32
3123.00,91.35
3122.00,91.38
3121.00,91.41
3120.00,91.44
3119.00,91.48
3118.00,91.52
3117.00,91.55
3116.00,91.58
3115.00,91.60
3114.00,91.60
3113.00,91.61
3112.00,91.62
3111.00,91.65
3110.00,91.69
3109.00,91.74
3108.00,91.78
3107.00,91.83
3106.00,91.87
3105.00,91.91
3104.00,91.94
3103.00,91.97
3102.00,91.98
3101.00,92.00
3100.00,92.02
3099.00,92.04
3098.00,92.07
3097.00,92.10
3096.00,92.13
3095.00,92.15
3094.00,92.19
3093.00,92.22
3092.00,92.27
3091.00,92.32
3090.00,92.37
3089.00,92.41
3088.00,92.43
3087.00,92.45
3086.00,92.47
3085.00,92.50
3084.00,92.54
3083.00,92.57
3082.00,92.60
3081.00,92.64
3080.00,92.68
3079.00,92.71
3078.00,92.74
3077.00,92.77
3076.00,92.81
3075.00,92.85
3074.00,92.89
3073.00,92.91
3072.00,92.92
3071.00,92.92
3070.00,92.93
3069.00,92.95
3068.00,92.97
3067.00,92.99
3066.00,93.02
3065.00,93.05
3064.00,93.09
3063.00,93.15
3062.00,93.20
3061.00,93.25
3060.00,93.28
3059.00,93.29
3058.00,93.29
3057.00,93.30
3056.00,93.32
3055.00,93.34
3054.00,93.36
3053.00,93.39
3052.00,93.43
3051.00,93.47
3050.00,93.51
3049.00,93.53
3048.00,93.55
3047.00,93.55
3046.00,93.56
3045.00,93.56
3044.00,93.58
3043.00,93.61
3042.00,93.64
3041.00,93.68
3040.00,93.70
3039.00,93.72
3038.00,93.74
3037.00,93.74
3036.00,93.76
3035.00,93.78
3034.00,93.82
3033.00,93.87
3032.00,93.92
3031.00,93.96
3030.00,93.98
3029.00,93.99
3028.00,93.99
3027.00,94.00
3026.00,94.03
3025.00,94.05
3024.00,94.07
3023.00,94.08
3022.00,94.08
3021.00,94.10
3020.00,94.12
3019.00,94.14
3018.00,94.15
3017.00,94.16
3016.00,94.16
3015.00,94.17
3014.00,94.18
3013.00,94.19
3012.00,94.21
3011.00,94.22
3010.00,94.24
3009.00,94.25
3008.00,94.26
3007.00,94.28
3006.00,94.30
3005.00,94.33
3004.00,94.36
3003.00,94.39
3002.00,94.43
3001.00,94.47
3000.00,94.49
2999.00,94.48
2998.00,94.45
2997.00,94.42
2996.00,94.38
2995.00,94.35
2994.00,94.33
2993.00,94.33
2992.00,94.35
2991.00,94.36
2990.00,94.37
2989.00,94.35
2988.00,94.33
2987.00,94.31
2986.00,94.30
2985.00,94.30
2984.00,94.30
2983.00,94.30
2982.00,94.30
2981.00,94.30
2980.00,94.30
2979.00,94.30
2978.00,94.29
2977.00,94.28
2976.00,94.26
2975.00,94.24
2974.00,94.22
2973.00,94.21
2972.00,94.20
2971.00,94.19
2970.00,94.16
2969.00,94.14
2968.00,94.11
2967.00,94.08
2966.00,94.06
2965.00,94.05
2964.00,94.03
2963.00,94.01
2962.00,93.99
2961.00,93.96
2960.00,93.92
2959.00,93.87
2958.00,93.83
2957.00,93.80
2956.00,93.78
2955.00,93.75
2954.00,93.72
2953.00,93.69
2952.00,93.66
2951.00,93.62
2950.00,93.58
2949.00,93.52
2948.00,93.46
2947.00,93.40
2946.00,93.33
2945.00,93.28
2944.00,93.23
2943.00,93.19
2942.00,93.14
2941.00,93.09
2940.00,93.03
2939.00,92.98
2938.00,92.93
2937.00,92.88
2936.00,92.84
2935.00,92.79
2934.00,92.76
2933.00,92.73
2932.00,92.69
2931.00,92.66
2930.00,92.61
2929.00,92.56
2928.00,92.52
2927.00,92.49
2926.00,92.45
2925.00,92.42
2924.00,92.39
2923.00,92.36
2922.00,92.33
2921.00,92.30
2920.00,92.27
2919.00,92.23
2918.00,92.19
2917.00,92.16
2916.00,92.14
2915.00,92.12
2914.00,92.11
2913.00,92.11
2912.00,92.09
2911.00,92.07
2910.00,92.05
2909.00,92.02
2908.00,92.00
2907.00,91.98
2906.00,91.96
2905.00,91.94
2904.00,91.92
2903.00,91.90
2902.00,91.88
2901.00,91.86
2900.00,91.84
2899.00,91.82
2898.00,91.80
2897.00,91.79
2896.00,91.77
2895.00,91.75
2894.00,91.73
2893.00,91.72
2892.00,91.71
2891.00,91.70
2890.00,91.71
2889.00,91.71
2888.00,91.73
2887.00,91.74
2886.00,91.76
2885.00,91.78
2884.00,91.80
2883.00,91.81
2882.00,91.81
2881.00,91.80
2880.00,91.81
2879.00,91.82
2878.00,91.83
2877.00,91.85
2876.00,91.88
2875.00,91.92
2874.00,91.95
2873.00,91.98
2872.00,92.01
2871.00,92.06
2870.00,92.11
2869.00,92.17
2868.00,92.22
2867.00,92.25
2866.00,92.28
2865.00,92.31
2864.00,92.36
2863.00,92.41
2862.00,92.46
2861.00,92.50
2860.00,92.54
2859.00,92.58
2858.00,92.61
2857.00,92.66
2856.00,92.71
2855.00,92.78
2854.00,92.84
2853.00,92.90
2852.00,92.94
2851.00,92.97
2850.00,93.01
2849.00,93.06
2848.00,93.12
2847.00,93.19
2846.00,93.25
2845.00,93.31
2844.00,93.36
2843.00,93.40
2842.00,93.45
2841.00,93.50
2840.00,93.55
2839.00,93.60
2838.00,93.62
2837.00,93.64
2836.00,93.65
2835.00,93.67
2834.00,93.70
2833.00,93.73
2832.00,93.76
2831.00,93.80
2830.00,93.82
2829.00,93.85
2828.00,93.87
2827.00,93.89
2826.00,93.92
2825.00,93.95
2824.00,93.98
2823.00,94.01
2822.00,94.03
2821.00,94.04
2820.00,94.05
2819.00,94.06
2818.00,94.07
2817.00,94.08
2816.00,94.10
2815.00,94.11
2814.00,94.13
2813.00,94.13
2812.00,94.14
2811.00,94.16
2810.00,94.18
2809.00,94.20
2808.00,94.21
2807.00,94.23
2806.00,94.24
2805.00,94.26
2804.00,94.29
2803.00,94.31
2802.00,94.34
2801.00,94.35
2800.00,94.36
2799.00,94.37
2798.00,94.39
2797.00,94.41
2796.00,94.44
2795.00,94.45
2794.00,94.46
2793.00,94.47
2792.00,94.47
2791.00,94.48
2790.00,94.49
2789.00,94.50
2788.00,94.52
2787.00,94.53
2786.00,94.54
2785.00,94.56
2784.00,94.58
2783.00,94.60
2782.00,94.62
2781.00,94.62
2780.00,94.62
2779.00,94.64
2778.00,94.66
2777.00,94.68
2776.00,94.69
2775.00,94.69
2774.00,94.68
2773.00,94.68
2772.00,94.69
2771.00,94.70
2770.00,94.71
2769.00,94.73
2768.00,94.75
2767.00,94.76
2766.00,94.77
2765.00,94.77
2764.00,94.77
2763.00,94.77
2762.00,94.78
2761.00,94.78
2760.00,94.79
2759.00,94.79
2758.00,94.78
2757.00,94.77
2756.00,94.77
2755.00,94.77
2754.00,94.78
2753.00,94.80
2752.00,94.82
2751.00,94.84
2750.00,94.85
2749.00,94.86
2748.00,94.87
2747.00,94.88
2746.00,94.87
2745.00,94.86
2744.00,94.85
2743.00,94.85
2742.00,94.84
2741.00,94.84
2740.00,94.84
2739.00,94.85
2738.00,94.86
2737.00,94.87
2736.00,94.88
2735.00,94.89
2734.00,94.91
2733.00,94.93
2732.00,94.94
2731.00,94.95
2730.00,94.96
2729.00,94.96
2728.00,94.96
2727.00,94.96
2726.00,94.94
2725.00,94.93
2724.00,94.94
2723.00,94.95
2722.00,94.97
2721.00,94.99
2720.00,94.99
2719.00,94.99
2718.00,94.99
2717.00,94.99
2716.00,94.99
2715.00,94.99
2714.00,95.01
2713.00,95.02
2712.00,95.03
2711.00,95.04
2710.00,95.05
2709.00,95.04
2708.00,95.04
2707.00,95.03
2706.00,95.03
2705.00,95.05
2704.00,95.07
2703.00,95.09
2702.00,95.09
2701.00,95.09
2700.00,95.09
2699.00,95.09
2698.00,95.09
2697.00,95.10
2696.00,95.12
2695.00,95.15
2694.00,95.17
2693.00,95.19
2692.00,95.19
2691.00,95.18
2690.00,95.17
2689.00,95.17
2688.00,95.17
2687.00,95.18
2686.00,95.20
2685.00,95.21
2684.00,95.21
2683.00,95.22
2682.00,95.22
2681.00,95.23
2680.00,95.24
2679.00,95.25
2678.00,95.25
2677.00,95.25
2676.00,95.25
2675.00,95.25
2674.00,95.26
2673.00,95.27
2672.00,95.27
2671.00,95.27
2670.00,95.28
2669.00,95.28
2668.00,95.30
2667.00,95.32
2666.00,95.33
2665.00,95.33
2664.00,95.33
2663.00,95.31
2662.00,95.30
2661.00,95.28
2660.00,95.27
2659.00,95.28
2658.00,95.28
2657.00,95.28
2656.00,95.28
2655.00,95.28
2654.00,95.28
2653.00,95.29
2652.00,95.30
2651.00,95.31
2650.00,95.31
2649.00,95.30
2648.00,95.28
2647.00,95.27
2646.00,95.26
2645.00,95.25
2644.00,95.25
2643.00,95.25
2642.00,95.25
2641.00,95.24
2640.00,95.24
2639.00,95.23
2638.00,95.23
2637.00,95.24
2636.00,95.26
2635.00,95.27
2634.00,95.26
2633.00,95.26
2632.00,95.26
2631.00,95.27
2630.00,95.28
2629.00,95.29
2628.00,95.28
2627.00,95.28
2626.00,95.28
2625.00,95.28
2624.00,95.28
2623.00,95.27
2622.00,95.27
2621.00,95.28
2620.00,95.28
2619.00,95.29
2618.00,95.29
2617.00,95.29
2616.00,95.29
2615.00,95.30
2614.00,95.31
2613.00,95.31
2612.00,95.29
2611.00,95.27
2610.00,95.26
2609.00,95.27
2608.00,95.28
2607.00,95.29
2606.00,95.29
2605.00,95.26
2604.00,95.24
2603.00,95.22
2602.00,95.20
2601.00,95.18
2600.00,95.18
2599.00,95.19
2598.00,95.20
2597.00,95.21
2596.00,95.20
2595.00,95.20
2594.00,95.21
2593.00,95.23
2592.00,95.24
2591.00,95.24
2590.00,95.24
2589.00,95.23
2588.00,95.23
2587.00,95.22
2586.00,95.21
2585.00,95.19
2584.00,95.18
2583.00,95.17
2582.00,95.18
2581.00,95.21
2580.00,95.24
2579.00,95.26
2578.00,95.27
2577.00,95.28
2576.00,95.29
2575.00,95.29
2574.00,95.30
2573.00,95.30
2572.00,95.28
2571.00,95.25
2570.00,95.22
2569.00,95.19
2568.00,95.18
2567.00,95.19
2566.00,95.21
2565.00,95.24
2564.00,95.26
2563.00,95.27
2562.00,95.27
2561.00,95.27
2560.00,95.28
2559.00,95.30
2558.00,95.30
2557.00,95.30
2556.00,95.28
2555.00,95.26
2554.00,95.25
2553.00,95.25
2552.00,95.26
2551.00,95.26
2550.00,95.26
2549.00,95.26
2548.00,95.25
2547.00,95.24
2546.00,95.23
2545.00,95.23
2544.00,95.22
2543.00,95.22
2542.00,95.22
2541.00,95.22
2540.00,95.24
2539.00,95.25
2538.00,95.26
2537.00,95.26
2536.00,95.26
2535.00,95.24
2534.00,95.23
2533.00,95.21
2532.00,95.21
2531.00,95.22
2530.00,95.25
2529.00,95.29
2528.00,95.31
2527.00,95.32
2526.00,95.31
2525.00,95.30
2524.00,95.29
2523.00,95.28
2522.00,95.28
2521.00,95.28
2520.00,95.29
2519.00,95.30
2518.00,95.30
2517.00,95.29
2516.00,95.30
2515.00,95.31
2514.00,95.34
2513.00,95.38
2512.00,95.41
2511.00,95.43
2510.00,95.41
2509.00,95.38
2508.00,95.35
2507.00,95.33
2506.00,95.33
2505.00,95.34
2504.00,95.34
2503.00,95.34
2502.00,95.34
2501.00,95.35
2500.00,95.36
2499.00,95.35
2498.00,95.34
2497.00,95.33
2496.00,95.33
2495.00,95.33
2494.00,95.33
2493.00,95.32
2492.00,95.32
2491.00,95.33
2490.00,95.36
2489.00,95.40
2488.00,95.43
2487.00,95.42
2486.00,95.39
2485.00,95.36
2484.00,95.36
2483.00,95.37
2482.00,95.39
2481.00,95.40
2480.00,95.41
2479.00,95.43
2478.00,95.46
2477.00,95.47
2476.00,95.47
2475.00,95.45
2474.00,95.43
2473.00,95.42
2472.00,95.41
2471.00,95.40
2470.00,95.38
2469.00,95.36
2468.00,95.37
2467.00,95.39
2466.00,95.41
2465.00,95.43
2464.00,95.45
2463.00,95.46
2462.00,95.47
2461.00,95.47
2460.00,95.48
2459.00,95.48
2458.00,95.48
2457.00,95.49
2456.00,95.49
2455.00,95.49
2454.00,95.49
2453.00,95.49
2452.00,95.48
2451.00,95.46
2450.00,95.44
2449.00,95.43
2448.00,95.42
2447.00,95.42
2446.00,95.44
2445.00,95.46
2444.00,95.49
2443.00,95.51
2442.00,95.52
2441.00,95.52
2440.00,95.50
2439.00,95.48
2438.00,95.45
2437.00,95.44
2436.00,95.45
2435.00,95.47
2434.00,95.48
2433.00,95.50
2432.00,95.51
2431.00,95.52
2430.00,95.53
2429.00,95.54
2428.00,95.55
2427.00,95.57
2426.00,95.57
2425.00,95.57
2424.00,95.57
2423.00,95.57
2422.00,95.59
2421.00,95.61
2420.00,95.63
2419.00,95.65
2418.00,95.66
2417.00,95.68
2416.00,95.69
2415.00,95.69
2414.00,95.68
2413.00,95.69
2412.00,95.70
2411.00,95.71
2410.00,95.72
2409.00,95.73
2408.00,95.74
2407.00,95.74
2406.00,95.74
2405.00,95.74
2404.00,95.74
2403.00,95.74
2402.00,95.74
2401.00,95.72
2400.00,95.71
2399.00,95.71
2398.00,95.72
2397.00,95.73
2396.00,95.75
2395.00,95.77
2394.00,95.79
2393.00,95.81
2392.00,95.81
2391.00,95.80
2390.00,95.81
2389.00,95.83
2388.00,95.85
2387.00,95.87
2386.00,95.88
2385.00,95.89
2384.00,95.91
2383.00,95.93
2382.00,95.94
2381.00,95.94
2380.00,95.95
2379.00,95.97
2378.00,95.99
2377.00,95.99
2376.00,95.97
2375.00,95.94
2374.00,95.94
2373.00,95.96
2372.00,95.99
2371.00,96.01
2370.00,96.01
2369.00,95.98
2368.00,95.96
2367.00,95.95
2366.00,95.98
2365.00,96.03
2364.00,96.10
2363.00,96.16
2362.00,96.18
2361.00,96.12
2360.00,96.01
2359.00,95.89
2358.00,95.79
2357.00,95.74
2356.00,95.75
2355.00,95.80
2354.00,95.86
2353.00,95.95
2352.00,96.05
2351.00,96.16
2350.00,96.24
2349.00,96.28
2348.00,96.30
2347.00,96.32
2346.00,96.31
2345.00,96.28
2344.00,96.23
2343.00,96.18
2342.00,96.13
2341.00,96.07
2340.00,95.99
2339.00,95.92
2338.00,95.88
2337.00,95.88
2336.00,95.90
2335.00,95.90
2334.00,95.87
2333.00,95.82
2332.00,95.81
2331.00,95.83
2330.00,95.86
2329.00,95.84
2328.00,95.80
2327.00,95.74
2326.00,95.70
2325.00,95.68
2324.00,95.68
2323.00,95.68
2322.00,95.65
2321.00,95.59
2320.00,95.53
2319.00,95.52
2318.00,95.56
2317.00,95.62
2316.00,95.67
2315.00,95.69
2314.00,95.68
2313.00,95.64
2312.00,95.60
2311.00,95.57
2310.00,95.56
2309.00,95.57
2308.00,95.58
2307.00,95.59
2306.00,95.57
2305.00,95.56
2304.00,95.55
2303.00,95.57
2302.00,95.58
2301.00,95.59
2300.00,95.60
2299.00,95.60
2298.00,95.61
2297.00,95.62
2296.00,95.61
2295.00,95.58
2294.00,95.55
2293.00,95.52
2292.00,95.50
2291.00,95.46
2290.00,95.43
2289.00,95.39
2288.00,95.34
2287.00,95.30
2286.00,95.26
2285.00,95.25
2284.00,95.28
2283.00,95.32
2282.00,95.35
2281.00,95.35
2280.00,95.35
2279.00,95.34
2278.00,95.32
2277.00,95.30
2276.00,95.29
2275.00,95.27
2274.00,95.25
2273.00,95.22
2272.00,95.19
2271.00,95.18
2270.00,95.18
2269.00,95.17
2268.00,95.15
2267.00,95.13
2266.00,95.13
2265.00,95.14
2264.00,95.14
2263.00,95.15
2262.00,95.14
2261.00,95.12
2260.00,95.09
2259.00,95.07
2258.00,95.06
2257.00,95.07
2256.00,95.10
2255.00,95.14
2254.00,95.18
2253.00,95.19
2252.00,95.18
2251.00,95.14
2250.00,95.09
2249.00,95.03
2248.00,94.99
2247.00,94.96
2246.00,94.96
2245.00,94.97
2244.00,94.99
2243.00,95.00
2242.00,94.99
2241.00,94.96
2240.00,94.91
2239.00,94.89
2238.00,94.89
2237.00,94.89
2236.00,94.86
2235.00,94.81
2234.00,94.76
2233.00,94.74
2232.00,94.75
2231.00,94.77
2230.00,94.78
2229.00,94.75
2228.00,94.73
2227.00,94.73
2226.00,94.76
2225.00,94.77
2224.00,94.72
2223.00,94.64
2222.00,94.56
2221.00,94.50
2220.00,94.48
2219.00,94.51
2218.00,94.57
2217.00,94.63
2216.00,94.67
2215.00,94.69
2214.00,94.69
2213.00,94.69
2212.00,94.69
2211.00,94.69
2210.00,94.67
2209.00,94.65
2208.00,94.61
2207.00,94.58
2206.00,94.57
2205.00,94.58
2204.00,94.61
2203.00,94.66
2202.00,94.68
2201.00,94.66
2200.00,94.60
2199.00,94.54
2198.00,94.50
2197.00,94.48
2196.00,94.46
2195.00,94.42
2194.00,94.38
2193.00,94.36
2192.00,94.37
2191.00,94.38
2190.00,94.38
2189.00,94.37
2188.00,94.36
2187.00,94.34
2186.00,94.30
2185.00,94.26
2184.00,94.24
2183.00,94.26
2182.00,94.30
2181.00,94.35
2180.00,94.37
2179.00,94.37
2178.00,94.34
2177.00,94.30
2176.00,94.26
2175.00,94.22
2174.00,94.18
2173.00,94.15
2172.00,94.11
2171.00,94.08
2170.00,94.07
2169.00,94.05
2168.00,94.00
2167.00,93.91
2166.00,93.81
2165.00,93.73
2164.00,93.71
2163.00,93.70
2162.00,93.71
2161.00,93.76
2160.00,93.86
2159.00,93.99
2158.00,94.11
2157.00,94.18
2156.00,94.21
2155.00,94.22
2154.00,94.23
2153.00,94.26
2152.00,94.30
2151.00,94.35
2150.00,94.42
2149.00,94.51
2148.00,94.58
2147.00,94.62
2146.00,94.62
2145.00,94.63
2144.00,94.67
2143.00,94.73
2142.00,94.77
2141.00,94.78
2140.00,94.80
2139.00,94.82
2138.00,94.87
2137.00,94.93
2136.00,95.01
2135.00,95.08
2134.00,95.13
2133.00,95.14
2132.00,95.14
2131.00,95.16
2130.00,95.17
2129.00,95.15
2128.00,95.13
2127.00,95.12
2126.00,95.12
2125.00,95.12
2124.00,95.09
2123.00,95.06
2122.00,95.04
2121.00,95.04
2120.00,95.04
2119.00,95.05
2118.00,95.04
2117.00,95.04
2116.00,95.05
2115.00,95.05
2114.00,95.06
2113.00,95.07
2112.00,95.08
2111.00,95.08
2110.00,95.07
2109.00,95.05
2108.00,95.01
2107.00,95.01
2106.00,95.05
2105.00,95.09
2104.00,95.10
2103.00,95.08
2102.00,95.06
2101.00,95.08
2100.00,95.10
2099.00,95.10
2098.00,95.07
2097.00,95.04
2096.00,95.03
2095.00,95.07
2094.00,95.12
2093.00,95.14
2092.00,95.12
2091.00,95.10
2090.00,95.12
2089.00,95.17
2088.00,95.19
2087.00,95.17
2086.00,95.11
2085.00,95.07
2084.00,95.05
2083.00,95.05
2082.00,95.04
2081.00,95.03
2080.00,95.01
2079.00,94.99
2078.00,94.97
2077.00,94.96
2076.00,94.97
2075.00,94.98
2074.00,94.98
2073.00,94.99
2072.00,95.01
2071.00,95.03
2070.00,95.04
2069.00,95.04
2068.00,95.05
2067.00,95.05
2066.00,95.03
2065.00,94.98
2064.00,94.92
2063.00,94.88
2062.00,94.88
2061.00,94.91
2060.00,94.94
2059.00,94.93
2058.00,94.89
2057.00,94.83
2056.00,94.78
2055.00,94.74
2054.00,94.68
2053.00,94.63
2052.00,94.60
2051.00,94.60
2050.00,94.61
2049.00,94.61
2048.00,94.59
2047.00,94.58
2046.00,94.57
2045.00,94.55
2044.00,94.52
2043.00,94.50
2042.00,94.48
2041.00,94.47
2040.00,94.42
2039.00,94.33
2038.00,94.24
2037.00,94.18
2036.00,94.16
2035.00,94.17
2034.00,94.19
2033.00,94.23
2032.00,94.26
2031.00,94.26
2030.00,94.24
2029.00,94.20
2028.00,94.19
2027.00,94.26
2026.00,94.38
2025.00,94.50
2024.00,94.56
2023.00,94.54
2022.00,94.49
2021.00,94.45
2020.00,94.44
2019.00,94.44
2018.00,94.46
2017.00,94.48
2016.00,94.51
2015.00,94.52
2014.00,94.50
2013.00,94.45
2012.00,94.43
2011.00,94.46
2010.00,94.50
2009.00,94.54
2008.00,94.57
2007.00,94.59
2006.00,94.60
2005.00,94.54
2004.00,94.44
2003.00,94.35
2002.00,94.32
2001.00,94.38
2000.00,94.50
1999.00,94.62
1998.00,94.68
1997.00,94.68
1996.00,94.67
1995.00,94.70
1994.00,94.74
1993.00,94.76
1992.00,94.73
1991.00,94.68
1990.00,94.65
1989.00,94.63
1988.00,94.63
1987.00,94.66
1986.00,94.71
1985.00,94.73
1984.00,94.68
1983.00,94.57
1982.00,94.44
1981.00,94.35
1980.00,94.31
1979.00,94.31
1978.00,94.35
1977.00,94.43
1976.00,94.54
1975.00,94.64
1974.00,94.72
1973.00,94.77
1972.00,94.80
1971.00,94.85
1970.00,94.90
1969.00,94.94
1968.00,94.95
1967.00,94.90
1966.00,94.84
1965.00,94.81
1964.00,94.84
1963.00,94.90
1962.00,94.97
1961.00,95.03
1960.00,95.05
1959.00,95.05
1958.00,95.04
1957.00,95.06
1956.00,95.08
1955.00,95.10
1954.00,95.11
1953.00,95.13
1952.00,95.17
1951.00,95.21
1950.00,95.24
1949.00,95.25
1948.00,95.25
1947.00,95.26
1946.00,95.29
1945.00,95.31
1944.00,95.32
1943.00,95.32
1942.00,95.32
1941.00,95.34
1940.00,95.37
1939.00,95.39
1938.00,95.37
1937.00,95.34
1936.00,95.30
1935.00,95.29
1934.00,95.30
1933.00,95.34
1932.00,95.40
1931.00,95.46
1930.00,95.51
1929.00,95.54
1928.00,95.53
1927.00,95.49
1926.00,95.45
1925.00,95.44
1924.00,95.48
1923.00,95.54
1922.00,95.60
1921.00,95.64
1920.00,95.68
1919.00,95.69
1918.00,95.67
1917.00,95.65
1916.00,95.64
1915.00,95.65
1914.00,95.66
1913.00,95.66
1912.00,95.67
1911.00,95.68
1910.00,95.70
1909.00,95.73
1908.00,95.76
1907.00,95.77
1906.00,95.75
1905.00,95.71
1904.00,95.69
1903.00,95.71
1902.00,95.74
1901.00,95.77
1900.00,95.78
1899.00,95.79
1898.00,95.80
1897.00,95.82
1896.00,95.85
1895.00,95.86
1894.00,95.85
1893.00,95.84
1892.00,95.85
1891.00,95.86
1890.00,95.87
1889.00,95.85
1888.00,95.83
1887.00,95.81
1886.00,95.80
1885.00,95.80
1884.00,95.79
1883.00,95.80
1882.00,95.81
1881.00,95.83
1880.00,95.85
1879.00,95.87
1878.00,95.88
1877.00,95.89
1876.00,95.90
1875.00,95.92
1874.00,95.93
1873.00,95.92
1872.00,95.90
1871.00,95.89
1870.00,95.88
1869.00,95.86
1868.00,95.85
1867.00,95.87
1866.00,95.89
1865.00,95.92
1864.00,95.94
1863.00,95.95
1862.00,95.96
1861.00,95.97
1860.00,95.97
1859.00,95.97
1858.00,95.96
1857.00,95.96
1856.00,95.96
1855.00,95.97
1854.00,95.97
1853.00,95.97
1852.00,95.97
1851.00,95.97
1850.00,95.98
1849.00,95.99
1848.00,96.01
1847.00,96.03
1846.00,96.04
1845.00,96.04
1844.00,96.03
1843.00,96.03
1842.00,96.04
1841.00,96.05
1840.00,96.05
1839.00,96.04
1838.00,96.03
1837.00,96.02
1836.00,96.02
1835.00,96.02
1834.00,96.02
1833.00,96.02
1832.00,96.03
1831.00,96.03
1830.00,96.05
1829.00,96.06
1828.00,96.06
1827.00,96.04
1826.00,96.01
1825.00,96.00
1824.00,96.01
1823.00,96.04
1822.00,96.06
1821.00,96.06
1820.00,96.04
1819.00,96.03
1818.00,96.03
1817.00,96.07
1816.00,96.11
1815.00,96.15
1814.00,96.17
1813.00,96.16
1812.00,96.14
1811.00,96.13
1810.00,96.13
1809.00,96.16
1808.00,96.18
1807.00,96.19
1806.00,96.19
1805.00,96.18
1804.00,96.19
1803.00,96.20
1802.00,96.21
1801.00,96.20
1800.00,96.18
1799.00,96.17
1798.00,96.17
1797.00,96.17
1796.00,96.16
1795.00,96.16
1794.00,96.15
1793.00,96.16
1792.00,96.18
1791.00,96.20
1790.00,96.22
1789.00,96.23
1788.00,96.22
1787.00,96.20
1786.00,96.18
1785.00,96.17
1784.00,96.17
1783.00,96.17
1782.00,96.18
1781.00,96.18
1780.00,96.17
1779.00,96.17
1778.00,96.18
1777.00,96.18
1776.00,96.19
1775.00,96.18
1774.00,96.18
1773.00,96.18
1772.00,96.19
1771.00,96.20
1770.00,96.19
1769.00,96.18
1768.00,96.18
1767.00,96.17
1766.00,96.16
1765.00,96.15
1764.00,96.15
1763.00,96.15
1762.00,96.15
1761.00,96.16
1760.00,96.16
1759.00,96.16
1758.00,96.18
1757.00,96.19
1756.00,96.20
1755.00,96.20
1754.00,96.20
1753.00,96.19
1752.00,96.19
1751.00,96.18
1750.00,96.17
1749.00,96.17
1748.00,96.18
1747.00,96.20
1746.00,96.21
1745.00,96.21
1744.00,96.21
1743.00,96.22
1742.00,96.22
1741.00,96.21
1740.00,96.19
1739.00,96.17
1738.00,96.16
1737.00,96.16
1736.00,96.16
1735.00,96.17
1734.00,96.15
1733.00,96.12
1732.00,96.09
1731.00,96.08
1730.00,96.07
1729.00,96.08
1728.00,96.08
1727.00,96.07
1726.00,96.07
1725.00,96.06
1724.00,96.06
1723.00,96.06
1722.00,96.05
1721.00,96.05
1720.00,96.05
1719.00,96.06
1718.00,96.06
1717.00,96.03
1716.00,95.98
1715.00,95.95
1714.00,95.94
1713.00,95.94
1712.00,95.94
1711.00,95.94
1710.00,95.94
1709.00,95.92
1708.00,95.91
1707.00,95.89
1706.00,95.88
1705.00,95.86
1704.00,95.84
1703.00,95.83
1702.00,95.82
1701.00,95.80
1700.00,95.77
1699.00,95.74
1698.00,95.72
1697.00,95.70
1696.00,95.70
1695.00,95.69
1694.00,95.67
1693.00,95.65
1692.00,95.63
1691.00,95.61
1690.00,95.59
1689.00,95.57
1688.00,95.55
1687.00,95.53
1686.00,95.49
1685.00,95.43
1684.00,95.35
1683.00,95.29
1682.00,95.26
1681.00,95.25
1680.00,95.24
1679.00,95.23
1678.00,95.19
1677.00,95.14
1676.00,95.08
1675.00,95.02
1674.00,94.97
1673.00,94.92
1672.00,94.87
1671.00,94.82
1670.00,94.77
1669.00,94.72
1668.00,94.68
1667.00,94.65
1666.00,94.63
1665.00,94.60
1664.00,94.58
1663.00,94.54
1662.00,94.50
1661.00,94.46
1660.00,94.42
1659.00,94.38
1658.00,94.34
1657.00,94.31
1656.00,94.28
1655.00,94.25
1654.00,94.22
1653.00,94.16
1652.00,94.11
1651.00,94.08
1650.00,94.07
1649.00,94.07
1648.00,94.07
1647.00,94.07
1646.00,94.07
1645.00,94.07
1644.00,94.07
1643.00,94.07
1642.00,94.06
1641.00,94.05
1640.00,94.05
1639.00,94.05
1638.00,94.05
1637.00,94.04
1636.00,94.03
1635.00,94.04
1634.00,94.07
1633.00,94.11
1632.00,94.14
1631.00,94.17
1630.00,94.18
1629.00,94.19
1628.00,94.20
1627.00,94.23
1626.00,94.28
1625.00,94.33
1624.00,94.37
1623.00,94.40
1622.00,94.42
1621.00,94.44
1620.00,94.46
1619.00,94.48
1618.00,94.51
1617.00,94.54
1616.00,94.57
1615.00,94.60
1614.00,94.63
1613.00,94.66
1612.00,94.70
1611.00,94.74
1610.00,94.77
1609.00,94.81
1608.00,94.84
1607.00,94.88
1606.00,94.90
1605.00,94.92
1604.00,94.94
1603.00,94.96
1602.00,95.00
1601.00,95.03
1600.00,95.07
1599.00,95.10
1598.00,95.14
1597.00,95.17
1596.00,95.20
1595.00,95.22
1594.00,95.23
1593.00,95.25
1592.00,95.26
1591.00,95.28
1590.00,95.29
1589.00,95.31
1588.00,95.33
1587.00,95.35
1586.00,95.39
1585.00,95.42
1584.00,95.44
1583.00,95.45
1582.00,95.45
1581.00,95.46
1580.00,95.47
1579.00,95.49
1578.00,95.52
1577.00,95.56
1576.00,95.59
1575.00,95.61
1574.00,95.61
1573.00,95.60
1572.00,95.60
1571.00,95.60
1570.00,95.60
1569.00,95.61
1568.00,95.62
1567.00,95.64
1566.00,95.66
1565.00,95.67
1564.00,95.68
1563.00,95.67
1562.00,95.67
1561.00,95.67
1560.00,95.68
1559.00,95.68
1558.00,95.67
1557.00,95.67
1556.00,95.66
1555.00,95.67
1554.00,95.68
1553.00,95.69
1552.00,95.68
1551.00,95.68
1550.00,95.67
1549.00,95.67
1548.00,95.68
1547.00,95.70
1546.00,95.72
1545.00,95.74
1544.00,95.74
1543.00,95.73
1542.00,95.73
1541.00,95.73
1540.00,95.72
1539.00,95.72
1538.00,95.71
1537.00,95.71
1536.00,95.73
1535.00,95.75
1534.00,95.77
1533.00,95.77
1532.00,95.75
1531.00,95.74
1530.00,95.74
1529.00,95.74
1528.00,95.73
1527.00,95.74
1526.00,95.74
1525.00,95.75
1524.00,95.76
1523.00,95.77
1522.00,95.75
1521.00,95.72
1520.00,95.69
1519.00,95.68
1518.00,95.69
1517.00,95.70
1516.00,95.70
1515.00,95.70
1514.00,95.70
1513.00,95.69
1512.00,95.69
1511.00,95.69
1510.00,95.68
1509.00,95.68
1508.00,95.66
1507.00,95.64
1506.00,95.61
1505.00,95.60
1504.00,95.58
1503.00,95.57
1502.00,95.56
1501.00,95.53
1500.00,95.50
1499.00,95.47
1498.00,95.45
1497.00,95.41
1496.00,95.37
1495.00,95.34
1494.00,95.32
1493.00,95.30
1492.00,95.25
1491.00,95.20
1490.00,95.15
1489.00,95.09
1488.00,95.05
1487.00,95.00
1486.00,94.95
1485.00,94.89
1484.00,94.83
1483.00,94.78
1482.00,94.72
1481.00,94.65
1480.00,94.57
1479.00,94.51
1478.00,94.44
1477.00,94.37
1476.00,94.29
1475.00,94.22
1474.00,94.15
1473.00,94.04
1472.00,93.92
1471.00,93.82
1470.00,93.76
1469.00,93.70
1468.00,93.63
1467.00,93.54
1466.00,93.45
1465.00,93.37
1464.00,93.30
1463.00,93.25
1462.00,93.21
1461.00,93.18
1460.00,93.15
1459.00,93.12
1458.00,93.09
1457.00,93.03
1456.00,92.97
1455.00,92.92
1454.00,92.88
1453.00,92.83
1452.00,92.78
1451.00,92.72
1450.00,92.69
1449.00,92.65
1448.00,92.61
1447.00,92.57
1446.00,92.53
1445.00,92.50
1444.00,92.46
1443.00,92.42
1442.00,92.38
1441.00,92.34
1440.00,92.29
1439.00,92.25
1438.00,92.21
1437.00,92.17
1436.00,92.14
1435.00,92.12
1434.00,92.10
1433.00,92.08
1432.00,92.06
1431.00,92.04
1430.00,92.03
1429.00,92.03
1428.00,92.03
1427.00,92.02
1426.00,92.00
1425.00,91.98
1424.00,91.97
1423.00,91.96
1422.00,91.96
1421.00,91.95
1420.00,91.94
1419.00,91.93
1418.00,91.92
1417.00,91.93
1416.00,91.93
1415.00,91.94
1414.00,91.95
1413.00,91.96
1412.00,91.96
1411.00,91.97
1410.00,91.99
1409.00,91.99
1408.00,92.00
1407.00,92.00
1406.00,91.99
1405.00,92.00
1404.00,92.00
1403.00,92.01
1402.00,92.02
1401.00,92.01
1400.00,91.99
1399.00,91.97
1398.00,91.95
1397.00,91.95
1396.00,91.95
1395.00,91.95
1394.00,91.93
1393.00,91.90
1392.00,91.86
1391.00,91.83
1390.00,91.79
1389.00,91.75
1388.00,91.69
1387.00,91.61
1386.00,91.54
1385.00,91.45
1384.00,91.36
1383.00,91.26
1382.00,91.16
1381.00,91.07
1380.00,90.98
1379.00,90.89
1378.00,90.81
1377.00,90.74
1376.00,90.66
1375.00,90.57
1374.00,90.49
1373.00,90.42
1372.00,90.36
1371.00,90.32
1370.00,90.29
1369.00,90.29
1368.00,90.29
1367.00,90.29
1366.00,90.30
1365.00,90.31
1364.00,90.32
1363.00,90.34
1362.00,90.37
1361.00,90.40
1360.00,90.44
1359.00,90.47
1358.00,90.50
1357.00,90.53
1356.00,90.57
1355.00,90.61
1354.00,90.65
1353.00,90.68
1352.00,90.70
1351.00,90.72
1350.00,90.73
1349.00,90.74
1348.00,90.75
1347.00,90.76
1346.00,90.77
1345.00,90.78
1344.00,90.78
1343.00,90.77
1342.00,90.76
1341.00,90.74
1340.00,90.71
1339.00,90.68
1338.00,90.66
1337.00,90.64
1336.00,90.62
1335.00,90.61
1334.00,90.61
1333.00,90.62
1332.00,90.63
1331.00,90.65
1330.00,90.67
1329.00,90.68
1328.00,90.67
1327.00,90.66
1326.00,90.65
1325.00,90.64
1324.00,90.63
1323.00,90.62
1322.00,90.60
1321.00,90.58
1320.00,90.56
1319.00,90.53
1318.00,90.51
1317.00,90.51
1316.00,90.52
1315.00,90.53
1314.00,90.56
1313.00,90.59
1312.00,90.62
1311.00,90.67
1310.00,90.73
1309.00,90.79
1308.00,90.85
1307.00,90.91
1306.00,90.97
1305.00,91.04
1304.00,91.12
1303.00,91.19
1302.00,91.24
1301.00,91.29
1300.00,91.35
1299.00,91.43
1298.00,91.52
1297.00,91.61
1296.00,91.68
1295.00,91.76
1294.00,91.83
1293.00,91.91
1292.00,91.99
1291.00,92.06
1290.00,92.12
1289.00,92.19
1288.00,92.24
1287.00,92.29
1286.00,92.32
1285.00,92.33
1284.00,92.33
1283.00,92.32
1282.00,92.30
1281.00,92.28
1280.00,92.26
1279.00,92.23
1278.00,92.22
1277.00,92.20
1276.00,92.18
1275.00,92.14
1274.00,92.10
1273.00,92.05
1272.00,92.01
1271.00,91.98
1270.00,91.95
1269.00,91.92
1268.00,91.88
1267.00,91.84
1266.00,91.80
1265.00,91.76
1264.00,91.74
1263.00,91.73
1262.00,91.74
1261.00,91.76
1260.00,91.78
1259.00,91.81
1258.00,91.83
1257.00,91.86
1256.00,91.90
1255.00,91.94
1254.00,91.98
1253.00,92.01
1252.00,92.05
1251.00,92.09
1250.00,92.14
1249.00,92.18
1248.00,92.21
1247.00,92.24
1246.00,92.27
1245.00,92.30
1244.00,92.32
1243.00,92.31
1242.00,92.30
1241.00,92.28
1240.00,92.28
1239.00,92.28
1238.00,92.29
1237.00,92.30
1236.00,92.31
1235.00,92.34
1234.00,92.36
1233.00,92.37
1232.00,92.38
1231.00,92.38
1230.00,92.40
1229.00,92.44
1228.00,92.49
1227.00,92.56
1226.00,92.63
1225.00,92.71
1224.00,92.79
1223.00,92.85
1222.00,92.91
1221.00,92.99
1220.00,93.07
1219.00,93.16
1218.00,93.22
1217.00,93.28
1216.00,93.32
1215.00,93.37
1214.00,93.40
1213.00,93.42
1212.00,93.41
1211.00,93.38
1210.00,93.33
1209.00,93.25
1208.00,93.15
1207.00,93.06
1206.00,92.98
1205.00,92.91
1204.00,92.85
1203.00,92.79
1202.00,92.74
1201.00,92.70
1200.00,92.69
1199.00,92.73
1198.00,92.78
1197.00,92.85
1196.00,92.92
1195.00,93.00
1194.00,93.11
1193.00,93.23
1192.00,93.36
1191.00,93.48
1190.00,93.58
1189.00,93.67
1188.00,93.74
1187.00,93.79
1186.00,93.81
1185.00,93.82
1184.00,93.79
1183.00,93.74
1182.00,93.66
1181.00,93.57
1180.00,93.47
1179.00,93.37
1178.00,93.27
1177.00,93.15
1176.00,93.01
1175.00,92.85
1174.00,92.66
1173.00,92.45
1172.00,92.22
1171.00,91.99
1170.00,91.75
1169.00,91.50
1168.00,91.23
1167.00,90.93
1166.00,90.61
1165.00,90.31
1164.00,90.04
1163.00,89.80
1162.00,89.59
1161.00,89.40
1160.00,89.24
1159.00,89.11
1158.00,89.01
1157.00,88.93
1156.00,88.88
1155.00,88.85
1154.00,88.85
1153.00,88.89
1152.00,88.96
1151.00,89.08
1150.00,89.21
1149.00,89.33
1148.00,89.42
1147.00,89.51
1146.00,89.60
1145.00,89.70
1144.00,89.78
1143.00,89.82
1142.00,89.81
1141.00,89.77
1140.00,89.72
1139.00,89.66
1138.00,89.59
1137.00,89.51
1136.00,89.42
1135.00,89.32
1134.00,89.20
1133.00,89.04
1132.00,88.85
1131.00,88.64
1130.00,88.42
1129.00,88.20
1128.00,87.98
1127.00,87.78
1126.00,87.59
1125.00,87.40
1124.00,87.21
1123.00,87.02
1122.00,86.83
1121.00,86.62
1120.00,86.41
1119.00,86.22
1118.00,86.05
1117.00,85.90
1116.00,85.75
1115.00,85.60
1114.00,85.46
1113.00,85.32
1112.00,85.19
1111.00,85.07
1110.00,84.97
1109.00,84.88
1108.00,84.81
1107.00,84.74
1106.00,84.66
1105.00,84.55
1104.00,84.41
1103.00,84.25
1102.00,84.11
1101.00,83.97
1100.00,83.83
1099.00,83.68
1098.00,83.52
1097.00,83.36
1096.00,83.21
1095.00,83.06
1094.00,82.94
1093.00,82.84
1092.00,82.75
1091.00,82.66
1090.00,82.56
1089.00,82.44
1088.00,82.32
1087.00,82.19
1086.00,82.06
1085.00,81.93
1084.00,81.81
1083.00,81.70
1082.00,81.58
1081.00,81.44
1080.00,81.28
1079.00,81.12
1078.00,80.96
1077.00,80.79
1076.00,80.60
1075.00,80.41
1074.00,80.22
1073.00,80.03
1072.00,79.85
1071.00,79.67
1070.00,79.49
1069.00,79.32
1068.00,79.16
1067.00,79.01
1066.00,78.87
1065.00,78.71
1064.00,78.52
1063.00,78.34
1062.00,78.18
1061.00,78.03
1060.00,77.88
1059.00,77.75
1058.00,77.64
1057.00,77.54
1056.00,77.45
1055.00,77.35
1054.00,77.26
1053.00,77.18
1052.00,77.10
1051.00,77.04
1050.00,76.98
1049.00,76.89
1048.00,76.79
1047.00,76.68
1046.00,76.58
1045.00,76.48
1044.00,76.39
1043.00,76.33
1042.00,76.29
1041.00,76.25
1040.00,76.20
1039.00,76.16
1038.00,76.11
1037.00,76.05
1036.00,75.95
1035.00,75.84
1034.00,75.72
1033.00,75.59
1032.00,75.47
1031.00,75.34
1030.00,75.20
1029.00,75.07
1028.00,74.95
1027.00,74.84
1026.00,74.72
1025.00,74.58
1024.00,74.45
1023.00,74.37
1022.00,74.32
1021.00,74.27
1020.00,74.19
1019.00,74.11
1018.00,74.06
1017.00,74.05
1016.00,74.08
1015.00,74.15
1014.00,74.24
1013.00,74.35
1012.00,74.46
1011.00,74.57
1010.00,74.66
1009.00,74.74
1008.00,74.81
1007.00,74.89
1006.00,74.98
1005.00,75.06
1004.00,75.12
1003.00,75.14
1002.00,75.15
1001.00,75.13
1000.00,75.13
999.00,75.14
998.00,75.15
997.00,75.16
996.00,75.15
995.00,75.16
994.00,75.20
993.00,75.27
992.00,75.35
991.00,75.45
990.00,75.58
989.00,75.74
988.00,75.93
987.00,76.17
986.00,76.45
985.00,76.76
984.00,77.08
983.00,77.39
982.00,77.69
981.00,78.00
980.00,78.32
979.00,78.65
978.00,78.98
977.00,79.29
976.00,79.58
975.00,79.85
974.00,80.11
973.00,80.37
972.00,80.62
971.00,80.87
970.00,81.11
969.00,81.34
968.00,81.57
967.00,81.78
966.00,81.98
965.00,82.17
964.00,82.36
963.00,82.54
962.00,82.72
961.00,82.90
960.00,83.09
959.00,83.31
958.00,83.52
957.00,83.74
956.00,83.94
955.00,84.13
954.00,84.32
953.00,84.50
952.00,84.67
951.00,84.84
950.00,85.01
949.00,85.19
948.00,85.37
947.00,85.56
946.00,85.75
945.00,85.92
944.00,86.07
943.00,86.20
942.00,86.32
941.00,86.43
940.00,86.53
939.00,86.62
938.00,86.71
937.00,86.78
936.00,86.85
935.00,86.92
934.00,86.98
933.00,87.04
932.00,87.12
931.00,87.20
930.00,87.29
929.00,87.36
928.00,87.41
927.00,87.48
926.00,87.56
925.00,87.63
924.00,87.69
923.00,87.75
922.00,87.81
921.00,87.87
920.00,87.93
919.00,87.98
918.00,88.01
917.00,88.02
916.00,88.01
915.00,88.01
914.00,87.99
913.00,87.95
912.00,87.88
911.00,87.79
910.00,87.68
909.00,87.57
908.00,87.45
907.00,87.33
906.00,87.20
905.00,87.05
904.00,86.89
903.00,86.73
902.00,86.59
901.00,86.45
900.00,86.32
899.00,86.22
898.00,86.14
897.00,86.08
896.00,86.04
895.00,86.02
894.00,86.06
893.00,86.13
892.00,86.24
891.00,86.37
890.00,86.52
889.00,86.68
888.00,86.86
887.00,87.03
886.00,87.19
885.00,87.34
884.00,87.49
883.00,87.67
882.00,87.86
881.00,88.06
880.00,88.25
879.00,88.43
878.00,88.58
877.00,88.70
876.00,88.81
875.00,88.92
874.00,89.04
873.00,89.15
872.00,89.25
871.00,89.35
870.00,89.45
869.00,89.54
868.00,89.62
867.00,89.68
866.00,89.71
865.00,89.72
864.00,89.73
863.00,89.77
862.00,89.85
861.00,89.93
860.00,89.97
859.00,89.98
858.00,89.98
857.00,89.97
856.00,89.96
855.00,89.96
854.00,89.98
853.00,89.99
852.00,89.99
851.00,89.99
850.00,89.98
849.00,89.99
848.00,90.01
847.00,90.04
846.00,90.07
845.00,90.07
844.00,90.04
843.00,90.00
842.00,89.96
841.00,89.92
840.00,89.90
839.00,89.90
838.00,89.90
837.00,89.89
836.00,89.87
835.00,89.84
834.00,89.83
833.00,89.83
832.00,89.82
831.00,89.82
830.00,89.83
829.00,89.84
828.00,89.84
827.00,89.84
826.00,89.83
825.00,89.81
824.00,89.77
823.00,89.73
822.00,89.72
821.00,89.72
820.00,89.72
819.00,89.72
818.00,89.71
817.00,89.68
816.00,89.65
815.00,89.62
814.00,89.63
813.00,89.66
812.00,89.68
811.00,89.67
810.00,89.64
809.00,89.60
808.00,89.56
807.00,89.54
806.00,89.52
805.00,89.48
804.00,89.44
803.00,89.39
802.00,89.35
801.00,89.34
800.00,89.35
799.00,89.38
798.00,89.40
797.00,89.39
796.00,89.35
795.00,89.29
794.00,89.23
793.00,89.18
792.00,89.14
791.00,89.11
790.00,89.10
789.00,89.10
788.00,89.08
787.00,89.04
786.00,89.00
785.00,88.97
784.00,88.95
783.00,88.93
782.00,88.91
781.00,88.89
780.00,88.87
779.00,88.83
778.00,88.79
777.00,88.75
776.00,88.70
775.00,88.68
774.00,88.67
773.00,88.66
772.00,88.66
771.00,88.65
770.00,88.63
769.00,88.59
768.00,88.54
767.00,88.50
766.00,88.47
765.00,88.43
764.00,88.37
763.00,88.32
762.00,88.31
761.00,88.31
760.00,88.28
759.00,88.22
758.00,88.16
757.00,88.10
756.00,88.06
755.00,88.02
754.00,88.01
753.00,88.01
752.00,88.00
751.00,87.95
750.00,87.90
749.00,87.86
748.00,87.83
747.00,87.80
746.00,87.79
745.00,87.78
744.00,87.77
743.00,87.75
742.00,87.72
741.00,87.67
740.00,87.60
739.00,87.52
738.00,87.47
737.00,87.45
736.00,87.48
735.00,87.51
734.00,87.52
733.00,87.47
732.00,87.39
731.00,87.32
730.00,87.29
729.00,87.26
728.00,87.20
727.00,87.12
726.00,87.05
725.00,86.99
724.00,86.94
723.00,86.89
722.00,86.85
721.00,86.80
720.00,86.76
719.00,86.74
718.00,86.74
717.00,86.74
716.00,86.69
715.00,86.59
714.00,86.49
713.00,86.43
712.00,86.43
711.00,86.49
710.00,86.54
709.00,86.56
708.00,86.50
707.00,86.40
706.00,86.30
705.00,86.25
704.00,86.24
703.00,86.25
702.00,86.28
701.00,86.29
700.00,86.29
699.00,86.29
698.00,86.27
697.00,86.25
696.00,86.21
695.00,86.20
694.00,86.20
693.00,86.22
692.00,86.23
691.00,86.23
690.00,86.24
689.00,86.21
688.00,86.16
687.00,86.11
686.00,86.07
685.00,86.02
684.00,85.93
683.00,85.80
682.00,85.66
681.00,85.54
680.00,85.44
679.00,85.34
678.00,85.24
677.00,85.08
676.00,84.87
675.00,84.61
674.00,84.33
673.00,84.04
672.00,83.78
671.00,83.56
670.00,83.40
669.00,83.30
668.00,83.18
667.00,83.03
666.00,82.95
665.00,82.91
664.00,82.87
663.00,82.86
662.00,82.88
661.00,82.85
660.00,82.75
659.00,82.65
658.00,82.67
657.00,82.79
656.00,82.93
655.00,83.01
654.00,83.01
653.00,82.97
652.00,82.95
651.00,82.95
650.00,82.97
649.00,82.95
648.00,82.86
647.00,82.74
646.00,82.62
645.00,82.55
644.00,82.53
643.00,82.54
642.00,82.59
641.00,82.64
640.00,82.64
639.00,82.53
638.00,82.37
637.00,82.27
636.00,82.32
635.00,82.54
634.00,82.78
633.00,82.91
632.00,82.88
631.00,82.73
630.00,82.51
629.00,82.25
628.00,81.95
627.00,81.68
626.00,81.51
625.00,81.46
624.00,81.49
623.00,81.53
622.00,81.48
621.00,81.27
620.00,81.02
619.00,80.96
618.00,81.18
617.00,81.56
616.00,81.93
615.00,82.14
614.00,82.13
613.00,81.87
612.00,81.47
611.00,81.05
610.00,80.68
609.00,80.40
608.00,80.35
607.00,80.72
606.00,81.38
605.00,81.90
604.00,81.87
603.00,81.31
602.00,80.55
601.00,79.98
600.00,79.82
599.00,80.04
598.00,80.42
597.00,80.62
596.00,80.59
595.00,80.55
594.00,80.69
593.00,80.96
592.00,81.16
591.00,81.26
590.00,81.37
589.00,81.49
588.00,81.48
587.00,81.25
586.00,80.85
585.00,80.46
584.00,80.22
583.00,80.24
582.00,80.48
581.00,80.82
580.00,81.11
579.00,81.19
578.00,81.01
577.00,80.72
576.00,80.64
575.00,80.91
574.00,81.23
573.00,81.13
572.00,80.64
571.00,80.21
570.00,80.21
569.00,80.52
568.00,80.88
567.00,81.13
566.00,81.17
565.00,80.97
564.00,80.67
563.00,80.51
562.00,80.41
561.00,80.14
560.00,79.77
559.00,79.67
558.00,79.85
557.00,79.87
556.00,79.58
555.00,79.42
554.00,79.77
553.00,80.32
552.00,80.52
551.00,80.30
550.00,79.98
