Created as New Dataset,58 Eastman Fibres
cm-1,%T
4000.00,99.93
3999.00,99.95
3998.00,99.97
3997.00,99.99
3996.00,100.00
3995.00,100.02
3994.00,100.02
3993.00,100.01
3992.00,100.00
3991.00,99.98
3990.00,99.98
3989.00,99.98
3988.00,99.98
3987.00,99.96
3986.00,99.94
3985.00,99.93
3984.00,99.92
3983.00,99.91
3982.00,99.91
3981.00,99.90
3980.00,99.90
3979.00,99.90
3978.00,99.91
3977.00,99.93
3976.00,99.94
3975.00,99.94
3974.00,99.94
3973.00,99.94
3972.00,99.95
3971.00,99.97
3970.00,99.98
3969.00,99.98
3968.00,99.98
3967.00,99.97
3966.00,99.97
3965.00,99.96
3964.00,99.96
3963.00,99.96
3962.00,99.97
3961.00,99.97
3960.00,99.97
3959.00,99.97
3958.00,99.97
3957.00,99.97
3956.00,99.97
3955.00,99.98
3954.00,99.98
3953.00,99.99
3952.00,99.99
3951.00,99.99
3950.00,99.99
3949.00,100.00
3948.00,100.01
3947.00,100.02
3946.00,100.03
3945.00,100.02
3944.00,99.99
3943.00,99.96
3942.00,99.92
3941.00,99.90
3940.00,99.89
3939.00,99.90
3938.00,99.92
3937.00,99.96
3936.00,99.99
3935.00,100.01
3934.00,100.01
3933.00,99.99
3932.00,99.96
3931.00,99.94
3930.00,99.92
3929.00,99.93
3928.00,99.95
3927.00,99.97
3926.00,99.98
3925.00,99.99
3924.00,100.00
3923.00,100.02
3922.00,100.03
3921.00,100.03
3920.00,100.02
3919.00,99.99
3918.00,99.97
3917.00,99.96
3916.00,99.95
3915.00,99.94
3914.00,99.92
3913.00,99.92
3912.00,99.92
3911.00,99.93
3910.00,99.94
3909.00,99.94
3908.00,99.95
3907.00,99.95
3906.00,99.95
3905.00,99.96
3904.00,99.97
3903.00,99.98
3902.00,99.99
3901.00,100.00
3900.00,100.00
3899.00,100.00
3898.00,100.00
3897.00,100.00
3896.00,100.00
3895.00,100.02
3894.00,100.04
3893.00,100.06
3892.00,100.07
3891.00,100.07
3890.00,100.07
3889.00,100.08
3888.00,100.08
3887.00,100.07
3886.00,100.06
3885.00,100.05
3884.00,100.03
3883.00,100.02
3882.00,100.01
3881.00,100.01
3880.00,100.01
3879.00,100.01
3878.00,100.01
3877.00,100.00
3876.00,100.00
3875.00,99.99
3874.00,99.98
3873.00,99.97
3872.00,99.96
3871.00,99.97
3870.00,100.00
3869.00,100.02
3868.00,100.03
3867.00,100.03
3866.00,100.02
3865.00,100.03
3864.00,100.02
3863.00,100.00
3862.00,99.99
3861.00,99.99
3860.00,100.00
3859.00,100.02
3858.00,100.05
3857.00,100.10
3856.00,100.16
3855.00,100.22
3854.00,100.24
3853.00,100.25
3852.00,100.26
3851.00,100.25
3850.00,100.23
3849.00,100.20
3848.00,100.16
3847.00,100.13
3846.00,100.10
3845.00,100.09
3844.00,100.08
3843.00,100.08
3842.00,100.08
3841.00,100.07
3840.00,100.06
3839.00,100.06
3838.00,100.06
3837.00,100.07
3836.00,100.09
3835.00,100.09
3834.00,100.09
3833.00,100.07
3832.00,100.06
3831.00,100.06
3830.00,100.05
3829.00,100.05
3828.00,100.03
3827.00,100.01
3826.00,99.99
3825.00,99.98
3824.00,100.00
3823.00,100.04
3822.00,100.10
3821.00,100.13
3820.00,100.14
3819.00,100.13
3818.00,100.12
3817.00,100.11
3816.00,100.11
3815.00,100.09
3814.00,100.07
3813.00,100.04
3812.00,100.04
3811.00,100.04
3810.00,100.04
3809.00,100.02
3808.00,99.99
3807.00,99.97
3806.00,99.96
3805.00,99.95
3804.00,99.95
3803.00,99.96
3802.00,99.98
3801.00,100.01
3800.00,100.04
3799.00,100.04
3798.00,100.02
3797.00,100.00
3796.00,99.96
3795.00,99.93
3794.00,99.89
3793.00,99.87
3792.00,99.87
3791.00,99.87
3790.00,99.88
3789.00,99.88
3788.00,99.88
3787.00,99.88
3786.00,99.88
3785.00,99.88
3784.00,99.89
3783.00,99.90
3782.00,99.91
3781.00,99.91
3780.00,99.90
3779.00,99.89
3778.00,99.87
3777.00,99.87
3776.00,99.88
3775.00,99.89
3774.00,99.89
3773.00,99.88
3772.00,99.87
3771.00,99.84
3770.00,99.83
3769.00,99.82
3768.00,99.82
3767.00,99.83
3766.00,99.86
3765.00,99.89
3764.00,99.90
3763.00,99.88
3762.00,99.85
3761.00,99.83
3760.00,99.82
3759.00,99.83
3758.00,99.86
3757.00,99.88
3756.00,99.90
3755.00,99.92
3754.00,99.94
3753.00,99.96
3752.00,99.98
3751.00,99.99
3750.00,100.01
3749.00,100.03
3748.00,100.06
3747.00,100.09
3746.00,100.10
3745.00,100.10
3744.00,100.11
3743.00,100.09
3742.00,100.05
3741.00,100.00
3740.00,99.95
3739.00,99.91
3738.00,99.88
3737.00,99.86
3736.00,99.86
3735.00,99.88
3734.00,99.89
3733.00,99.89
3732.00,99.88
3731.00,99.87
3730.00,99.87
3729.00,99.86
3728.00,99.85
3727.00,99.84
3726.00,99.82
3725.00,99.81
3724.00,99.81
3723.00,99.83
3722.00,99.84
3721.00,99.83
3720.00,99.81
3719.00,99.79
3718.00,99.78
3717.00,99.79
3716.00,99.80
3715.00,99.80
3714.00,99.79
3713.00,99.77
3712.00,99.75
3711.00,99.73
3710.00,99.74
3709.00,99.76
3708.00,99.78
3707.00,99.79
3706.00,99.79
3705.00,99.77
3704.00,99.74
3703.00,99.72
3702.00,99.70
3701.00,99.70
3700.00,99.71
3699.00,99.70
3698.00,99.69
3697.00,99.67
3696.00,99.66
3695.00,99.66
3694.00,99.69
3693.00,99.73
3692.00,99.77
3691.00,99.78
3690.00,99.78
3689.00,99.77
3688.00,99.79
3687.00,99.80
3686.00,99.79
3685.00,99.76
3684.00,99.72
3683.00,99.68
3682.00,99.66
3681.00,99.66
3680.00,99.67
3679.00,99.70
3678.00,99.71
3677.00,99.71
3676.00,99.70
3675.00,99.69
3674.00,99.71
3673.00,99.73
3672.00,99.74
3671.00,99.75
3670.00,99.72
3669.00,99.68
3668.00,99.63
3667.00,99.60
3666.00,99.58
3665.00,99.56
3664.00,99.55
3663.00,99.53
3662.00,99.53
3661.00,99.52
3660.00,99.51
3659.00,99.49
3658.00,99.48
3657.00,99.47
3656.00,99.47
3655.00,99.47
3654.00,99.48
3653.00,99.50
3652.00,99.54
3651.00,99.57
3650.00,99.59
3649.00,99.59
3648.00,99.61
3647.00,99.62
3646.00,99.62
3645.00,99.60
3644.00,99.56
3643.00,99.52
3642.00,99.49
3641.00,99.47
3640.00,99.46
3639.00,99.45
3638.00,99.46
3637.00,99.47
3636.00,99.49
3635.00,99.51
3634.00,99.53
3633.00,99.56
3632.00,99.59
3631.00,99.61
3630.00,99.61
3629.00,99.57
3628.00,99.51
3627.00,99.45
3626.00,99.42
3625.00,99.41
3624.00,99.43
3623.00,99.46
3622.00,99.49
3621.00,99.50
3620.00,99.49
3619.00,99.49
3618.00,99.50
3617.00,99.51
3616.00,99.52
3615.00,99.50
3614.00,99.48
3613.00,99.46
3612.00,99.44
3611.00,99.43
3610.00,99.44
3609.00,99.45
3608.00,99.47
3607.00,99.47
3606.00,99.46
3605.00,99.44
3604.00,99.43
3603.00,99.42
3602.00,99.41
3601.00,99.41
3600.00,99.40
3599.00,99.38
3598.00,99.38
3597.00,99.38
3596.00,99.41
3595.00,99.44
3594.00,99.46
3593.00,99.46
3592.00,99.44
3591.00,99.41
3590.00,99.39
3589.00,99.38
3588.00,99.38
3587.00,99.39
3586.00,99.40
3585.00,99.41
3584.00,99.41
3583.00,99.41
3582.00,99.40
3581.00,99.39
3580.00,99.39
3579.00,99.39
3578.00,99.39
3577.00,99.38
3576.00,99.36
3575.00,99.33
3574.00,99.31
3573.00,99.31
3572.00,99.32
3571.00,99.32
3570.00,99.33
3569.00,99.33
3568.00,99.34
3567.00,99.34
3566.00,99.32
3565.00,99.29
3564.00,99.28
3563.00,99.27
3562.00,99.28
3561.00,99.28
3560.00,99.28
3559.00,99.27
3558.00,99.27
3557.00,99.26
3556.00,99.26
3555.00,99.26
3554.00,99.26
3553.00,99.25
3552.00,99.25
3551.00,99.25
3550.00,99.25
3549.00,99.25
3548.00,99.25
3547.00,99.22
3546.00,99.19
3545.00,99.14
3544.00,99.11
3543.00,99.11
3542.00,99.13
3541.00,99.16
3540.00,99.18
3539.00,99.19
3538.00,99.20
3537.00,99.20
3536.00,99.19
3535.00,99.19
3534.00,99.19
3533.00,99.18
3532.00,99.18
3531.00,99.17
3530.00,99.16
3529.00,99.14
3528.00,99.13
3527.00,99.12
3526.00,99.12
3525.00,99.11
3524.00,99.12
3523.00,99.12
3522.00,99.11
3521.00,99.11
3520.00,99.10
3519.00,99.10
3518.00,99.10
3517.00,99.10
3516.00,99.09
3515.00,99.08
3514.00,99.07
3513.00,99.08
3512.00,99.09
3511.00,99.10
3510.00,99.09
3509.00,99.07
3508.00,99.04
3507.00,99.02
3506.00,99.02
3505.00,99.04
3504.00,99.06
3503.00,99.07
3502.00,99.07
3501.00,99.06
3500.00,99.05
3499.00,99.05
3498.00,99.05
3497.00,99.05
3496.00,99.05
3495.00,99.04
3494.00,99.04
3493.00,99.04
3492.00,99.05
3491.00,99.07
3490.00,99.09
3489.00,99.10
3488.00,99.09
3487.00,99.08
3486.00,99.07
3485.00,99.07
3484.00,99.07
3483.00,99.08
3482.00,99.09
3481.00,99.09
3480.00,99.09
3479.00,99.07
3478.00,99.07
3477.00,99.07
3476.00,99.09
3475.00,99.10
3474.00,99.09
3473.00,99.06
3472.00,99.03
3471.00,99.01
3470.00,98.99
3469.00,98.98
3468.00,98.98
3467.00,98.98
3466.00,98.99
3465.00,99.00
3464.00,99.01
3463.00,99.01
3462.00,99.01
3461.00,99.01
3460.00,99.02
3459.00,99.01
3458.00,99.00
3457.00,98.99
3456.00,99.00
3455.00,99.02
3454.00,99.04
3453.00,99.06
3452.00,99.06
3451.00,99.05
3450.00,99.03
3449.00,99.01
3448.00,99.00
3447.00,98.99
3446.00,98.99
3445.00,98.98
3444.00,98.96
3443.00,98.93
3442.00,98.91
3441.00,98.91
3440.00,98.92
3439.00,98.93
3438.00,98.93
3437.00,98.91
3436.00,98.89
3435.00,98.87
3434.00,98.88
3433.00,98.90
3432.00,98.93
3431.00,98.96
3430.00,98.98
3429.00,98.97
3428.00,98.95
3427.00,98.94
3426.00,98.95
3425.00,98.97
3424.00,98.97
3423.00,98.95
3422.00,98.93
3421.00,98.91
3420.00,98.91
3419.00,98.92
3418.00,98.92
3417.00,98.92
3416.00,98.91
3415.00,98.91
3414.00,98.93
3413.00,98.96
3412.00,98.98
3411.00,98.97
3410.00,98.94
3409.00,98.91
3408.00,98.89
3407.00,98.89
3406.00,98.91
3405.00,98.92
3404.00,98.93
3403.00,98.92
3402.00,98.90
3401.00,98.88
3400.00,98.87
3399.00,98.87
3398.00,98.89
3397.00,98.90
3396.00,98.91
3395.00,98.92
3394.00,98.92
3393.00,98.92
3392.00,98.91
3391.00,98.90
3390.00,98.89
3389.00,98.89
3388.00,98.89
3387.00,98.91
3386.00,98.92
3385.00,98.92
3384.00,98.91
3383.00,98.89
3382.00,98.87
3381.00,98.85
3380.00,98.84
3379.00,98.83
3378.00,98.83
3377.00,98.82
3376.00,98.82
3375.00,98.82
3374.00,98.83
3373.00,98.84
3372.00,98.85
3371.00,98.85
3370.00,98.85
3369.00,98.85
3368.00,98.84
3367.00,98.84
3366.00,98.84
3365.00,98.85
3364.00,98.87
3363.00,98.88
3362.00,98.88
3361.00,98.86
3360.00,98.85
3359.00,98.84
3358.00,98.85
3357.00,98.85
3356.00,98.85
3355.00,98.84
3354.00,98.83
3353.00,98.83
3352.00,98.84
3351.00,98.85
3350.00,98.85
3349.00,98.84
3348.00,98.82
3347.00,98.80
3346.00,98.78
3345.00,98.77
3344.00,98.76
3343.00,98.75
3342.00,98.75
3341.00,98.75
3340.00,98.76
3339.00,98.77
3338.00,98.78
3337.00,98.78
3336.00,98.78
3335.00,98.77
3334.00,98.77
3333.00,98.78
3332.00,98.79
3331.00,98.79
3330.00,98.78
3329.00,98.75
3328.00,98.72
3327.00,98.69
3326.00,98.68
3325.00,98.68
3324.00,98.69
3323.00,98.70
3322.00,98.70
3321.00,98.71
3320.00,98.71
3319.00,98.71
3318.00,98.71
3317.00,98.70
3316.00,98.70
3315.00,98.70
3314.00,98.71
3313.00,98.72
3312.00,98.72
3311.00,98.70
3310.00,98.69
3309.00,98.68
3308.00,98.67
3307.00,98.66
3306.00,98.66
3305.00,98.65
3304.00,98.64
3303.00,98.63
3302.00,98.62
3301.00,98.62
3300.00,98.62
3299.00,98.62
3298.00,98.62
3297.00,98.63
3296.00,98.65
3295.00,98.67
3294.00,98.67
3293.00,98.65
3292.00,98.62
3291.00,98.60
3290.00,98.60
3289.00,98.60
3288.00,98.61
3287.00,98.62
3286.00,98.62
3285.00,98.60
3284.00,98.57
3283.00,98.55
3282.00,98.55
3281.00,98.55
3280.00,98.55
3279.00,98.56
3278.00,98.57
3277.00,98.58
3276.00,98.60
3275.00,98.61
3274.00,98.64
3273.00,98.66
3272.00,98.67
3271.00,98.69
3270.00,98.70
3269.00,98.70
3268.00,98.70
3267.00,98.70
3266.00,98.70
3265.00,98.69
3264.00,98.68
3263.00,98.67
3262.00,98.66
3261.00,98.66
3260.00,98.67
3259.00,98.69
3258.00,98.70
3257.00,98.70
3256.00,98.70
3255.00,98.70
3254.00,98.71
3253.00,98.72
3252.00,98.74
3251.00,98.75
3250.00,98.77
3249.00,98.78
3248.00,98.79
3247.00,98.80
3246.00,98.80
3245.00,98.81
3244.00,98.83
3243.00,98.84
3242.00,98.85
3241.00,98.85
3240.00,98.85
3239.00,98.85
3238.00,98.85
3237.00,98.85
3236.00,98.84
3235.00,98.84
3234.00,98.85
3233.00,98.87
3232.00,98.87
3231.00,98.86
3230.00,98.86
3229.00,98.86
3228.00,98.86
3227.00,98.86
3226.00,98.88
3225.00,98.91
3224.00,98.94
3223.00,98.96
3222.00,98.99
3221.00,99.00
3220.00,98.99
3219.00,98.98
3218.00,98.96
3217.00,98.95
3216.00,98.94
3215.00,98.93
3214.00,98.93
3213.00,98.95
3212.00,98.98
3211.00,99.01
3210.00,99.02
3209.00,99.02
3208.00,99.02
3207.00,99.01
3206.00,99.00
3205.00,98.99
3204.00,98.98
3203.00,98.99
3202.00,98.99
3201.00,98.99
3200.00,98.99
3199.00,98.99
3198.00,99.00
3197.00,99.01
3196.00,99.02
3195.00,99.03
3194.00,99.04
3193.00,99.05
3192.00,99.05
3191.00,99.06
3190.00,99.06
3189.00,99.06
3188.00,99.06
3187.00,99.05
3186.00,99.05
3185.00,99.04
3184.00,99.05
3183.00,99.06
3182.00,99.07
3181.00,99.09
3180.00,99.11
3179.00,99.11
3178.00,99.10
3177.00,99.08
3176.00,99.07
3175.00,99.07
3174.00,99.08
3173.00,99.09
3172.00,99.11
3171.00,99.12
3170.00,99.11
3169.00,99.11
3168.00,99.10
3167.00,99.10
3166.00,99.10
3165.00,99.10
3164.00,99.11
3163.00,99.14
3162.00,99.17
3161.00,99.19
3160.00,99.19
3159.00,99.17
3158.00,99.16
3157.00,99.16
3156.00,99.17
3155.00,99.18
3154.00,99.19
3153.00,99.18
3152.00,99.18
3151.00,99.17
3150.00,99.17
3149.00,99.19
3148.00,99.20
3147.00,99.21
3146.00,99.21
3145.00,99.21
3144.00,99.22
3143.00,99.24
3142.00,99.25
3141.00,99.26
3140.00,99.26
3139.00,99.26
3138.00,99.25
3137.00,99.25
3136.00,99.26
3135.00,99.27
3134.00,99.27
3133.00,99.27
3132.00,99.26
3131.00,99.26
3130.00,99.26
3129.00,99.26
3128.00,99.25
3127.00,99.24
3126.00,99.23
3125.00,99.22
3124.00,99.23
3123.00,99.24
3122.00,99.24
3121.00,99.24
3120.00,99.24
3119.00,99.24
3118.00,99.25
3117.00,99.26
3116.00,99.28
3115.00,99.30
3114.00,99.30
3113.00,99.30
3112.00,99.28
3111.00,99.26
3110.00,99.25
3109.00,99.25
3108.00,99.25
3107.00,99.26
3106.00,99.25
3105.00,99.25
3104.00,99.24
3103.00,99.22
3102.00,99.20
3101.00,99.18
3100.00,99.16
3099.00,99.14
3098.00,99.14
3097.00,99.13
3096.00,99.14
3095.00,99.14
3094.00,99.15
3093.00,99.16
3092.00,99.17
3091.00,99.17
3090.00,99.17
3089.00,99.17
3088.00,99.17
3087.00,99.16
3086.00,99.16
3085.00,99.16
3084.00,99.16
3083.00,99.17
3082.00,99.16
3081.00,99.15
3080.00,99.13
3079.00,99.12
3078.00,99.12
3077.00,99.12
3076.00,99.11
3075.00,99.11
3074.00,99.10
3073.00,99.10
3072.00,99.11
3071.00,99.12
3070.00,99.13
3069.00,99.14
3068.00,99.14
3067.00,99.14
3066.00,99.14
3065.00,99.14
3064.00,99.13
3063.00,99.13
3062.00,99.12
3061.00,99.13
3060.00,99.14
3059.00,99.16
3058.00,99.18
3057.00,99.20
3056.00,99.21
3055.00,99.21
3054.00,99.20
3053.00,99.20
3052.00,99.19
3051.00,99.18
3050.00,99.17
3049.00,99.17
3048.00,99.18
3047.00,99.18
3046.00,99.19
3045.00,99.21
3044.00,99.24
3043.00,99.26
3042.00,99.27
3041.00,99.27
3040.00,99.26
3039.00,99.27
3038.00,99.27
3037.00,99.27
3036.00,99.28
3035.00,99.28
3034.00,99.28
3033.00,99.27
3032.00,99.26
3031.00,99.25
3030.00,99.24
3029.00,99.23
3028.00,99.23
3027.00,99.23
3026.00,99.25
3025.00,99.26
3024.00,99.27
3023.00,99.28
3022.00,99.28
3021.00,99.28
3020.00,99.27
3019.00,99.26
3018.00,99.24
3017.00,99.23
3016.00,99.22
3015.00,99.21
3014.00,99.22
3013.00,99.23
3012.00,99.24
3011.00,99.24
3010.00,99.23
3009.00,99.22
3008.00,99.19
3007.00,99.16
3006.00,99.13
3005.00,99.11
3004.00,99.11
3003.00,99.11
3002.00,99.10
3001.00,99.08
3000.00,99.05
2999.00,99.02
2998.00,99.01
2997.00,99.00
2996.00,98.98
2995.00,98.96
2994.00,98.93
2993.00,98.89
2992.00,98.86
2991.00,98.83
2990.00,98.80
2989.00,98.76
2988.00,98.71
2987.00,98.66
2986.00,98.61
2985.00,98.56
2984.00,98.52
2983.00,98.47
2982.00,98.43
2981.00,98.39
2980.00,98.35
2979.00,98.31
2978.00,98.27
2977.00,98.25
2976.00,98.23
2975.00,98.22
2974.00,98.20
2973.00,98.20
2972.00,98.20
2971.00,98.21
2970.00,98.22
2969.00,98.23
2968.00,98.24
2967.00,98.26
2966.00,98.28
2965.00,98.31
2964.00,98.33
2963.00,98.37
2962.00,98.41
2961.00,98.44
2960.00,98.46
2959.00,98.47
2958.00,98.46
2957.00,98.45
2956.00,98.45
2955.00,98.44
2954.00,98.44
2953.00,98.44
2952.00,98.44
2951.00,98.43
2950.00,98.42
2949.00,98.40
2948.00,98.37
2947.00,98.34
2946.00,98.31
2945.00,98.29
2944.00,98.25
2943.00,98.22
2942.00,98.18
2941.00,98.15
2940.00,98.12
2939.00,98.08
2938.00,98.03
2937.00,97.99
2936.00,97.97
2935.00,97.95
2934.00,97.95
2933.00,97.95
2932.00,97.95
2931.00,97.95
2930.00,97.93
2929.00,97.90
2928.00,97.89
2927.00,97.89
2926.00,97.91
2925.00,97.93
2924.00,97.94
2923.00,97.95
2922.00,97.97
2921.00,98.00
2920.00,98.06
2919.00,98.12
2918.00,98.18
2917.00,98.24
2916.00,98.29
2915.00,98.33
2914.00,98.38
2913.00,98.42
2912.00,98.46
2911.00,98.50
2910.00,98.53
2909.00,98.55
2908.00,98.56
2907.00,98.58
2906.00,98.61
2905.00,98.65
2904.00,98.70
2903.00,98.73
2902.00,98.75
2901.00,98.77
2900.00,98.78
2899.00,98.79
2898.00,98.81
2897.00,98.83
2896.00,98.85
2895.00,98.88
2894.00,98.90
2893.00,98.92
2892.00,98.92
2891.00,98.92
2890.00,98.93
2889.00,98.94
2888.00,98.96
2887.00,98.96
2886.00,98.96
2885.00,98.94
2884.00,98.91
2883.00,98.89
2882.00,98.87
2881.00,98.87
2880.00,98.86
2879.00,98.84
2878.00,98.83
2877.00,98.82
2876.00,98.81
2875.00,98.82
2874.00,98.82
2873.00,98.82
2872.00,98.83
2871.00,98.84
2870.00,98.85
2869.00,98.86
2868.00,98.87
2867.00,98.87
2866.00,98.88
2865.00,98.90
2864.00,98.91
2863.00,98.91
2862.00,98.90
2861.00,98.90
2860.00,98.88
2859.00,98.87
2858.00,98.87
2857.00,98.88
2856.00,98.90
2855.00,98.91
2854.00,98.92
2853.00,98.92
2852.00,98.93
2851.00,98.94
2850.00,98.96
2849.00,98.99
2848.00,99.02
2847.00,99.04
2846.00,99.07
2845.00,99.08
2844.00,99.09
2843.00,99.11
2842.00,99.13
2841.00,99.15
2840.00,99.17
2839.00,99.19
2838.00,99.20
2837.00,99.21
2836.00,99.22
2835.00,99.24
2834.00,99.25
2833.00,99.25
2832.00,99.25
2831.00,99.25
2830.00,99.25
2829.00,99.25
2828.00,99.27
2827.00,99.30
2826.00,99.32
2825.00,99.32
2824.00,99.31
2823.00,99.30
2822.00,99.30
2821.00,99.30
2820.00,99.31
2819.00,99.33
2818.00,99.33
2817.00,99.34
2816.00,99.33
2815.00,99.31
2814.00,99.29
2813.00,99.28
2812.00,99.29
2811.00,99.31
2810.00,99.32
2809.00,99.32
2808.00,99.31
2807.00,99.29
2806.00,99.29
2805.00,99.29
2804.00,99.31
2803.00,99.32
2802.00,99.33
2801.00,99.33
2800.00,99.33
2799.00,99.34
2798.00,99.35
2797.00,99.35
2796.00,99.34
2795.00,99.34
2794.00,99.33
2793.00,99.34
2792.00,99.34
2791.00,99.34
2790.00,99.34
2789.00,99.34
2788.00,99.34
2787.00,99.34
2786.00,99.33
2785.00,99.32
2784.00,99.32
2783.00,99.32
2782.00,99.33
2781.00,99.34
2780.00,99.34
2779.00,99.35
2778.00,99.35
2777.00,99.35
2776.00,99.36
2775.00,99.37
2774.00,99.38
2773.00,99.39
2772.00,99.40
2771.00,99.41
2770.00,99.42
2769.00,99.42
2768.00,99.41
2767.00,99.39
2766.00,99.38
2765.00,99.37
2764.00,99.38
2763.00,99.40
2762.00,99.41
2761.00,99.42
2760.00,99.41
2759.00,99.39
2758.00,99.38
2757.00,99.37
2756.00,99.36
2755.00,99.36
2754.00,99.36
2753.00,99.37
2752.00,99.38
2751.00,99.40
2750.00,99.40
2749.00,99.39
2748.00,99.38
2747.00,99.37
2746.00,99.36
2745.00,99.36
2744.00,99.36
2743.00,99.36
2742.00,99.35
2741.00,99.34
2740.00,99.33
2739.00,99.33
2738.00,99.34
2737.00,99.36
2736.00,99.38
2735.00,99.40
2734.00,99.41
2733.00,99.39
2732.00,99.37
2731.00,99.36
2730.00,99.36
2729.00,99.37
2728.00,99.38
2727.00,99.38
2726.00,99.38
2725.00,99.38
2724.00,99.38
2723.00,99.38
2722.00,99.39
2721.00,99.39
2720.00,99.39
2719.00,99.39
2718.00,99.38
2717.00,99.37
2716.00,99.37
2715.00,99.36
2714.00,99.37
2713.00,99.37
2712.00,99.38
2711.00,99.39
2710.00,99.40
2709.00,99.40
2708.00,99.40
2707.00,99.40
2706.00,99.40
2705.00,99.40
2704.00,99.40
2703.00,99.39
2702.00,99.39
2701.00,99.40
2700.00,99.41
2699.00,99.43
2698.00,99.44
2697.00,99.44
2696.00,99.42
2695.00,99.40
2694.00,99.37
2693.00,99.36
2692.00,99.36
2691.00,99.38
2690.00,99.39
2689.00,99.40
2688.00,99.41
2687.00,99.42
2686.00,99.43
2685.00,99.43
2684.00,99.41
2683.00,99.39
2682.00,99.38
2681.00,99.38
2680.00,99.39
2679.00,99.40
2678.00,99.40
2677.00,99.39
2676.00,99.39
2675.00,99.38
2674.00,99.39
2673.00,99.39
2672.00,99.40
2671.00,99.40
2670.00,99.41
2669.00,99.41
2668.00,99.41
2667.00,99.40
2666.00,99.39
2665.00,99.38
2664.00,99.39
2663.00,99.39
2662.00,99.39
2661.00,99.37
2660.00,99.36
2659.00,99.34
2658.00,99.33
2657.00,99.33
2656.00,99.33
2655.00,99.32
2654.00,99.31
2653.00,99.30
2652.00,99.29
2651.00,99.28
2650.00,99.27
2649.00,99.27
2648.00,99.26
2647.00,99.26
2646.00,99.26
2645.00,99.25
2644.00,99.25
2643.00,99.26
2642.00,99.27
2641.00,99.27
2640.00,99.25
2639.00,99.23
2638.00,99.21
2637.00,99.18
2636.00,99.16
2635.00,99.15
2634.00,99.14
2633.00,99.14
2632.00,99.14
2631.00,99.14
2630.00,99.14
2629.00,99.14
2628.00,99.13
2627.00,99.12
2626.00,99.11
2625.00,99.11
2624.00,99.13
2623.00,99.14
2622.00,99.15
2621.00,99.15
2620.00,99.14
2619.00,99.13
2618.00,99.13
2617.00,99.13
2616.00,99.13
2615.00,99.12
2614.00,99.11
2613.00,99.10
2612.00,99.10
2611.00,99.09
2610.00,99.08
2609.00,99.07
2608.00,99.07
2607.00,99.06
2606.00,99.06
2605.00,99.06
2604.00,99.06
2603.00,99.05
2602.00,99.05
2601.00,99.05
2600.00,99.04
2599.00,99.04
2598.00,99.03
2597.00,99.02
2596.00,99.02
2595.00,99.03
2594.00,99.04
2593.00,99.04
2592.00,99.04
2591.00,99.01
2590.00,98.98
2589.00,98.96
2588.00,98.95
2587.00,98.96
2586.00,98.98
2585.00,99.00
2584.00,99.01
2583.00,99.00
2582.00,98.98
2581.00,98.96
2580.00,98.95
2579.00,98.95
2578.00,98.96
2577.00,98.97
2576.00,98.98
2575.00,98.97
2574.00,98.97
2573.00,98.97
2572.00,98.97
2571.00,98.97
2570.00,98.96
2569.00,98.93
2568.00,98.92
2567.00,98.91
2566.00,98.92
2565.00,98.93
2564.00,98.94
2563.00,98.94
2562.00,98.93
2561.00,98.92
2560.00,98.92
2559.00,98.91
2558.00,98.90
2557.00,98.89
2556.00,98.89
2555.00,98.91
2554.00,98.93
2553.00,98.94
2552.00,98.94
2551.00,98.94
2550.00,98.94
2549.00,98.94
2548.00,98.94
2547.00,98.93
2546.00,98.93
2545.00,98.91
2544.00,98.89
2543.00,98.87
2542.00,98.87
2541.00,98.87
2540.00,98.88
2539.00,98.89
2538.00,98.91
2537.00,98.92
2536.00,98.91
2535.00,98.89
2534.00,98.88
2533.00,98.89
2532.00,98.90
2531.00,98.91
2530.00,98.90
2529.00,98.90
2528.00,98.89
2527.00,98.89
2526.00,98.90
2525.00,98.89
2524.00,98.88
2523.00,98.86
2522.00,98.84
2521.00,98.83
2520.00,98.84
2519.00,98.86
2518.00,98.89
2517.00,98.90
2516.00,98.90
2515.00,98.88
2514.00,98.87
2513.00,98.86
2512.00,98.86
2511.00,98.89
2510.00,98.91
2509.00,98.92
2508.00,98.92
2507.00,98.91
2506.00,98.90
2505.00,98.90
2504.00,98.88
2503.00,98.87
2502.00,98.86
2501.00,98.87
2500.00,98.89
2499.00,98.90
2498.00,98.91
2497.00,98.91
2496.00,98.92
2495.00,98.93
2494.00,98.93
2493.00,98.92
2492.00,98.91
2491.00,98.89
2490.00,98.89
2489.00,98.88
2488.00,98.88
2487.00,98.87
2486.00,98.87
2485.00,98.86
2484.00,98.86
2483.00,98.87
2482.00,98.87
2481.00,98.88
2480.00,98.88
2479.00,98.90
2478.00,98.90
2477.00,98.89
2476.00,98.87
2475.00,98.86
2474.00,98.87
2473.00,98.90
2472.00,98.93
2471.00,98.94
2470.00,98.93
2469.00,98.90
2468.00,98.89
2467.00,98.90
2466.00,98.91
2465.00,98.92
2464.00,98.92
2463.00,98.91
2462.00,98.89
2461.00,98.88
2460.00,98.87
2459.00,98.86
2458.00,98.85
2457.00,98.85
2456.00,98.84
2455.00,98.85
2454.00,98.87
2453.00,98.88
2452.00,98.89
2451.00,98.88
2450.00,98.87
2449.00,98.85
2448.00,98.85
2447.00,98.87
2446.00,98.88
2445.00,98.89
2444.00,98.87
2443.00,98.85
2442.00,98.84
2441.00,98.84
2440.00,98.85
2439.00,98.87
2438.00,98.89
2437.00,98.90
2436.00,98.89
2435.00,98.88
2434.00,98.86
2433.00,98.85
2432.00,98.85
2431.00,98.84
2430.00,98.85
2429.00,98.86
2428.00,98.87
2427.00,98.89
2426.00,98.90
2425.00,98.89
2424.00,98.89
2423.00,98.90
2422.00,98.92
2421.00,98.93
2420.00,98.95
2419.00,98.96
2418.00,98.97
2417.00,98.98
2416.00,98.98
2415.00,98.97
2414.00,98.95
2413.00,98.94
2412.00,98.93
2411.00,98.93
2410.00,98.93
2409.00,98.93
2408.00,98.95
2407.00,98.96
2406.00,98.98
2405.00,98.99
2404.00,99.00
2403.00,99.01
2402.00,99.01
2401.00,99.01
2400.00,99.02
2399.00,99.04
2398.00,99.06
2397.00,99.07
2396.00,99.06
2395.00,99.07
2394.00,99.08
2393.00,99.11
2392.00,99.14
2391.00,99.15
2390.00,99.14
2389.00,99.12
2388.00,99.12
2387.00,99.12
2386.00,99.12
2385.00,99.10
2384.00,99.07
2383.00,99.05
2382.00,99.05
2381.00,99.06
2380.00,99.08
2379.00,99.11
2378.00,99.13
2377.00,99.15
2376.00,99.17
2375.00,99.17
2374.00,99.17
2373.00,99.19
2372.00,99.23
2371.00,99.27
2370.00,99.29
2369.00,99.26
2368.00,99.21
2367.00,99.18
2366.00,99.17
2365.00,99.18
2364.00,99.21
2363.00,99.25
2362.00,99.29
2361.00,99.30
2360.00,99.28
2359.00,99.23
2358.00,99.16
2357.00,99.11
2356.00,99.09
2355.00,99.11
2354.00,99.12
2353.00,99.14
2352.00,99.17
2351.00,99.22
2350.00,99.25
2349.00,99.24
2348.00,99.21
2347.00,99.23
2346.00,99.29
2345.00,99.38
2344.00,99.43
2343.00,99.41
2342.00,99.34
2341.00,99.27
2340.00,99.22
2339.00,99.18
2338.00,99.15
2337.00,99.14
2336.00,99.16
2335.00,99.19
2334.00,99.21
2333.00,99.22
2332.00,99.21
2331.00,99.21
2330.00,99.21
2329.00,99.20
2328.00,99.17
2327.00,99.10
2326.00,99.02
2325.00,98.97
2324.00,98.94
2323.00,98.93
2322.00,98.91
2321.00,98.89
2320.00,98.89
2319.00,98.91
2318.00,98.95
2317.00,98.98
2316.00,98.99
2315.00,98.98
2314.00,98.97
2313.00,98.95
2312.00,98.94
2311.00,98.92
2310.00,98.91
2309.00,98.91
2308.00,98.91
2307.00,98.92
2306.00,98.93
2305.00,98.92
2304.00,98.90
2303.00,98.87
2302.00,98.85
2301.00,98.84
2300.00,98.82
2299.00,98.81
2298.00,98.79
2297.00,98.77
2296.00,98.75
2295.00,98.74
2294.00,98.73
2293.00,98.71
2292.00,98.69
2291.00,98.66
2290.00,98.62
2289.00,98.60
2288.00,98.58
2287.00,98.59
2286.00,98.59
2285.00,98.59
2284.00,98.57
2283.00,98.55
2282.00,98.54
2281.00,98.54
2280.00,98.55
2279.00,98.55
2278.00,98.52
2277.00,98.48
2276.00,98.44
2275.00,98.41
2274.00,98.40
2273.00,98.39
2272.00,98.40
2271.00,98.40
2270.00,98.39
2269.00,98.35
2268.00,98.32
2267.00,98.29
2266.00,98.29
2265.00,98.31
2264.00,98.31
2263.00,98.29
2262.00,98.25
2261.00,98.21
2260.00,98.16
2259.00,98.11
2258.00,98.03
2257.00,97.95
2256.00,97.88
2255.00,97.82
2254.00,97.75
2253.00,97.64
2252.00,97.49
2251.00,97.31
2250.00,97.12
2249.00,96.95
2248.00,96.81
2247.00,96.71
2246.00,96.64
2245.00,96.61
2244.00,96.62
2243.00,96.66
2242.00,96.74
2241.00,96.85
2240.00,96.99
2239.00,97.12
2238.00,97.23
2237.00,97.34
2236.00,97.46
2235.00,97.60
2234.00,97.72
2233.00,97.79
2232.00,97.81
2231.00,97.82
2230.00,97.81
2229.00,97.79
2228.00,97.78
2227.00,97.80
2226.00,97.84
2225.00,97.86
2224.00,97.86
2223.00,97.82
2222.00,97.76
2221.00,97.73
2220.00,97.74
2219.00,97.78
2218.00,97.82
2217.00,97.85
2216.00,97.86
2215.00,97.86
2214.00,97.85
2213.00,97.82
2212.00,97.80
2211.00,97.79
2210.00,97.81
2209.00,97.82
2208.00,97.81
2207.00,97.78
2206.00,97.75
2205.00,97.72
2204.00,97.69
2203.00,97.67
2202.00,97.64
2201.00,97.63
2200.00,97.62
2199.00,97.62
2198.00,97.62
2197.00,97.62
2196.00,97.62
2195.00,97.61
2194.00,97.57
2193.00,97.53
2192.00,97.48
2191.00,97.46
2190.00,97.44
2189.00,97.42
2188.00,97.39
2187.00,97.37
2186.00,97.38
2185.00,97.40
2184.00,97.42
2183.00,97.43
2182.00,97.47
2181.00,97.51
2180.00,97.54
2179.00,97.54
2178.00,97.52
2177.00,97.48
2176.00,97.45
2175.00,97.43
2174.00,97.41
2173.00,97.38
2172.00,97.33
2171.00,97.26
2170.00,97.18
2169.00,97.12
2168.00,97.10
2167.00,97.08
2166.00,97.07
2165.00,97.03
2164.00,97.00
2163.00,96.97
2162.00,96.97
2161.00,96.98
2160.00,97.03
2159.00,97.11
2158.00,97.19
2157.00,97.25
2156.00,97.29
2155.00,97.31
2154.00,97.35
2153.00,97.40
2152.00,97.46
2151.00,97.52
2150.00,97.58
2149.00,97.64
2148.00,97.71
2147.00,97.77
2146.00,97.82
2145.00,97.85
2144.00,97.88
2143.00,97.88
2142.00,97.87
2141.00,97.86
2140.00,97.87
2139.00,97.90
2138.00,97.97
2137.00,98.05
2136.00,98.12
2135.00,98.16
2134.00,98.16
2133.00,98.15
2132.00,98.15
2131.00,98.18
2130.00,98.21
2129.00,98.23
2128.00,98.24
2127.00,98.24
2126.00,98.25
2125.00,98.28
2124.00,98.33
2123.00,98.37
2122.00,98.39
2121.00,98.37
2120.00,98.34
2119.00,98.32
2118.00,98.31
2117.00,98.29
2116.00,98.27
2115.00,98.27
2114.00,98.29
2113.00,98.31
2112.00,98.31
2111.00,98.30
2110.00,98.28
2109.00,98.28
2108.00,98.29
2107.00,98.29
2106.00,98.30
2105.00,98.30
2104.00,98.31
2103.00,98.31
2102.00,98.30
2101.00,98.29
2100.00,98.28
2099.00,98.26
2098.00,98.24
2097.00,98.24
2096.00,98.26
2095.00,98.27
2094.00,98.28
2093.00,98.29
2092.00,98.31
2091.00,98.33
2090.00,98.35
2089.00,98.35
2088.00,98.35
2087.00,98.34
2086.00,98.31
2085.00,98.27
2084.00,98.24
2083.00,98.23
2082.00,98.22
2081.00,98.18
2080.00,98.13
2079.00,98.10
2078.00,98.10
2077.00,98.10
2076.00,98.08
2075.00,98.05
2074.00,98.04
2073.00,98.06
2072.00,98.08
2071.00,98.09
2070.00,98.08
2069.00,98.07
2068.00,98.05
2067.00,98.04
2066.00,98.03
2065.00,98.03
2064.00,98.03
2063.00,98.04
2062.00,98.03
2061.00,98.02
2060.00,97.99
2059.00,97.95
2058.00,97.90
2057.00,97.88
2056.00,97.89
2055.00,97.91
2054.00,97.90
2053.00,97.82
2052.00,97.72
2051.00,97.65
2050.00,97.63
2049.00,97.64
2048.00,97.63
2047.00,97.57
2046.00,97.50
2045.00,97.46
2044.00,97.46
2043.00,97.50
2042.00,97.55
2041.00,97.58
2040.00,97.55
2039.00,97.49
2038.00,97.42
2037.00,97.39
2036.00,97.40
2035.00,97.43
2034.00,97.44
2033.00,97.43
2032.00,97.42
2031.00,97.41
2030.00,97.41
2029.00,97.41
2028.00,97.38
2027.00,97.32
2026.00,97.26
2025.00,97.23
2024.00,97.24
2023.00,97.26
2022.00,97.27
2021.00,97.27
2020.00,97.26
2019.00,97.26
2018.00,97.26
2017.00,97.29
2016.00,97.34
2015.00,97.37
2014.00,97.35
2013.00,97.31
2012.00,97.28
2011.00,97.25
2010.00,97.23
2009.00,97.22
2008.00,97.27
2007.00,97.39
2006.00,97.53
2005.00,97.61
2004.00,97.63
2003.00,97.60
2002.00,97.58
2001.00,97.59
2000.00,97.62
1999.00,97.65
1998.00,97.64
1997.00,97.60
1996.00,97.53
1995.00,97.48
1994.00,97.47
1993.00,97.51
1992.00,97.59
1991.00,97.66
1990.00,97.70
1989.00,97.72
1988.00,97.71
1987.00,97.69
1986.00,97.64
1985.00,97.57
1984.00,97.50
1983.00,97.42
1982.00,97.35
1981.00,97.30
1980.00,97.27
1979.00,97.27
1978.00,97.31
1977.00,97.35
1976.00,97.40
1975.00,97.43
1974.00,97.43
1973.00,97.42
1972.00,97.43
1971.00,97.49
1970.00,97.58
1969.00,97.66
1968.00,97.71
1967.00,97.71
1966.00,97.68
1965.00,97.67
1964.00,97.69
1963.00,97.74
1962.00,97.83
1961.00,97.94
1960.00,98.04
1959.00,98.12
1958.00,98.13
1957.00,98.08
1956.00,98.01
1955.00,97.97
1954.00,97.97
1953.00,98.00
1952.00,98.03
1951.00,98.04
1950.00,98.04
1949.00,98.04
1948.00,98.07
1947.00,98.13
1946.00,98.20
1945.00,98.26
1944.00,98.28
1943.00,98.28
1942.00,98.26
1941.00,98.23
1940.00,98.21
1939.00,98.21
1938.00,98.25
1937.00,98.31
1936.00,98.36
1935.00,98.38
1934.00,98.37
1933.00,98.36
1932.00,98.35
1931.00,98.36
1930.00,98.38
1929.00,98.40
1928.00,98.41
1927.00,98.44
1926.00,98.47
1925.00,98.50
1924.00,98.54
1923.00,98.56
1922.00,98.57
1921.00,98.59
1920.00,98.60
1919.00,98.61
1918.00,98.61
1917.00,98.59
1916.00,98.56
1915.00,98.54
1914.00,98.53
1913.00,98.54
1912.00,98.55
1911.00,98.57
1910.00,98.60
1909.00,98.61
1908.00,98.62
1907.00,98.62
1906.00,98.62
1905.00,98.62
1904.00,98.63
1903.00,98.64
1902.00,98.63
1901.00,98.62
1900.00,98.61
1899.00,98.62
1898.00,98.64
1897.00,98.65
1896.00,98.66
1895.00,98.66
1894.00,98.67
1893.00,98.68
1892.00,98.69
1891.00,98.70
1890.00,98.71
1889.00,98.71
1888.00,98.72
1887.00,98.72
1886.00,98.73
1885.00,98.74
1884.00,98.74
1883.00,98.73
1882.00,98.71
1881.00,98.69
1880.00,98.69
1879.00,98.70
1878.00,98.71
1877.00,98.71
1876.00,98.70
1875.00,98.70
1874.00,98.71
1873.00,98.73
1872.00,98.74
1871.00,98.74
1870.00,98.75
1869.00,98.77
1868.00,98.77
1867.00,98.77
1866.00,98.77
1865.00,98.78
1864.00,98.81
1863.00,98.84
1862.00,98.85
1861.00,98.85
1860.00,98.85
1859.00,98.86
1858.00,98.86
1857.00,98.87
1856.00,98.87
1855.00,98.88
1854.00,98.89
1853.00,98.88
1852.00,98.87
1851.00,98.86
1850.00,98.87
1849.00,98.88
1848.00,98.90
1847.00,98.91
1846.00,98.91
1845.00,98.90
1844.00,98.91
1843.00,98.91
1842.00,98.92
1841.00,98.91
1840.00,98.90
1839.00,98.90
1838.00,98.91
1837.00,98.93
1836.00,98.94
1835.00,98.94
1834.00,98.93
1833.00,98.92
1832.00,98.91
1831.00,98.91
1830.00,98.91
1829.00,98.93
1828.00,98.95
1827.00,98.95
1826.00,98.94
1825.00,98.93
1824.00,98.93
1823.00,98.94
1822.00,98.95
1821.00,98.94
1820.00,98.94
1819.00,98.96
1818.00,98.98
1817.00,99.01
1816.00,99.02
1815.00,99.02
1814.00,99.00
1813.00,98.99
1812.00,98.99
1811.00,98.99
1810.00,99.01
1809.00,99.01
1808.00,99.01
1807.00,99.01
1806.00,99.01
1805.00,99.02
1804.00,99.02
1803.00,99.02
1802.00,99.01
1801.00,99.01
1800.00,99.01
1799.00,99.01
1798.00,99.00
1797.00,99.00
1796.00,99.00
1795.00,99.02
1794.00,99.04
1793.00,99.05
1792.00,99.05
1791.00,99.04
1790.00,99.04
1789.00,99.03
1788.00,99.02
1787.00,99.01
1786.00,99.01
1785.00,99.01
1784.00,99.02
1783.00,99.03
1782.00,99.04
1781.00,99.05
1780.00,99.04
1779.00,99.04
1778.00,99.03
1777.00,99.03
1776.00,99.04
1775.00,99.05
1774.00,99.05
1773.00,99.03
1772.00,99.01
1771.00,99.00
1770.00,99.00
1769.00,99.00
1768.00,99.01
1767.00,99.02
1766.00,99.02
1765.00,99.01
1764.00,99.00
1763.00,99.00
1762.00,99.00
1761.00,99.00
1760.00,99.00
1759.00,98.98
1758.00,98.95
1757.00,98.93
1756.00,98.93
1755.00,98.94
1754.00,98.95
1753.00,98.98
1752.00,98.99
1751.00,98.99
1750.00,98.97
1749.00,98.94
1748.00,98.92
1747.00,98.93
1746.00,98.94
1745.00,98.96
1744.00,98.96
1743.00,98.94
1742.00,98.91
1741.00,98.88
1740.00,98.87
1739.00,98.87
1738.00,98.89
1737.00,98.89
1736.00,98.89
1735.00,98.89
1734.00,98.89
1733.00,98.89
1732.00,98.89
1731.00,98.89
1730.00,98.89
1729.00,98.88
1728.00,98.85
1727.00,98.82
1726.00,98.80
1725.00,98.78
1724.00,98.76
1723.00,98.76
1722.00,98.76
1721.00,98.78
1720.00,98.78
1719.00,98.78
1718.00,98.76
1717.00,98.75
1716.00,98.74
1715.00,98.74
1714.00,98.74
1713.00,98.73
1712.00,98.72
1711.00,98.72
1710.00,98.72
1709.00,98.73
1708.00,98.74
1707.00,98.75
1706.00,98.75
1705.00,98.76
1704.00,98.76
1703.00,98.75
1702.00,98.73
1701.00,98.70
1700.00,98.70
1699.00,98.72
1698.00,98.72
1697.00,98.72
1696.00,98.72
1695.00,98.72
1694.00,98.72
1693.00,98.71
1692.00,98.71
1691.00,98.71
1690.00,98.71
1689.00,98.69
1688.00,98.67
1687.00,98.64
1686.00,98.60
1685.00,98.52
1684.00,98.45
1683.00,98.40
1682.00,98.36
1681.00,98.32
1680.00,98.28
1679.00,98.25
1678.00,98.20
1677.00,98.13
1676.00,98.03
1675.00,97.92
1674.00,97.82
1673.00,97.73
1672.00,97.63
1671.00,97.51
1670.00,97.38
1669.00,97.25
1668.00,97.12
1667.00,97.01
1666.00,96.92
1665.00,96.83
1664.00,96.73
1663.00,96.60
1662.00,96.47
1661.00,96.35
1660.00,96.24
1659.00,96.12
1658.00,96.01
1657.00,95.90
1656.00,95.80
1655.00,95.69
1654.00,95.56
1653.00,95.44
1652.00,95.37
1651.00,95.33
1650.00,95.31
1649.00,95.31
1648.00,95.30
1647.00,95.27
1646.00,95.25
1645.00,95.24
1644.00,95.24
1643.00,95.25
1642.00,95.27
1641.00,95.29
1640.00,95.30
1639.00,95.32
1638.00,95.35
1637.00,95.38
1636.00,95.40
1635.00,95.42
1634.00,95.46
1633.00,95.49
1632.00,95.52
1631.00,95.55
1630.00,95.59
1629.00,95.63
1628.00,95.68
1627.00,95.73
1626.00,95.79
1625.00,95.85
1624.00,95.92
1623.00,96.00
1622.00,96.06
1621.00,96.11
1620.00,96.17
1619.00,96.23
1618.00,96.31
1617.00,96.40
1616.00,96.51
1615.00,96.60
1614.00,96.67
1613.00,96.75
1612.00,96.84
1611.00,96.93
1610.00,97.03
1609.00,97.12
1608.00,97.20
1607.00,97.27
1606.00,97.33
1605.00,97.40
1604.00,97.47
1603.00,97.53
1602.00,97.57
1601.00,97.62
1600.00,97.68
1599.00,97.74
1598.00,97.79
1597.00,97.82
1596.00,97.86
1595.00,97.89
1594.00,97.91
1593.00,97.93
1592.00,97.95
1591.00,97.97
1590.00,97.98
1589.00,97.99
1588.00,98.00
1587.00,98.00
1586.00,98.01
1585.00,98.01
1584.00,98.02
1583.00,98.02
1582.00,97.99
1581.00,97.95
1580.00,97.92
1579.00,97.89
1578.00,97.86
1577.00,97.81
1576.00,97.74
1575.00,97.67
1574.00,97.61
1573.00,97.58
1572.00,97.55
1571.00,97.51
1570.00,97.44
1569.00,97.35
1568.00,97.27
1567.00,97.20
1566.00,97.13
1565.00,97.06
1564.00,96.98
1563.00,96.92
1562.00,96.88
1561.00,96.84
1560.00,96.78
1559.00,96.67
1558.00,96.56
1557.00,96.48
1556.00,96.41
1555.00,96.35
1554.00,96.29
1553.00,96.24
1552.00,96.20
1551.00,96.17
1550.00,96.15
1549.00,96.13
1548.00,96.10
1547.00,96.07
1546.00,96.05
1545.00,96.05
1544.00,96.05
1543.00,96.06
1542.00,96.07
1541.00,96.08
1540.00,96.08
1539.00,96.11
1538.00,96.13
1537.00,96.14
1536.00,96.17
1535.00,96.20
1534.00,96.24
1533.00,96.30
1532.00,96.35
1531.00,96.39
1530.00,96.44
1529.00,96.48
1528.00,96.53
1527.00,96.59
1526.00,96.64
1525.00,96.69
1524.00,96.73
1523.00,96.78
1522.00,96.83
1521.00,96.87
1520.00,96.89
1519.00,96.91
1518.00,96.94
1517.00,97.00
1516.00,97.07
1515.00,97.14
1514.00,97.19
1513.00,97.24
1512.00,97.29
1511.00,97.33
1510.00,97.38
1509.00,97.42
1508.00,97.48
1507.00,97.56
1506.00,97.65
1505.00,97.69
1504.00,97.71
1503.00,97.75
1502.00,97.81
1501.00,97.86
1500.00,97.90
1499.00,97.91
1498.00,97.92
1497.00,97.95
1496.00,97.99
1495.00,98.04
1494.00,98.07
1493.00,98.10
1492.00,98.14
1491.00,98.18
1490.00,98.21
1489.00,98.21
1488.00,98.19
1487.00,98.17
1486.00,98.16
1485.00,98.16
1484.00,98.16
1483.00,98.17
1482.00,98.17
1481.00,98.17
1480.00,98.15
1479.00,98.13
1478.00,98.10
1477.00,98.04
1476.00,97.97
1475.00,97.90
1474.00,97.83
1473.00,97.74
1472.00,97.65
1471.00,97.57
1470.00,97.50
1469.00,97.44
1468.00,97.38
1467.00,97.33
1466.00,97.27
1465.00,97.18
1464.00,97.08
1463.00,96.98
1462.00,96.89
1461.00,96.82
1460.00,96.76
1459.00,96.68
1458.00,96.56
1457.00,96.39
1456.00,96.22
1455.00,96.09
1454.00,96.00
1453.00,95.93
1452.00,95.88
1451.00,95.85
1450.00,95.81
1449.00,95.77
1448.00,95.74
1447.00,95.72
1446.00,95.70
1445.00,95.69
1444.00,95.67
1443.00,95.65
1442.00,95.63
1441.00,95.62
1440.00,95.62
1439.00,95.63
1438.00,95.65
1437.00,95.67
1436.00,95.70
1435.00,95.75
1434.00,95.81
1433.00,95.88
1432.00,95.96
1431.00,96.04
1430.00,96.15
1429.00,96.26
1428.00,96.36
1427.00,96.46
1426.00,96.55
1425.00,96.65
1424.00,96.76
1423.00,96.86
1422.00,96.95
1421.00,97.03
1420.00,97.11
1419.00,97.20
1418.00,97.28
1417.00,97.34
1416.00,97.39
1415.00,97.43
1414.00,97.48
1413.00,97.53
1412.00,97.58
1411.00,97.62
1410.00,97.65
1409.00,97.66
1408.00,97.67
1407.00,97.69
1406.00,97.72
1405.00,97.75
1404.00,97.78
1403.00,97.80
1402.00,97.80
1401.00,97.80
1400.00,97.80
1399.00,97.79
1398.00,97.76
1397.00,97.73
1396.00,97.70
1395.00,97.66
1394.00,97.60
1393.00,97.52
1392.00,97.42
1391.00,97.32
1390.00,97.23
1389.00,97.18
1388.00,97.16
1387.00,97.17
1386.00,97.19
1385.00,97.21
1384.00,97.23
1383.00,97.24
1382.00,97.26
1381.00,97.29
1380.00,97.32
1379.00,97.34
1378.00,97.35
1377.00,97.34
1376.00,97.32
1375.00,97.28
1374.00,97.21
1373.00,97.13
1372.00,97.03
1371.00,96.92
1370.00,96.80
1369.00,96.71
1368.00,96.66
1367.00,96.63
1366.00,96.64
1365.00,96.67
1364.00,96.72
1363.00,96.79
1362.00,96.86
1361.00,96.93
1360.00,96.98
1359.00,97.01
1358.00,97.02
1357.00,97.03
1356.00,97.04
1355.00,97.05
1354.00,97.08
1353.00,97.10
1352.00,97.12
1351.00,97.14
1350.00,97.16
1349.00,97.19
1348.00,97.20
1347.00,97.22
1346.00,97.23
1345.00,97.24
1344.00,97.26
1343.00,97.27
1342.00,97.30
1341.00,97.32
1340.00,97.35
1339.00,97.37
1338.00,97.38
1337.00,97.39
1336.00,97.40
1335.00,97.41
1334.00,97.42
1333.00,97.44
1332.00,97.45
1331.00,97.46
1330.00,97.47
1329.00,97.47
1328.00,97.47
1327.00,97.47
1326.00,97.47
1325.00,97.48
1324.00,97.48
1323.00,97.48
1322.00,97.49
1321.00,97.50
1320.00,97.52
1319.00,97.53
1318.00,97.54
1317.00,97.55
1316.00,97.56
1315.00,97.57
1314.00,97.58
1313.00,97.59
1312.00,97.59
1311.00,97.59
1310.00,97.59
1309.00,97.58
1308.00,97.57
1307.00,97.56
1306.00,97.55
1305.00,97.55
1304.00,97.55
1303.00,97.55
1302.00,97.54
1301.00,97.52
1300.00,97.51
1299.00,97.50
1298.00,97.48
1297.00,97.44
1296.00,97.41
1295.00,97.38
1294.00,97.35
1293.00,97.33
1292.00,97.31
1291.00,97.28
1290.00,97.27
1289.00,97.26
1288.00,97.25
1287.00,97.24
1286.00,97.22
1285.00,97.20
1284.00,97.18
1283.00,97.15
1282.00,97.13
1281.00,97.11
1280.00,97.09
1279.00,97.07
1278.00,97.05
1277.00,97.02
1276.00,96.99
1275.00,96.97
1274.00,96.94
1273.00,96.91
1272.00,96.88
1271.00,96.85
1270.00,96.83
1269.00,96.82
1268.00,96.81
1267.00,96.81
1266.00,96.80
1265.00,96.78
1264.00,96.76
1263.00,96.74
1262.00,96.72
1261.00,96.69
1260.00,96.66
1259.00,96.63
1258.00,96.60
1257.00,96.59
1256.00,96.59
1255.00,96.58
1254.00,96.57
1253.00,96.55
1252.00,96.53
1251.00,96.51
1250.00,96.49
1249.00,96.47
1248.00,96.46
1247.00,96.45
1246.00,96.44
1245.00,96.42
1244.00,96.40
1243.00,96.38
1242.00,96.36
1241.00,96.36
1240.00,96.36
1239.00,96.36
1238.00,96.35
1237.00,96.34
1236.00,96.33
1235.00,96.35
1234.00,96.38
1233.00,96.41
1232.00,96.41
1231.00,96.40
1230.00,96.39
1229.00,96.38
1228.00,96.38
1227.00,96.37
1226.00,96.36
1225.00,96.34
1224.00,96.32
1223.00,96.32
1222.00,96.34
1221.00,96.35
1220.00,96.37
1219.00,96.37
1218.00,96.38
1217.00,96.39
1216.00,96.41
1215.00,96.43
1214.00,96.44
1213.00,96.45
1212.00,96.45
1211.00,96.46
1210.00,96.47
1209.00,96.50
1208.00,96.53
1207.00,96.55
1206.00,96.56
1205.00,96.56
1204.00,96.56
1203.00,96.57
1202.00,96.59
1201.00,96.61
1200.00,96.63
1199.00,96.65
1198.00,96.69
1197.00,96.72
1196.00,96.74
1195.00,96.75
1194.00,96.74
1193.00,96.73
1192.00,96.75
1191.00,96.77
1190.00,96.80
1189.00,96.82
1188.00,96.81
1187.00,96.78
1186.00,96.77
1185.00,96.76
1184.00,96.76
1183.00,96.75
1182.00,96.74
1181.00,96.71
1180.00,96.68
1179.00,96.65
1178.00,96.64
1177.00,96.61
1176.00,96.57
1175.00,96.52
1174.00,96.49
1173.00,96.48
1172.00,96.49
1171.00,96.53
1170.00,96.59
1169.00,96.65
1168.00,96.72
1167.00,96.78
1166.00,96.82
1165.00,96.85
1164.00,96.86
1163.00,96.87
1162.00,96.88
1161.00,96.90
1160.00,96.92
1159.00,96.92
1158.00,96.90
1157.00,96.89
1156.00,96.89
1155.00,96.89
1154.00,96.89
1153.00,96.90
1152.00,96.92
1151.00,96.95
1150.00,96.99
1149.00,97.02
1148.00,97.04
1147.00,97.05
1146.00,97.07
1145.00,97.08
1144.00,97.09
1143.00,97.09
1142.00,97.10
1141.00,97.08
1140.00,97.05
1139.00,97.00
1138.00,96.93
1137.00,96.86
1136.00,96.79
1135.00,96.74
1134.00,96.68
1133.00,96.63
1132.00,96.59
1131.00,96.57
1130.00,96.59
1129.00,96.63
1128.00,96.67
1127.00,96.70
1126.00,96.73
1125.00,96.74
1124.00,96.77
1123.00,96.80
1122.00,96.84
1121.00,96.88
1120.00,96.90
1119.00,96.90
1118.00,96.88
1117.00,96.85
1116.00,96.81
1115.00,96.78
1114.00,96.75
1113.00,96.72
1112.00,96.66
1111.00,96.58
1110.00,96.48
1109.00,96.38
1108.00,96.32
1107.00,96.27
1106.00,96.21
1105.00,96.15
1104.00,96.07
1103.00,95.99
1102.00,95.92
1101.00,95.84
1100.00,95.76
1099.00,95.68
1098.00,95.59
1097.00,95.52
1096.00,95.45
1095.00,95.40
1094.00,95.34
1093.00,95.26
1092.00,95.15
1091.00,95.04
1090.00,94.95
1089.00,94.88
1088.00,94.82
1087.00,94.75
1086.00,94.66
1085.00,94.56
1084.00,94.48
1083.00,94.41
1082.00,94.36
1081.00,94.32
1080.00,94.27
1079.00,94.22
1078.00,94.17
1077.00,94.10
1076.00,94.03
1075.00,93.98
1074.00,93.96
1073.00,93.97
1072.00,93.96
1071.00,93.93
1070.00,93.90
1069.00,93.88
1068.00,93.89
1067.00,93.91
1066.00,93.94
1065.00,93.96
1064.00,93.96
1063.00,93.96
1062.00,93.96
1061.00,93.98
1060.00,93.99
1059.00,94.02
1058.00,94.04
1057.00,94.07
1056.00,94.12
1055.00,94.18
1054.00,94.23
1053.00,94.28
1052.00,94.31
1051.00,94.34
1050.00,94.37
1049.00,94.40
1048.00,94.44
1047.00,94.49
1046.00,94.53
1045.00,94.56
1044.00,94.58
1043.00,94.61
1042.00,94.65
1041.00,94.70
1040.00,94.74
1039.00,94.79
1038.00,94.86
1037.00,94.95
1036.00,95.04
1035.00,95.11
1034.00,95.17
1033.00,95.21
1032.00,95.24
1031.00,95.27
1030.00,95.30
1029.00,95.34
1028.00,95.37
1027.00,95.41
1026.00,95.45
1025.00,95.49
1024.00,95.53
1023.00,95.57
1022.00,95.61
1021.00,95.65
1020.00,95.68
1019.00,95.70
1018.00,95.70
1017.00,95.70
1016.00,95.72
1015.00,95.75
1014.00,95.80
1013.00,95.82
1012.00,95.83
1011.00,95.84
1010.00,95.85
1009.00,95.88
1008.00,95.91
1007.00,95.93
1006.00,95.96
1005.00,95.99
1004.00,96.00
1003.00,96.01
1002.00,96.01
1001.00,96.00
1000.00,95.98
999.00,95.98
998.00,95.97
997.00,95.97
996.00,95.97
995.00,95.98
994.00,95.98
993.00,95.98
992.00,95.97
991.00,95.97
990.00,95.99
989.00,96.01
988.00,96.03
987.00,96.04
986.00,96.04
985.00,96.04
984.00,96.05
983.00,96.04
982.00,96.03
981.00,96.03
980.00,96.03
979.00,96.04
978.00,96.05
977.00,96.07
976.00,96.09
975.00,96.10
974.00,96.11
973.00,96.11
972.00,96.13
971.00,96.15
970.00,96.16
969.00,96.14
968.00,96.13
967.00,96.12
966.00,96.13
965.00,96.15
964.00,96.18
963.00,96.18
962.00,96.18
961.00,96.19
960.00,96.22
959.00,96.26
958.00,96.28
957.00,96.29
956.00,96.28
955.00,96.26
954.00,96.23
953.00,96.20
952.00,96.18
951.00,96.19
950.00,96.22
949.00,96.25
948.00,96.28
947.00,96.31
946.00,96.32
945.00,96.31
944.00,96.29
943.00,96.26
942.00,96.23
941.00,96.21
940.00,96.20
939.00,96.21
938.00,96.22
937.00,96.20
936.00,96.17
935.00,96.14
934.00,96.12
933.00,96.12
932.00,96.11
931.00,96.11
930.00,96.11
929.00,96.11
928.00,96.09
927.00,96.06
926.00,96.04
925.00,96.04
924.00,96.04
923.00,96.04
922.00,96.03
921.00,96.03
920.00,96.06
919.00,96.11
918.00,96.17
917.00,96.19
916.00,96.19
915.00,96.17
914.00,96.15
913.00,96.15
912.00,96.16
911.00,96.19
910.00,96.22
909.00,96.25
908.00,96.26
907.00,96.28
906.00,96.29
905.00,96.30
904.00,96.30
903.00,96.30
902.00,96.30
901.00,96.32
900.00,96.35
899.00,96.39
898.00,96.41
897.00,96.42
896.00,96.42
895.00,96.42
894.00,96.42
893.00,96.43
892.00,96.43
891.00,96.44
890.00,96.44
889.00,96.44
888.00,96.41
887.00,96.38
886.00,96.35
885.00,96.35
884.00,96.35
883.00,96.36
882.00,96.36
881.00,96.36
880.00,96.37
879.00,96.40
878.00,96.44
877.00,96.47
876.00,96.49
875.00,96.49
874.00,96.49
873.00,96.47
872.00,96.45
871.00,96.47
870.00,96.52
869.00,96.59
868.00,96.66
867.00,96.69
866.00,96.70
865.00,96.69
864.00,96.69
863.00,96.70
862.00,96.73
861.00,96.78
860.00,96.82
859.00,96.85
858.00,96.84
857.00,96.81
856.00,96.77
855.00,96.74
854.00,96.73
853.00,96.74
852.00,96.76
851.00,96.78
850.00,96.78
849.00,96.77
848.00,96.76
847.00,96.74
846.00,96.72
845.00,96.70
844.00,96.66
843.00,96.64
842.00,96.62
841.00,96.62
840.00,96.61
839.00,96.60
838.00,96.58
837.00,96.57
836.00,96.58
835.00,96.60
834.00,96.61
833.00,96.59
832.00,96.56
831.00,96.56
830.00,96.58
829.00,96.60
828.00,96.59
827.00,96.56
826.00,96.54
825.00,96.55
824.00,96.60
823.00,96.67
822.00,96.71
821.00,96.70
820.00,96.66
819.00,96.63
818.00,96.64
817.00,96.67
816.00,96.67
815.00,96.65
814.00,96.61
813.00,96.59
812.00,96.57
811.00,96.56
810.00,96.56
809.00,96.58
808.00,96.58
807.00,96.57
806.00,96.55
805.00,96.53
804.00,96.52
803.00,96.50
802.00,96.51
801.00,96.53
800.00,96.56
799.00,96.56
798.00,96.56
797.00,96.56
796.00,96.56
795.00,96.55
794.00,96.52
793.00,96.48
792.00,96.44
791.00,96.43
790.00,96.44
789.00,96.48
788.00,96.52
787.00,96.51
786.00,96.49
785.00,96.47
784.00,96.46
783.00,96.47
782.00,96.47
781.00,96.47
780.00,96.48
779.00,96.49
778.00,96.48
777.00,96.43
776.00,96.36
775.00,96.29
774.00,96.25
773.00,96.24
772.00,96.24
771.00,96.23
770.00,96.23
769.00,96.22
768.00,96.20
767.00,96.16
766.00,96.14
765.00,96.13
764.00,96.15
763.00,96.18
762.00,96.20
761.00,96.22
760.00,96.23
759.00,96.20
758.00,96.13
757.00,96.05
756.00,95.97
755.00,95.92
754.00,95.92
753.00,95.93
752.00,95.94
751.00,95.93
750.00,95.89
749.00,95.84
748.00,95.79
747.00,95.74
746.00,95.71
745.00,95.69
744.00,95.69
743.00,95.68
742.00,95.67
741.00,95.65
740.00,95.63
739.00,95.60
738.00,95.56
737.00,95.53
736.00,95.50
735.00,95.47
734.00,95.41
733.00,95.33
732.00,95.23
731.00,95.15
730.00,95.09
729.00,95.06
728.00,95.02
727.00,94.97
726.00,94.91
725.00,94.85
724.00,94.80
723.00,94.75
722.00,94.70
721.00,94.65
720.00,94.59
719.00,94.54
718.00,94.48
717.00,94.41
716.00,94.36
715.00,94.33
714.00,94.31
713.00,94.29
712.00,94.24
711.00,94.17
710.00,94.13
709.00,94.12
708.00,94.14
707.00,94.16
706.00,94.17
705.00,94.19
704.00,94.21
703.00,94.23
702.00,94.23
701.00,94.20
700.00,94.14
699.00,94.08
698.00,94.06
697.00,94.08
696.00,94.13
695.00,94.19
694.00,94.25
693.00,94.29
692.00,94.30
691.00,94.29
690.00,94.27
689.00,94.23
688.00,94.17
687.00,94.11
686.00,94.07
685.00,94.04
684.00,93.99
683.00,93.92
682.00,93.84
681.00,93.74
680.00,93.64
679.00,93.54
678.00,93.46
677.00,93.38
676.00,93.30
675.00,93.18
674.00,93.02
673.00,92.86
672.00,92.71
671.00,92.62
670.00,92.60
669.00,92.58
668.00,92.46
667.00,92.23
666.00,92.05
665.00,91.99
664.00,91.99
663.00,92.00
662.00,91.97
661.00,91.90
660.00,91.81
659.00,91.71
658.00,91.61
657.00,91.49
656.00,91.36
655.00,91.21
654.00,91.08
653.00,90.98
652.00,90.90
651.00,90.84
650.00,90.82
649.00,90.82
648.00,90.82
647.00,90.82
646.00,90.80
645.00,90.76
644.00,90.68
643.00,90.59
642.00,90.56
641.00,90.61
640.00,90.67
639.00,90.69
638.00,90.65
637.00,90.58
636.00,90.53
635.00,90.51
634.00,90.50
633.00,90.47
632.00,90.42
631.00,90.39
630.00,90.37
629.00,90.36
628.00,90.34
627.00,90.39
626.00,90.59
625.00,90.93
624.00,91.30
623.00,91.54
622.00,91.62
621.00,91.58
620.00,91.45
619.00,91.26
618.00,91.09
617.00,91.03
616.00,91.06
615.00,91.01
614.00,90.78
613.00,90.56
612.00,90.58
611.00,90.89
610.00,91.22
609.00,91.32
608.00,91.17
607.00,90.96
606.00,90.90
605.00,91.07
604.00,91.44
603.00,91.82
602.00,91.97
601.00,91.80
600.00,91.47
599.00,91.24
598.00,91.20
597.00,91.19
596.00,91.13
595.00,91.14
594.00,91.40
593.00,91.89
592.00,92.33
591.00,92.46
590.00,92.18
589.00,91.69
588.00,91.22
587.00,90.90
586.00,90.71
585.00,90.52
584.00,90.23
583.00,89.90
582.00,89.64
581.00,89.54
580.00,89.63
579.00,89.92
578.00,90.23
577.00,90.31
576.00,90.10
575.00,89.76
574.00,89.58
573.00,89.70
572.00,90.06
571.00,90.45
570.00,90.55
569.00,90.26
568.00,89.92
567.00,89.98
566.00,90.50
565.00,91.11
564.00,91.49
563.00,91.61
562.00,91.57
561.00,91.40
560.00,91.20
559.00,91.13
558.00,91.28
557.00,91.48
556.00,91.51
555.00,91.32
554.00,90.98
553.00,90.57
552.00,90.13
551.00,89.92
550.00,90.00
