Created as New Dataset,58 Modacrylic Eastman Fibers Verel Type CA USA White. Peanut X.S. Bright. 16dpf. Use: Floor Coverings
cm-1,%T
4000.00,102.41
3999.00,102.43
3998.00,102.44
3997.00,102.43
3996.00,102.41
3995.00,102.39
3994.00,102.38
3993.00,102.37
3992.00,102.36
3991.00,102.36
3990.00,102.38
3989.00,102.40
3988.00,102.42
3987.00,102.42
3986.00,102.40
3985.00,102.38
3984.00,102.36
3983.00,102.36
3982.00,102.37
3981.00,102.38
3980.00,102.37
3979.00,102.36
3978.00,102.35
3977.00,102.35
3976.00,102.36
3975.00,102.36
3974.00,102.36
3973.00,102.35
3972.00,102.35
3971.00,102.35
3970.00,102.36
3969.00,102.37
3968.00,102.36
3967.00,102.35
3966.00,102.34
3965.00,102.34
3964.00,102.34
3963.00,102.36
3962.00,102.37
3961.00,102.38
3960.00,102.38
3959.00,102.38
3958.00,102.37
3957.00,102.37
3956.00,102.36
3955.00,102.36
3954.00,102.37
3953.00,102.39
3952.00,102.40
3951.00,102.41
3950.00,102.39
3949.00,102.37
3948.00,102.35
3947.00,102.34
3946.00,102.33
3945.00,102.34
3944.00,102.36
3943.00,102.38
3942.00,102.40
3941.00,102.39
3940.00,102.36
3939.00,102.34
3938.00,102.34
3937.00,102.35
3936.00,102.36
3935.00,102.37
3934.00,102.37
3933.00,102.39
3932.00,102.39
3931.00,102.39
3930.00,102.36
3929.00,102.33
3928.00,102.31
3927.00,102.29
3926.00,102.29
3925.00,102.31
3924.00,102.33
3923.00,102.33
3922.00,102.32
3921.00,102.31
3920.00,102.32
3919.00,102.33
3918.00,102.35
3917.00,102.36
3916.00,102.37
3915.00,102.36
3914.00,102.35
3913.00,102.35
3912.00,102.35
3911.00,102.36
3910.00,102.36
3909.00,102.34
3908.00,102.31
3907.00,102.28
3906.00,102.27
3905.00,102.26
3904.00,102.26
3903.00,102.23
3902.00,102.19
3901.00,102.17
3900.00,102.20
3899.00,102.26
3898.00,102.32
3897.00,102.34
3896.00,102.33
3895.00,102.31
3894.00,102.29
3893.00,102.27
3892.00,102.27
3891.00,102.27
3890.00,102.25
3889.00,102.22
3888.00,102.18
3887.00,102.19
3886.00,102.23
3885.00,102.25
3884.00,102.20
3883.00,102.13
3882.00,102.08
3881.00,102.09
3880.00,102.14
3879.00,102.18
3878.00,102.21
3877.00,102.22
3876.00,102.24
3875.00,102.26
3874.00,102.27
3873.00,102.23
3872.00,102.18
3871.00,102.17
3870.00,102.21
3869.00,102.24
3868.00,102.22
3867.00,102.17
3866.00,102.16
3865.00,102.20
3864.00,102.24
3863.00,102.24
3862.00,102.22
3861.00,102.21
3860.00,102.22
3859.00,102.23
3858.00,102.24
3857.00,102.23
3856.00,102.21
3855.00,102.19
3854.00,102.20
3853.00,102.19
3852.00,102.15
3851.00,102.11
3850.00,102.10
3849.00,102.12
3848.00,102.17
3847.00,102.20
3846.00,102.22
3845.00,102.24
3844.00,102.26
3843.00,102.27
3842.00,102.26
3841.00,102.22
3840.00,102.19
3839.00,102.18
3838.00,102.17
3837.00,102.17
3836.00,102.15
3835.00,102.15
3834.00,102.15
3833.00,102.19
3832.00,102.23
3831.00,102.26
3830.00,102.26
3829.00,102.22
3828.00,102.20
3827.00,102.21
3826.00,102.23
3825.00,102.23
3824.00,102.20
3823.00,102.16
3822.00,102.15
3821.00,102.18
3820.00,102.17
3819.00,102.13
3818.00,102.08
3817.00,102.11
3816.00,102.19
3815.00,102.26
3814.00,102.28
3813.00,102.28
3812.00,102.29
3811.00,102.30
3810.00,102.27
3809.00,102.21
3808.00,102.17
3807.00,102.19
3806.00,102.21
3805.00,102.19
3804.00,102.14
3803.00,102.12
3802.00,102.16
3801.00,102.21
3800.00,102.21
3799.00,102.16
3798.00,102.12
3797.00,102.13
3796.00,102.16
3795.00,102.18
3794.00,102.18
3793.00,102.18
3792.00,102.21
3791.00,102.26
3790.00,102.30
3789.00,102.31
3788.00,102.31
3787.00,102.30
3786.00,102.28
3785.00,102.27
3784.00,102.27
3783.00,102.26
3782.00,102.24
3781.00,102.21
3780.00,102.20
3779.00,102.20
3778.00,102.21
3777.00,102.20
3776.00,102.21
3775.00,102.22
3774.00,102.22
3773.00,102.21
3772.00,102.20
3771.00,102.20
3770.00,102.22
3769.00,102.22
3768.00,102.19
3767.00,102.17
3766.00,102.18
3765.00,102.20
3764.00,102.21
3763.00,102.19
3762.00,102.16
3761.00,102.17
3760.00,102.20
3759.00,102.21
3758.00,102.19
3757.00,102.17
3756.00,102.16
3755.00,102.15
3754.00,102.14
3753.00,102.12
3752.00,102.10
3751.00,102.06
3750.00,102.05
3749.00,102.06
3748.00,102.04
3747.00,101.98
3746.00,101.92
3745.00,101.94
3744.00,102.00
3743.00,102.03
3742.00,102.01
3741.00,101.99
3740.00,102.00
3739.00,102.03
3738.00,102.02
3737.00,102.01
3736.00,102.00
3735.00,101.98
3734.00,101.95
3733.00,101.95
3732.00,102.00
3731.00,102.07
3730.00,102.12
3729.00,102.12
3728.00,102.12
3727.00,102.12
3726.00,102.12
3725.00,102.11
3724.00,102.10
3723.00,102.11
3722.00,102.13
3721.00,102.14
3720.00,102.13
3719.00,102.13
3718.00,102.15
3717.00,102.18
3716.00,102.18
3715.00,102.15
3714.00,102.12
3713.00,102.10
3712.00,102.09
3711.00,102.07
3710.00,102.05
3709.00,102.06
3708.00,102.09
3707.00,102.13
3706.00,102.15
3705.00,102.15
3704.00,102.14
3703.00,102.13
3702.00,102.14
3701.00,102.16
3700.00,102.15
3699.00,102.13
3698.00,102.10
3697.00,102.10
3696.00,102.10
3695.00,102.10
3694.00,102.09
3693.00,102.07
3692.00,102.07
3691.00,102.06
3690.00,102.05
3689.00,102.04
3688.00,102.04
3687.00,102.03
3686.00,102.02
3685.00,102.03
3684.00,102.05
3683.00,102.08
3682.00,102.09
3681.00,102.08
3680.00,102.06
3679.00,102.01
3678.00,101.93
3677.00,101.84
3676.00,101.81
3675.00,101.83
3674.00,101.84
3673.00,101.81
3672.00,101.79
3671.00,101.82
3670.00,101.86
3669.00,101.87
3668.00,101.86
3667.00,101.85
3666.00,101.86
3665.00,101.88
3664.00,101.90
3663.00,101.92
3662.00,101.93
3661.00,101.94
3660.00,101.93
3659.00,101.90
3658.00,101.88
3657.00,101.86
3656.00,101.86
3655.00,101.84
3654.00,101.78
3653.00,101.72
3652.00,101.68
3651.00,101.67
3650.00,101.66
3649.00,101.61
3648.00,101.56
3647.00,101.55
3646.00,101.59
3645.00,101.65
3644.00,101.73
3643.00,101.80
3642.00,101.86
3641.00,101.88
3640.00,101.87
3639.00,101.84
3638.00,101.82
3637.00,101.80
3636.00,101.80
3635.00,101.80
3634.00,101.82
3633.00,101.81
3632.00,101.77
3631.00,101.69
3630.00,101.64
3629.00,101.63
3628.00,101.62
3627.00,101.61
3626.00,101.61
3625.00,101.65
3624.00,101.70
3623.00,101.72
3622.00,101.71
3621.00,101.68
3620.00,101.66
3619.00,101.64
3618.00,101.62
3617.00,101.59
3616.00,101.57
3615.00,101.56
3614.00,101.58
3613.00,101.61
3612.00,101.63
3611.00,101.63
3610.00,101.62
3609.00,101.63
3608.00,101.66
3607.00,101.68
3606.00,101.70
3605.00,101.72
3604.00,101.74
3603.00,101.75
3602.00,101.76
3601.00,101.76
3600.00,101.75
3599.00,101.73
3598.00,101.71
3597.00,101.70
3596.00,101.70
3595.00,101.70
3594.00,101.71
3593.00,101.70
3592.00,101.68
3591.00,101.66
3590.00,101.63
3589.00,101.63
3588.00,101.64
3587.00,101.64
3586.00,101.62
3585.00,101.60
3584.00,101.60
3583.00,101.63
3582.00,101.67
3581.00,101.71
3580.00,101.74
3579.00,101.74
3578.00,101.74
3577.00,101.73
3576.00,101.74
3575.00,101.74
3574.00,101.75
3573.00,101.75
3572.00,101.73
3571.00,101.70
3570.00,101.66
3569.00,101.65
3568.00,101.66
3567.00,101.67
3566.00,101.67
3565.00,101.66
3564.00,101.64
3563.00,101.62
3562.00,101.62
3561.00,101.62
3560.00,101.64
3559.00,101.65
3558.00,101.67
3557.00,101.68
3556.00,101.67
3555.00,101.64
3554.00,101.61
3553.00,101.60
3552.00,101.61
3551.00,101.62
3550.00,101.60
3549.00,101.56
3548.00,101.53
3547.00,101.50
3546.00,101.49
3545.00,101.48
3544.00,101.49
3543.00,101.50
3542.00,101.51
3541.00,101.52
3540.00,101.52
3539.00,101.52
3538.00,101.52
3537.00,101.52
3536.00,101.52
3535.00,101.52
3534.00,101.50
3533.00,101.49
3532.00,101.47
3531.00,101.45
3530.00,101.43
3529.00,101.41
3528.00,101.40
3527.00,101.40
3526.00,101.41
3525.00,101.40
3524.00,101.39
3523.00,101.38
3522.00,101.39
3521.00,101.39
3520.00,101.39
3519.00,101.39
3518.00,101.38
3517.00,101.38
3516.00,101.38
3515.00,101.38
3514.00,101.37
3513.00,101.35
3512.00,101.33
3511.00,101.32
3510.00,101.33
3509.00,101.35
3508.00,101.37
3507.00,101.41
3506.00,101.44
3505.00,101.46
3504.00,101.47
3503.00,101.47
3502.00,101.45
3501.00,101.43
3500.00,101.39
3499.00,101.37
3498.00,101.37
3497.00,101.38
3496.00,101.39
3495.00,101.39
3494.00,101.37
3493.00,101.36
3492.00,101.36
3491.00,101.36
3490.00,101.36
3489.00,101.37
3488.00,101.38
3487.00,101.41
3486.00,101.44
3485.00,101.46
3484.00,101.46
3483.00,101.43
3482.00,101.40
3481.00,101.37
3480.00,101.35
3479.00,101.35
3478.00,101.35
3477.00,101.36
3476.00,101.37
3475.00,101.37
3474.00,101.37
3473.00,101.35
3472.00,101.35
3471.00,101.35
3470.00,101.36
3469.00,101.37
3468.00,101.37
3467.00,101.36
3466.00,101.35
3465.00,101.34
3464.00,101.34
3463.00,101.35
3462.00,101.35
3461.00,101.35
3460.00,101.35
3459.00,101.34
3458.00,101.33
3457.00,101.31
3456.00,101.30
3455.00,101.30
3454.00,101.30
3453.00,101.30
3452.00,101.31
3451.00,101.30
3450.00,101.30
3449.00,101.31
3448.00,101.32
3447.00,101.32
3446.00,101.31
3445.00,101.27
3444.00,101.23
3443.00,101.20
3442.00,101.18
3441.00,101.17
3440.00,101.17
3439.00,101.18
3438.00,101.20
3437.00,101.22
3436.00,101.22
3435.00,101.21
3434.00,101.20
3433.00,101.18
3432.00,101.17
3431.00,101.16
3430.00,101.15
3429.00,101.15
3428.00,101.15
3427.00,101.16
3426.00,101.17
3425.00,101.20
3424.00,101.21
3423.00,101.21
3422.00,101.19
3421.00,101.17
3420.00,101.16
3419.00,101.16
3418.00,101.17
3417.00,101.18
3416.00,101.18
3415.00,101.18
3414.00,101.19
3413.00,101.20
3412.00,101.21
3411.00,101.21
3410.00,101.20
3409.00,101.19
3408.00,101.20
3407.00,101.22
3406.00,101.25
3405.00,101.26
3404.00,101.25
3403.00,101.23
3402.00,101.19
3401.00,101.16
3400.00,101.14
3399.00,101.13
3398.00,101.13
3397.00,101.13
3396.00,101.15
3395.00,101.16
3394.00,101.17
3393.00,101.18
3392.00,101.18
3391.00,101.18
3390.00,101.18
3389.00,101.18
3388.00,101.17
3387.00,101.16
3386.00,101.16
3385.00,101.15
3384.00,101.14
3383.00,101.13
3382.00,101.12
3381.00,101.12
3380.00,101.13
3379.00,101.14
3378.00,101.13
3377.00,101.11
3376.00,101.09
3375.00,101.08
3374.00,101.08
3373.00,101.08
3372.00,101.07
3371.00,101.05
3370.00,101.03
3369.00,101.02
3368.00,101.02
3367.00,101.01
3366.00,101.01
3365.00,101.01
3364.00,101.01
3363.00,101.01
3362.00,101.01
3361.00,101.01
3360.00,101.00
3359.00,100.99
3358.00,100.98
3357.00,100.97
3356.00,100.96
3355.00,100.96
3354.00,100.96
3353.00,100.95
3352.00,100.94
3351.00,100.94
3350.00,100.94
3349.00,100.95
3348.00,100.94
3347.00,100.93
3346.00,100.91
3345.00,100.89
3344.00,100.88
3343.00,100.89
3342.00,100.90
3341.00,100.90
3340.00,100.90
3339.00,100.89
3338.00,100.88
3337.00,100.87
3336.00,100.87
3335.00,100.88
3334.00,100.88
3333.00,100.88
3332.00,100.87
3331.00,100.86
3330.00,100.85
3329.00,100.85
3328.00,100.84
3327.00,100.84
3326.00,100.84
3325.00,100.85
3324.00,100.86
3323.00,100.87
3322.00,100.87
3321.00,100.86
3320.00,100.85
3319.00,100.85
3318.00,100.84
3317.00,100.82
3316.00,100.80
3315.00,100.78
3314.00,100.77
3313.00,100.79
3312.00,100.80
3311.00,100.80
3310.00,100.79
3309.00,100.77
3308.00,100.74
3307.00,100.73
3306.00,100.73
3305.00,100.74
3304.00,100.76
3303.00,100.78
3302.00,100.78
3301.00,100.77
3300.00,100.76
3299.00,100.77
3298.00,100.78
3297.00,100.80
3296.00,100.82
3295.00,100.82
3294.00,100.81
3293.00,100.79
3292.00,100.77
3291.00,100.75
3290.00,100.74
3289.00,100.74
3288.00,100.74
3287.00,100.73
3286.00,100.73
3285.00,100.75
3284.00,100.78
3283.00,100.81
3282.00,100.83
3281.00,100.85
3280.00,100.85
3279.00,100.85
3278.00,100.83
3277.00,100.80
3276.00,100.76
3275.00,100.73
3274.00,100.72
3273.00,100.74
3272.00,100.77
3271.00,100.81
3270.00,100.84
3269.00,100.86
3268.00,100.88
3267.00,100.88
3266.00,100.90
3265.00,100.91
3264.00,100.93
3263.00,100.95
3262.00,100.96
3261.00,100.96
3260.00,100.95
3259.00,100.93
3258.00,100.91
3257.00,100.90
3256.00,100.88
3255.00,100.87
3254.00,100.86
3253.00,100.86
3252.00,100.88
3251.00,100.91
3250.00,100.95
3249.00,100.97
3248.00,101.00
3247.00,101.01
3246.00,101.02
3245.00,101.03
3244.00,101.03
3243.00,101.02
3242.00,101.00
3241.00,100.99
3240.00,101.00
3239.00,101.03
3238.00,101.07
3237.00,101.10
3236.00,101.13
3235.00,101.14
3234.00,101.15
3233.00,101.16
3232.00,101.18
3231.00,101.21
3230.00,101.23
3229.00,101.25
3228.00,101.26
3227.00,101.27
3226.00,101.27
3225.00,101.26
3224.00,101.26
3223.00,101.25
3222.00,101.24
3221.00,101.24
3220.00,101.23
3219.00,101.23
3218.00,101.24
3217.00,101.26
3216.00,101.28
3215.00,101.28
3214.00,101.27
3213.00,101.26
3212.00,101.25
3211.00,101.27
3210.00,101.29
3209.00,101.31
3208.00,101.33
3207.00,101.34
3206.00,101.34
3205.00,101.34
3204.00,101.32
3203.00,101.30
3202.00,101.29
3201.00,101.29
3200.00,101.31
3199.00,101.33
3198.00,101.35
3197.00,101.36
3196.00,101.36
3195.00,101.35
3194.00,101.34
3193.00,101.33
3192.00,101.34
3191.00,101.36
3190.00,101.38
3189.00,101.40
3188.00,101.41
3187.00,101.40
3186.00,101.39
3185.00,101.38
3184.00,101.35
3183.00,101.33
3182.00,101.33
3181.00,101.34
3180.00,101.38
3179.00,101.41
3178.00,101.43
3177.00,101.43
3176.00,101.43
3175.00,101.43
3174.00,101.43
3173.00,101.43
3172.00,101.44
3171.00,101.45
3170.00,101.47
3169.00,101.47
3168.00,101.48
3167.00,101.47
3166.00,101.47
3165.00,101.48
3164.00,101.49
3163.00,101.51
3162.00,101.52
3161.00,101.52
3160.00,101.53
3159.00,101.54
3158.00,101.56
3157.00,101.57
3156.00,101.57
3155.00,101.54
3154.00,101.52
3153.00,101.52
3152.00,101.53
3151.00,101.56
3150.00,101.57
3149.00,101.57
3148.00,101.58
3147.00,101.58
3146.00,101.59
3145.00,101.60
3144.00,101.60
3143.00,101.61
3142.00,101.63
3141.00,101.63
3140.00,101.63
3139.00,101.62
3138.00,101.61
3137.00,101.61
3136.00,101.62
3135.00,101.63
3134.00,101.64
3133.00,101.63
3132.00,101.62
3131.00,101.60
3130.00,101.58
3129.00,101.57
3128.00,101.57
3127.00,101.58
3126.00,101.59
3125.00,101.60
3124.00,101.62
3123.00,101.63
3122.00,101.63
3121.00,101.63
3120.00,101.63
3119.00,101.62
3118.00,101.62
3117.00,101.64
3116.00,101.65
3115.00,101.66
3114.00,101.65
3113.00,101.62
3112.00,101.60
3111.00,101.59
3110.00,101.60
3109.00,101.62
3108.00,101.64
3107.00,101.65
3106.00,101.65
3105.00,101.63
3104.00,101.60
3103.00,101.57
3102.00,101.55
3101.00,101.56
3100.00,101.59
3099.00,101.61
3098.00,101.61
3097.00,101.58
3096.00,101.55
3095.00,101.53
3094.00,101.52
3093.00,101.52
3092.00,101.52
3091.00,101.52
3090.00,101.51
3089.00,101.50
3088.00,101.50
3087.00,101.50
3086.00,101.50
3085.00,101.49
3084.00,101.47
3083.00,101.46
3082.00,101.46
3081.00,101.44
3080.00,101.42
3079.00,101.40
3078.00,101.38
3077.00,101.37
3076.00,101.38
3075.00,101.40
3074.00,101.42
3073.00,101.44
3072.00,101.46
3071.00,101.46
3070.00,101.46
3069.00,101.46
3068.00,101.47
3067.00,101.47
3066.00,101.47
3065.00,101.46
3064.00,101.43
3063.00,101.41
3062.00,101.41
3061.00,101.43
3060.00,101.46
3059.00,101.49
3058.00,101.51
3057.00,101.51
3056.00,101.52
3055.00,101.52
3054.00,101.52
3053.00,101.53
3052.00,101.54
3051.00,101.55
3050.00,101.56
3049.00,101.56
3048.00,101.55
3047.00,101.54
3046.00,101.52
3045.00,101.52
3044.00,101.53
3043.00,101.56
3042.00,101.60
3041.00,101.62
3040.00,101.62
3039.00,101.61
3038.00,101.59
3037.00,101.58
3036.00,101.58
3035.00,101.59
3034.00,101.61
3033.00,101.62
3032.00,101.62
3031.00,101.60
3030.00,101.59
3029.00,101.59
3028.00,101.61
3027.00,101.63
3026.00,101.64
3025.00,101.63
3024.00,101.61
3023.00,101.59
3022.00,101.57
3021.00,101.55
3020.00,101.55
3019.00,101.55
3018.00,101.55
3017.00,101.55
3016.00,101.54
3015.00,101.52
3014.00,101.49
3013.00,101.46
3012.00,101.43
3011.00,101.42
3010.00,101.41
3009.00,101.42
3008.00,101.42
3007.00,101.42
3006.00,101.40
3005.00,101.37
3004.00,101.32
3003.00,101.28
3002.00,101.23
3001.00,101.19
3000.00,101.14
2999.00,101.12
2998.00,101.10
2997.00,101.09
2996.00,101.07
2995.00,101.03
2994.00,100.97
2993.00,100.89
2992.00,100.82
2991.00,100.75
2990.00,100.70
2989.00,100.67
2988.00,100.63
2987.00,100.57
2986.00,100.49
2985.00,100.42
2984.00,100.35
2983.00,100.30
2982.00,100.26
2981.00,100.22
2980.00,100.17
2979.00,100.12
2978.00,100.07
2977.00,100.03
2976.00,99.99
2975.00,99.96
2974.00,99.95
2973.00,99.96
2972.00,99.99
2971.00,100.02
2970.00,100.05
2969.00,100.06
2968.00,100.08
2967.00,100.10
2966.00,100.13
2965.00,100.16
2964.00,100.19
2963.00,100.23
2962.00,100.27
2961.00,100.31
2960.00,100.34
2959.00,100.36
2958.00,100.37
2957.00,100.38
2956.00,100.38
2955.00,100.39
2954.00,100.39
2953.00,100.37
2952.00,100.35
2951.00,100.32
2950.00,100.28
2949.00,100.22
2948.00,100.15
2947.00,100.10
2946.00,100.08
2945.00,100.05
2944.00,100.03
2943.00,99.99
2942.00,99.95
2941.00,99.91
2940.00,99.85
2939.00,99.79
2938.00,99.74
2937.00,99.70
2936.00,99.65
2935.00,99.61
2934.00,99.57
2933.00,99.55
2932.00,99.55
2931.00,99.55
2930.00,99.56
2929.00,99.56
2928.00,99.56
2927.00,99.56
2926.00,99.57
2925.00,99.60
2924.00,99.63
2923.00,99.68
2922.00,99.73
2921.00,99.80
2920.00,99.86
2919.00,99.91
2918.00,99.96
2917.00,100.02
2916.00,100.09
2915.00,100.18
2914.00,100.26
2913.00,100.35
2912.00,100.41
2911.00,100.47
2910.00,100.51
2909.00,100.55
2908.00,100.60
2907.00,100.65
2906.00,100.70
2905.00,100.75
2904.00,100.78
2903.00,100.82
2902.00,100.85
2901.00,100.87
2900.00,100.89
2899.00,100.91
2898.00,100.94
2897.00,100.96
2896.00,100.98
2895.00,101.00
2894.00,101.01
2893.00,101.02
2892.00,101.04
2891.00,101.04
2890.00,101.04
2889.00,101.04
2888.00,101.04
2887.00,101.05
2886.00,101.06
2885.00,101.06
2884.00,101.06
2883.00,101.04
2882.00,101.03
2881.00,101.02
2880.00,101.01
2879.00,101.00
2878.00,101.00
2877.00,101.00
2876.00,101.01
2875.00,101.01
2874.00,101.01
2873.00,101.02
2872.00,101.03
2871.00,101.05
2870.00,101.07
2869.00,101.10
2868.00,101.12
2867.00,101.14
2866.00,101.15
2865.00,101.16
2864.00,101.16
2863.00,101.15
2862.00,101.15
2861.00,101.14
2860.00,101.14
2859.00,101.13
2858.00,101.11
2857.00,101.10
2856.00,101.09
2855.00,101.10
2854.00,101.12
2853.00,101.16
2852.00,101.20
2851.00,101.23
2850.00,101.27
2849.00,101.29
2848.00,101.31
2847.00,101.33
2846.00,101.36
2845.00,101.39
2844.00,101.42
2843.00,101.46
2842.00,101.48
2841.00,101.51
2840.00,101.53
2839.00,101.56
2838.00,101.58
2837.00,101.60
2836.00,101.62
2835.00,101.63
2834.00,101.63
2833.00,101.63
2832.00,101.62
2831.00,101.62
2830.00,101.64
2829.00,101.66
2828.00,101.68
2827.00,101.69
2826.00,101.70
2825.00,101.72
2824.00,101.73
2823.00,101.73
2822.00,101.73
2821.00,101.71
2820.00,101.69
2819.00,101.69
2818.00,101.69
2817.00,101.69
2816.00,101.69
2815.00,101.69
2814.00,101.67
2813.00,101.66
2812.00,101.67
2811.00,101.68
2810.00,101.69
2809.00,101.69
2808.00,101.69
2807.00,101.70
2806.00,101.71
2805.00,101.72
2804.00,101.72
2803.00,101.72
2802.00,101.72
2801.00,101.71
2800.00,101.71
2799.00,101.70
2798.00,101.70
2797.00,101.70
2796.00,101.70
2795.00,101.71
2794.00,101.72
2793.00,101.73
2792.00,101.73
2791.00,101.73
2790.00,101.74
2789.00,101.75
2788.00,101.76
2787.00,101.76
2786.00,101.77
2785.00,101.77
2784.00,101.78
2783.00,101.78
2782.00,101.77
2781.00,101.77
2780.00,101.77
2779.00,101.78
2778.00,101.79
2777.00,101.80
2776.00,101.81
2775.00,101.81
2774.00,101.81
2773.00,101.80
2772.00,101.80
2771.00,101.81
2770.00,101.82
2769.00,101.83
2768.00,101.83
2767.00,101.83
2766.00,101.82
2765.00,101.81
2764.00,101.81
2763.00,101.82
2762.00,101.83
2761.00,101.83
2760.00,101.83
2759.00,101.83
2758.00,101.83
2757.00,101.83
2756.00,101.82
2755.00,101.82
2754.00,101.82
2753.00,101.82
2752.00,101.81
2751.00,101.80
2750.00,101.79
2749.00,101.79
2748.00,101.79
2747.00,101.79
2746.00,101.79
2745.00,101.80
2744.00,101.81
2743.00,101.82
2742.00,101.82
2741.00,101.82
2740.00,101.82
2739.00,101.81
2738.00,101.81
2737.00,101.81
2736.00,101.82
2735.00,101.83
2734.00,101.83
2733.00,101.84
2732.00,101.85
2731.00,101.85
2730.00,101.85
2729.00,101.84
2728.00,101.83
2727.00,101.82
2726.00,101.82
2725.00,101.81
2724.00,101.80
2723.00,101.81
2722.00,101.82
2721.00,101.83
2720.00,101.83
2719.00,101.82
2718.00,101.80
2717.00,101.78
2716.00,101.77
2715.00,101.77
2714.00,101.78
2713.00,101.79
2712.00,101.79
2711.00,101.79
2710.00,101.80
2709.00,101.80
2708.00,101.81
2707.00,101.80
2706.00,101.79
2705.00,101.78
2704.00,101.78
2703.00,101.78
2702.00,101.80
2701.00,101.81
2700.00,101.82
2699.00,101.82
2698.00,101.83
2697.00,101.83
2696.00,101.84
2695.00,101.85
2694.00,101.85
2693.00,101.85
2692.00,101.84
2691.00,101.84
2690.00,101.83
2689.00,101.83
2688.00,101.84
2687.00,101.85
2686.00,101.87
2685.00,101.86
2684.00,101.85
2683.00,101.84
2682.00,101.85
2681.00,101.86
2680.00,101.87
2679.00,101.88
2678.00,101.88
2677.00,101.87
2676.00,101.87
2675.00,101.87
2674.00,101.87
2673.00,101.87
2672.00,101.86
2671.00,101.86
2670.00,101.86
2669.00,101.87
2668.00,101.88
2667.00,101.88
2666.00,101.88
2665.00,101.86
2664.00,101.84
2663.00,101.84
2662.00,101.84
2661.00,101.84
2660.00,101.85
2659.00,101.84
2658.00,101.83
2657.00,101.81
2656.00,101.81
2655.00,101.81
2654.00,101.82
2653.00,101.82
2652.00,101.82
2651.00,101.82
2650.00,101.80
2649.00,101.79
2648.00,101.78
2647.00,101.77
2646.00,101.77
2645.00,101.78
2644.00,101.79
2643.00,101.79
2642.00,101.78
2641.00,101.76
2640.00,101.75
2639.00,101.75
2638.00,101.73
2637.00,101.72
2636.00,101.70
2635.00,101.70
2634.00,101.70
2633.00,101.71
2632.00,101.71
2631.00,101.71
2630.00,101.71
2629.00,101.70
2628.00,101.69
2627.00,101.69
2626.00,101.70
2625.00,101.70
2624.00,101.68
2623.00,101.66
2622.00,101.64
2621.00,101.64
2620.00,101.66
2619.00,101.68
2618.00,101.68
2617.00,101.67
2616.00,101.66
2615.00,101.66
2614.00,101.66
2613.00,101.66
2612.00,101.67
2611.00,101.68
2610.00,101.68
2609.00,101.67
2608.00,101.65
2607.00,101.64
2606.00,101.64
2605.00,101.65
2604.00,101.67
2603.00,101.67
2602.00,101.67
2601.00,101.67
2600.00,101.67
2599.00,101.67
2598.00,101.65
2597.00,101.62
2596.00,101.59
2595.00,101.57
2594.00,101.57
2593.00,101.59
2592.00,101.62
2591.00,101.64
2590.00,101.64
2589.00,101.63
2588.00,101.61
2587.00,101.61
2586.00,101.61
2585.00,101.62
2584.00,101.63
2583.00,101.63
2582.00,101.64
2581.00,101.64
2580.00,101.65
2579.00,101.64
2578.00,101.63
2577.00,101.62
2576.00,101.61
2575.00,101.60
2574.00,101.59
2573.00,101.59
2572.00,101.60
2571.00,101.62
2570.00,101.63
2569.00,101.63
2568.00,101.63
2567.00,101.61
2566.00,101.58
2565.00,101.57
2564.00,101.56
2563.00,101.57
2562.00,101.59
2561.00,101.62
2560.00,101.63
2559.00,101.63
2558.00,101.62
2557.00,101.61
2556.00,101.61
2555.00,101.62
2554.00,101.62
2553.00,101.63
2552.00,101.64
2551.00,101.64
2550.00,101.63
2549.00,101.60
2548.00,101.58
2547.00,101.56
2546.00,101.55
2545.00,101.55
2544.00,101.55
2543.00,101.55
2542.00,101.55
2541.00,101.55
2540.00,101.57
2539.00,101.58
2538.00,101.58
2537.00,101.56
2536.00,101.55
2535.00,101.54
2534.00,101.55
2533.00,101.56
2532.00,101.56
2531.00,101.55
2530.00,101.53
2529.00,101.50
2528.00,101.49
2527.00,101.51
2526.00,101.54
2525.00,101.57
2524.00,101.58
2523.00,101.57
2522.00,101.57
2521.00,101.57
2520.00,101.58
2519.00,101.57
2518.00,101.54
2517.00,101.52
2516.00,101.50
2515.00,101.50
2514.00,101.50
2513.00,101.51
2512.00,101.52
2511.00,101.54
2510.00,101.57
2509.00,101.59
2508.00,101.60
2507.00,101.60
2506.00,101.60
2505.00,101.60
2504.00,101.62
2503.00,101.63
2502.00,101.62
2501.00,101.61
2500.00,101.60
2499.00,101.58
2498.00,101.57
2497.00,101.57
2496.00,101.57
2495.00,101.57
2494.00,101.57
2493.00,101.56
2492.00,101.54
2491.00,101.52
2490.00,101.51
2489.00,101.51
2488.00,101.53
2487.00,101.55
2486.00,101.57
2485.00,101.57
2484.00,101.57
2483.00,101.58
2482.00,101.60
2481.00,101.61
2480.00,101.60
2479.00,101.57
2478.00,101.55
2477.00,101.53
2476.00,101.53
2475.00,101.56
2474.00,101.58
2473.00,101.60
2472.00,101.60
2471.00,101.58
2470.00,101.56
2469.00,101.56
2468.00,101.59
2467.00,101.61
2466.00,101.63
2465.00,101.63
2464.00,101.62
2463.00,101.59
2462.00,101.56
2461.00,101.53
2460.00,101.52
2459.00,101.51
2458.00,101.52
2457.00,101.53
2456.00,101.55
2455.00,101.56
2454.00,101.56
2453.00,101.55
2452.00,101.54
2451.00,101.54
2450.00,101.56
2449.00,101.58
2448.00,101.60
2447.00,101.62
2446.00,101.61
2445.00,101.60
2444.00,101.59
2443.00,101.58
2442.00,101.56
2441.00,101.55
2440.00,101.54
2439.00,101.54
2438.00,101.56
2437.00,101.58
2436.00,101.61
2435.00,101.63
2434.00,101.64
2433.00,101.63
2432.00,101.61
2431.00,101.60
2430.00,101.61
2429.00,101.63
2428.00,101.65
2427.00,101.66
2426.00,101.66
2425.00,101.64
2424.00,101.62
2423.00,101.61
2422.00,101.61
2421.00,101.61
2420.00,101.61
2419.00,101.62
2418.00,101.63
2417.00,101.65
2416.00,101.68
2415.00,101.69
2414.00,101.68
2413.00,101.64
2412.00,101.62
2411.00,101.63
2410.00,101.65
2409.00,101.68
2408.00,101.69
2407.00,101.70
2406.00,101.70
2405.00,101.70
2404.00,101.70
2403.00,101.70
2402.00,101.69
2401.00,101.69
2400.00,101.70
2399.00,101.73
2398.00,101.76
2397.00,101.78
2396.00,101.77
2395.00,101.76
2394.00,101.74
2393.00,101.74
2392.00,101.76
2391.00,101.78
2390.00,101.80
2389.00,101.81
2388.00,101.81
2387.00,101.80
2386.00,101.81
2385.00,101.84
2384.00,101.88
2383.00,101.91
2382.00,101.94
2381.00,101.95
2380.00,101.96
2379.00,101.98
2378.00,102.00
2377.00,102.05
2376.00,102.08
2375.00,102.11
2374.00,102.10
2373.00,102.09
2372.00,102.06
2371.00,102.02
2370.00,101.98
2369.00,101.95
2368.00,101.95
2367.00,101.97
2366.00,101.98
2365.00,101.97
2364.00,101.96
2363.00,101.98
2362.00,102.03
2361.00,102.09
2360.00,102.12
2359.00,102.05
2358.00,101.88
2357.00,101.65
2356.00,101.48
2355.00,101.42
2354.00,101.49
2353.00,101.63
2352.00,101.78
2351.00,101.89
2350.00,101.96
2349.00,102.00
2348.00,102.07
2347.00,102.14
2346.00,102.17
2345.00,102.10
2344.00,101.98
2343.00,101.90
2342.00,101.87
2341.00,101.87
2340.00,101.86
2339.00,101.86
2338.00,101.86
2337.00,101.84
2336.00,101.83
2335.00,101.85
2334.00,101.89
2333.00,101.89
2332.00,101.85
2331.00,101.80
2330.00,101.77
2329.00,101.73
2328.00,101.68
2327.00,101.64
2326.00,101.62
2325.00,101.63
2324.00,101.64
2323.00,101.63
2322.00,101.59
2321.00,101.56
2320.00,101.55
2319.00,101.57
2318.00,101.60
2317.00,101.65
2316.00,101.70
2315.00,101.76
2314.00,101.79
2313.00,101.79
2312.00,101.76
2311.00,101.72
2310.00,101.69
2309.00,101.67
2308.00,101.65
2307.00,101.64
2306.00,101.63
2305.00,101.62
2304.00,101.63
2303.00,101.63
2302.00,101.62
2301.00,101.60
2300.00,101.59
2299.00,101.58
2298.00,101.57
2297.00,101.55
2296.00,101.52
2295.00,101.49
2294.00,101.48
2293.00,101.47
2292.00,101.47
2291.00,101.48
2290.00,101.49
2289.00,101.48
2288.00,101.44
2287.00,101.39
2286.00,101.36
2285.00,101.34
2284.00,101.35
2283.00,101.37
2282.00,101.38
2281.00,101.38
2280.00,101.35
2279.00,101.31
2278.00,101.29
2277.00,101.27
2276.00,101.27
2275.00,101.28
2274.00,101.28
2273.00,101.29
2272.00,101.29
2271.00,101.28
2270.00,101.24
2269.00,101.17
2268.00,101.12
2267.00,101.11
2266.00,101.13
2265.00,101.15
2264.00,101.13
2263.00,101.06
2262.00,100.97
2261.00,100.86
2260.00,100.76
2259.00,100.67
2258.00,100.58
2257.00,100.49
2256.00,100.39
2255.00,100.29
2254.00,100.18
2253.00,100.03
2252.00,99.85
2251.00,99.66
2250.00,99.47
2249.00,99.28
2248.00,99.10
2247.00,98.97
2246.00,98.90
2245.00,98.90
2244.00,98.96
2243.00,99.05
2242.00,99.16
2241.00,99.31
2240.00,99.51
2239.00,99.76
2238.00,100.02
2237.00,100.26
2236.00,100.45
2235.00,100.61
2234.00,100.75
2233.00,100.86
2232.00,100.94
2231.00,100.99
2230.00,101.01
2229.00,101.01
2228.00,100.99
2227.00,100.97
2226.00,100.97
2225.00,100.97
2224.00,100.95
2223.00,100.91
2222.00,100.86
2221.00,100.84
2220.00,100.83
2219.00,100.82
2218.00,100.80
2217.00,100.80
2216.00,100.81
2215.00,100.83
2214.00,100.83
2213.00,100.83
2212.00,100.85
2211.00,100.87
2210.00,100.88
2209.00,100.85
2208.00,100.80
2207.00,100.77
2206.00,100.76
2205.00,100.79
2204.00,100.82
2203.00,100.85
2202.00,100.87
2201.00,100.87
2200.00,100.84
2199.00,100.82
2198.00,100.82
2197.00,100.84
2196.00,100.88
2195.00,100.92
2194.00,100.93
2193.00,100.90
2192.00,100.83
2191.00,100.76
2190.00,100.72
2189.00,100.71
2188.00,100.73
2187.00,100.75
2186.00,100.74
2185.00,100.70
2184.00,100.64
2183.00,100.61
2182.00,100.63
2181.00,100.67
2180.00,100.66
2179.00,100.62
2178.00,100.58
2177.00,100.60
2176.00,100.66
2175.00,100.71
2174.00,100.71
2173.00,100.66
2172.00,100.56
2171.00,100.45
2170.00,100.35
2169.00,100.30
2168.00,100.31
2167.00,100.37
2166.00,100.44
2165.00,100.46
2164.00,100.44
2163.00,100.40
2162.00,100.37
2161.00,100.37
2160.00,100.40
2159.00,100.46
2158.00,100.54
2157.00,100.60
2156.00,100.63
2155.00,100.65
2154.00,100.69
2153.00,100.74
2152.00,100.77
2151.00,100.77
2150.00,100.76
2149.00,100.78
2148.00,100.84
2147.00,100.91
2146.00,100.96
2145.00,100.99
2144.00,101.02
2143.00,101.08
2142.00,101.16
2141.00,101.22
2140.00,101.21
2139.00,101.15
2138.00,101.07
2137.00,101.04
2136.00,101.05
2135.00,101.11
2134.00,101.18
2133.00,101.25
2132.00,101.30
2131.00,101.33
2130.00,101.34
2129.00,101.33
2128.00,101.30
2127.00,101.28
2126.00,101.27
2125.00,101.27
2124.00,101.27
2123.00,101.27
2122.00,101.29
2121.00,101.32
2120.00,101.34
2119.00,101.34
2118.00,101.32
2117.00,101.29
2116.00,101.28
2115.00,101.28
2114.00,101.30
2113.00,101.31
2112.00,101.31
2111.00,101.29
2110.00,101.27
2109.00,101.24
2108.00,101.22
2107.00,101.21
2106.00,101.21
2105.00,101.23
2104.00,101.24
2103.00,101.24
2102.00,101.23
2101.00,101.23
2100.00,101.24
2099.00,101.25
2098.00,101.26
2097.00,101.26
2096.00,101.27
2095.00,101.27
2094.00,101.26
2093.00,101.25
2092.00,101.25
2091.00,101.25
2090.00,101.26
2089.00,101.27
2088.00,101.27
2087.00,101.27
2086.00,101.28
2085.00,101.30
2084.00,101.32
2083.00,101.33
2082.00,101.31
2081.00,101.29
2080.00,101.26
2079.00,101.21
2078.00,101.15
2077.00,101.10
2076.00,101.05
2075.00,101.03
2074.00,101.04
2073.00,101.06
2072.00,101.08
2071.00,101.09
2070.00,101.09
2069.00,101.10
2068.00,101.12
2067.00,101.13
2066.00,101.14
2065.00,101.14
2064.00,101.14
2063.00,101.14
2062.00,101.15
2061.00,101.16
2060.00,101.18
2059.00,101.19
2058.00,101.18
2057.00,101.16
2056.00,101.13
2055.00,101.10
2054.00,101.06
2053.00,101.01
2052.00,100.96
2051.00,100.92
2050.00,100.89
2049.00,100.85
2048.00,100.80
2047.00,100.74
2046.00,100.71
2045.00,100.72
2044.00,100.77
2043.00,100.81
2042.00,100.83
2041.00,100.83
2040.00,100.82
2039.00,100.81
2038.00,100.80
2037.00,100.80
2036.00,100.79
2035.00,100.77
2034.00,100.71
2033.00,100.66
2032.00,100.66
2031.00,100.72
2030.00,100.80
2029.00,100.86
2028.00,100.86
2027.00,100.82
2026.00,100.78
2025.00,100.75
2024.00,100.74
2023.00,100.75
2022.00,100.78
2021.00,100.80
2020.00,100.79
2019.00,100.75
2018.00,100.71
2017.00,100.69
2016.00,100.68
2015.00,100.66
2014.00,100.64
2013.00,100.62
2012.00,100.59
2011.00,100.57
2010.00,100.59
2009.00,100.66
2008.00,100.77
2007.00,100.86
2006.00,100.89
2005.00,100.87
2004.00,100.84
2003.00,100.82
2002.00,100.82
2001.00,100.83
2000.00,100.85
1999.00,100.86
1998.00,100.85
1997.00,100.82
1996.00,100.80
1995.00,100.80
1994.00,100.83
1993.00,100.87
1992.00,100.90
1991.00,100.89
1990.00,100.87
1989.00,100.86
1988.00,100.85
1987.00,100.81
1986.00,100.74
1985.00,100.68
1984.00,100.68
1983.00,100.73
1982.00,100.76
1981.00,100.75
1980.00,100.71
1979.00,100.71
1978.00,100.75
1977.00,100.75
1976.00,100.70
1975.00,100.60
1974.00,100.54
1973.00,100.55
1972.00,100.64
1971.00,100.74
1970.00,100.84
1969.00,100.90
1968.00,100.95
1967.00,100.96
1966.00,100.95
1965.00,100.97
1964.00,101.02
1963.00,101.08
1962.00,101.12
1961.00,101.12
1960.00,101.10
1959.00,101.09
1958.00,101.09
1957.00,101.08
1956.00,101.04
1955.00,100.99
1954.00,100.97
1953.00,101.01
1952.00,101.07
1951.00,101.13
1950.00,101.17
1949.00,101.18
1948.00,101.17
1947.00,101.16
1946.00,101.17
1945.00,101.19
1944.00,101.23
1943.00,101.28
1942.00,101.31
1941.00,101.34
1940.00,101.37
1939.00,101.41
1938.00,101.44
1937.00,101.46
1936.00,101.47
1935.00,101.48
1934.00,101.48
1933.00,101.48
1932.00,101.46
1931.00,101.43
1930.00,101.39
1929.00,101.37
1928.00,101.38
1927.00,101.43
1926.00,101.49
1925.00,101.54
1924.00,101.56
1923.00,101.55
1922.00,101.52
1921.00,101.51
1920.00,101.51
1919.00,101.52
1918.00,101.50
1917.00,101.49
1916.00,101.48
1915.00,101.49
1914.00,101.53
1913.00,101.57
1912.00,101.61
1911.00,101.63
1910.00,101.61
1909.00,101.58
1908.00,101.55
1907.00,101.55
1906.00,101.55
1905.00,101.54
1904.00,101.53
1903.00,101.53
1902.00,101.55
1901.00,101.60
1900.00,101.65
1899.00,101.68
1898.00,101.69
1897.00,101.69
1896.00,101.69
1895.00,101.69
1894.00,101.68
1893.00,101.67
1892.00,101.66
1891.00,101.66
1890.00,101.65
1889.00,101.66
1888.00,101.66
1887.00,101.67
1886.00,101.68
1885.00,101.69
1884.00,101.72
1883.00,101.74
1882.00,101.77
1881.00,101.80
1880.00,101.82
1879.00,101.82
1878.00,101.80
1877.00,101.77
1876.00,101.74
1875.00,101.74
1874.00,101.76
1873.00,101.79
1872.00,101.82
1871.00,101.83
1870.00,101.82
1869.00,101.80
1868.00,101.79
1867.00,101.79
1866.00,101.80
1865.00,101.80
1864.00,101.79
1863.00,101.78
1862.00,101.76
1861.00,101.74
1860.00,101.74
1859.00,101.77
1858.00,101.81
1857.00,101.85
1856.00,101.88
1855.00,101.90
1854.00,101.90
1853.00,101.90
1852.00,101.90
1851.00,101.90
1850.00,101.89
1849.00,101.87
1848.00,101.87
1847.00,101.87
1846.00,101.87
1845.00,101.87
1844.00,101.87
1843.00,101.87
1842.00,101.85
1841.00,101.84
1840.00,101.82
1839.00,101.82
1838.00,101.84
1837.00,101.86
1836.00,101.87
1835.00,101.88
1834.00,101.88
1833.00,101.88
1832.00,101.88
1831.00,101.90
1830.00,101.91
1829.00,101.91
1828.00,101.90
1827.00,101.89
1826.00,101.88
1825.00,101.87
1824.00,101.87
1823.00,101.89
1822.00,101.91
1821.00,101.93
1820.00,101.94
1819.00,101.94
1818.00,101.94
1817.00,101.92
1816.00,101.91
1815.00,101.90
1814.00,101.90
1813.00,101.91
1812.00,101.92
1811.00,101.94
1810.00,101.95
1809.00,101.94
1808.00,101.94
1807.00,101.95
1806.00,101.96
1805.00,101.97
1804.00,101.98
1803.00,102.00
1802.00,102.02
1801.00,102.01
1800.00,102.00
1799.00,101.98
1798.00,101.98
1797.00,101.98
1796.00,101.98
1795.00,101.98
1794.00,101.97
1793.00,101.97
1792.00,101.98
1791.00,101.99
1790.00,101.99
1789.00,101.98
1788.00,101.96
1787.00,101.95
1786.00,101.95
1785.00,101.95
1784.00,101.96
1783.00,101.98
1782.00,101.99
1781.00,101.98
1780.00,101.97
1779.00,101.96
1778.00,101.97
1777.00,101.99
1776.00,102.01
1775.00,102.02
1774.00,102.02
1773.00,102.02
1772.00,102.02
1771.00,102.00
1770.00,101.98
1769.00,101.96
1768.00,101.95
1767.00,101.96
1766.00,101.96
1765.00,101.95
1764.00,101.94
1763.00,101.93
1762.00,101.95
1761.00,101.96
1760.00,101.96
1759.00,101.95
1758.00,101.94
1757.00,101.93
1756.00,101.94
1755.00,101.95
1754.00,101.95
1753.00,101.95
1752.00,101.96
1751.00,101.96
1750.00,101.94
1749.00,101.92
1748.00,101.89
1747.00,101.86
1746.00,101.83
1745.00,101.81
1744.00,101.80
1743.00,101.80
1742.00,101.81
1741.00,101.81
1740.00,101.82
1739.00,101.81
1738.00,101.80
1737.00,101.79
1736.00,101.77
1735.00,101.77
1734.00,101.77
1733.00,101.74
1732.00,101.70
1731.00,101.68
1730.00,101.67
1729.00,101.66
1728.00,101.65
1727.00,101.64
1726.00,101.63
1725.00,101.62
1724.00,101.60
1723.00,101.60
1722.00,101.61
1721.00,101.62
1720.00,101.64
1719.00,101.66
1718.00,101.66
1717.00,101.63
1716.00,101.60
1715.00,101.59
1714.00,101.60
1713.00,101.60
1712.00,101.60
1711.00,101.60
1710.00,101.60
1709.00,101.61
1708.00,101.63
1707.00,101.66
1706.00,101.68
1705.00,101.70
1704.00,101.69
1703.00,101.67
1702.00,101.65
1701.00,101.63
1700.00,101.63
1699.00,101.62
1698.00,101.59
1697.00,101.53
1696.00,101.49
1695.00,101.48
1694.00,101.47
1693.00,101.44
1692.00,101.40
1691.00,101.35
1690.00,101.30
1689.00,101.25
1688.00,101.19
1687.00,101.13
1686.00,101.07
1685.00,100.98
1684.00,100.87
1683.00,100.73
1682.00,100.60
1681.00,100.46
1680.00,100.32
1679.00,100.19
1678.00,100.06
1677.00,99.93
1676.00,99.79
1675.00,99.67
1674.00,99.55
1673.00,99.44
1672.00,99.30
1671.00,99.16
1670.00,99.00
1669.00,98.84
1668.00,98.68
1667.00,98.51
1666.00,98.34
1665.00,98.17
1664.00,98.01
1663.00,97.87
1662.00,97.74
1661.00,97.62
1660.00,97.49
1659.00,97.37
1658.00,97.26
1657.00,97.17
1656.00,97.10
1655.00,97.03
1654.00,96.97
1653.00,96.91
1652.00,96.86
1651.00,96.81
1650.00,96.77
1649.00,96.73
1648.00,96.70
1647.00,96.67
1646.00,96.66
1645.00,96.65
1644.00,96.65
1643.00,96.67
1642.00,96.71
1641.00,96.75
1640.00,96.80
1639.00,96.85
1638.00,96.90
1637.00,96.96
1636.00,97.06
1635.00,97.15
1634.00,97.22
1633.00,97.27
1632.00,97.31
1631.00,97.37
1630.00,97.45
1629.00,97.54
1628.00,97.65
1627.00,97.75
1626.00,97.84
1625.00,97.93
1624.00,98.03
1623.00,98.15
1622.00,98.27
1621.00,98.38
1620.00,98.47
1619.00,98.56
1618.00,98.68
1617.00,98.85
1616.00,99.02
1615.00,99.16
1614.00,99.26
1613.00,99.36
1612.00,99.48
1611.00,99.60
1610.00,99.71
1609.00,99.82
1608.00,99.93
1607.00,100.03
1606.00,100.12
1605.00,100.21
1604.00,100.30
1603.00,100.38
1602.00,100.44
1601.00,100.51
1600.00,100.59
1599.00,100.67
1598.00,100.74
1597.00,100.79
1596.00,100.83
1595.00,100.87
1594.00,100.90
1593.00,100.94
1592.00,100.98
1591.00,101.02
1590.00,101.04
1589.00,101.05
1588.00,101.06
1587.00,101.05
1586.00,101.03
1585.00,101.00
1584.00,100.98
1583.00,100.97
1582.00,100.94
1581.00,100.92
1580.00,100.91
1579.00,100.90
1578.00,100.88
1577.00,100.85
1576.00,100.79
1575.00,100.72
1574.00,100.64
1573.00,100.55
1572.00,100.46
1571.00,100.36
1570.00,100.26
1569.00,100.17
1568.00,100.09
1567.00,100.01
1566.00,99.91
1565.00,99.80
1564.00,99.71
1563.00,99.62
1562.00,99.53
1561.00,99.45
1560.00,99.37
1559.00,99.26
1558.00,99.14
1557.00,99.03
1556.00,98.93
1555.00,98.84
1554.00,98.76
1553.00,98.68
1552.00,98.61
1551.00,98.54
1550.00,98.47
1549.00,98.41
1548.00,98.35
1547.00,98.30
1546.00,98.26
1545.00,98.24
1544.00,98.23
1543.00,98.22
1542.00,98.22
1541.00,98.23
1540.00,98.27
1539.00,98.33
1538.00,98.35
1537.00,98.35
1536.00,98.33
1535.00,98.34
1534.00,98.40
1533.00,98.48
1532.00,98.53
1531.00,98.56
1530.00,98.58
1529.00,98.62
1528.00,98.69
1527.00,98.77
1526.00,98.85
1525.00,98.90
1524.00,98.93
1523.00,98.96
1522.00,99.02
1521.00,99.11
1520.00,99.20
1519.00,99.26
1518.00,99.32
1517.00,99.39
1516.00,99.46
1515.00,99.50
1514.00,99.54
1513.00,99.58
1512.00,99.65
1511.00,99.75
1510.00,99.86
1509.00,99.97
1508.00,100.10
1507.00,100.26
1506.00,100.40
1505.00,100.49
1504.00,100.54
1503.00,100.58
1502.00,100.64
1501.00,100.71
1500.00,100.79
1499.00,100.87
1498.00,100.95
1497.00,101.03
1496.00,101.10
1495.00,101.16
1494.00,101.20
1493.00,101.23
1492.00,101.25
1491.00,101.29
1490.00,101.34
1489.00,101.38
1488.00,101.39
1487.00,101.40
1486.00,101.40
1485.00,101.39
1484.00,101.38
1483.00,101.37
1482.00,101.36
1481.00,101.33
1480.00,101.28
1479.00,101.23
1478.00,101.16
1477.00,101.08
1476.00,100.99
1475.00,100.90
1474.00,100.80
1473.00,100.67
1472.00,100.52
1471.00,100.36
1470.00,100.22
1469.00,100.10
1468.00,100.01
1467.00,99.94
1466.00,99.88
1465.00,99.81
1464.00,99.71
1463.00,99.60
1462.00,99.47
1461.00,99.32
1460.00,99.16
1459.00,98.99
1458.00,98.81
1457.00,98.61
1456.00,98.43
1455.00,98.27
1454.00,98.14
1453.00,98.04
1452.00,97.96
1451.00,97.90
1450.00,97.86
1449.00,97.83
1448.00,97.81
1447.00,97.80
1446.00,97.79
1445.00,97.77
1444.00,97.76
1443.00,97.76
1442.00,97.77
1441.00,97.78
1440.00,97.78
1439.00,97.78
1438.00,97.82
1437.00,97.88
1436.00,97.96
1435.00,98.04
1434.00,98.12
1433.00,98.20
1432.00,98.32
1431.00,98.47
1430.00,98.63
1429.00,98.81
1428.00,98.97
1427.00,99.12
1426.00,99.27
1425.00,99.43
1424.00,99.60
1423.00,99.74
1422.00,99.86
1421.00,99.99
1420.00,100.13
1419.00,100.27
1418.00,100.40
1417.00,100.49
1416.00,100.56
1415.00,100.61
1414.00,100.66
1413.00,100.72
1412.00,100.78
1411.00,100.84
1410.00,100.90
1409.00,100.96
1408.00,101.00
1407.00,101.03
1406.00,101.06
1405.00,101.09
1404.00,101.13
1403.00,101.15
1402.00,101.15
1401.00,101.14
1400.00,101.12
1399.00,101.11
1398.00,101.09
1397.00,101.06
1396.00,101.01
1395.00,100.93
1394.00,100.84
1393.00,100.73
1392.00,100.61
1391.00,100.48
1390.00,100.37
1389.00,100.28
1388.00,100.22
1387.00,100.20
1386.00,100.21
1385.00,100.24
1384.00,100.29
1383.00,100.34
1382.00,100.39
1381.00,100.43
1380.00,100.45
1379.00,100.46
1378.00,100.47
1377.00,100.46
1376.00,100.43
1375.00,100.37
1374.00,100.28
1373.00,100.18
1372.00,100.06
1371.00,99.93
1370.00,99.81
1369.00,99.70
1368.00,99.62
1367.00,99.59
1366.00,99.59
1365.00,99.63
1364.00,99.71
1363.00,99.80
1362.00,99.90
1361.00,99.98
1360.00,100.04
1359.00,100.08
1358.00,100.10
1357.00,100.12
1356.00,100.14
1355.00,100.16
1354.00,100.17
1353.00,100.19
1352.00,100.21
1351.00,100.23
1350.00,100.25
1349.00,100.28
1348.00,100.33
1347.00,100.38
1346.00,100.43
1345.00,100.47
1344.00,100.50
1343.00,100.51
1342.00,100.53
1341.00,100.56
1340.00,100.59
1339.00,100.62
1338.00,100.65
1337.00,100.67
1336.00,100.70
1335.00,100.72
1334.00,100.74
1333.00,100.75
1332.00,100.77
1331.00,100.78
1330.00,100.79
1329.00,100.81
1328.00,100.82
1327.00,100.83
1326.00,100.83
1325.00,100.84
1324.00,100.85
1323.00,100.86
1322.00,100.87
1321.00,100.89
1320.00,100.90
1319.00,100.93
1318.00,100.95
1317.00,100.99
1316.00,101.02
1315.00,101.05
1314.00,101.08
1313.00,101.10
1312.00,101.11
1311.00,101.11
1310.00,101.10
1309.00,101.09
1308.00,101.07
1307.00,101.06
1306.00,101.05
1305.00,101.05
1304.00,101.03
1303.00,101.02
1302.00,100.99
1301.00,100.96
1300.00,100.94
1299.00,100.93
1298.00,100.92
1297.00,100.91
1296.00,100.89
1295.00,100.86
1294.00,100.82
1293.00,100.78
1292.00,100.75
1291.00,100.72
1290.00,100.70
1289.00,100.68
1288.00,100.65
1287.00,100.63
1286.00,100.60
1285.00,100.57
1284.00,100.54
1283.00,100.51
1282.00,100.48
1281.00,100.45
1280.00,100.42
1279.00,100.39
1278.00,100.36
1277.00,100.33
1276.00,100.30
1275.00,100.28
1274.00,100.25
1273.00,100.22
1272.00,100.19
1271.00,100.16
1270.00,100.15
1269.00,100.14
1268.00,100.13
1267.00,100.11
1266.00,100.08
1265.00,100.04
1264.00,100.01
1263.00,99.99
1262.00,99.96
1261.00,99.93
1260.00,99.89
1259.00,99.85
1258.00,99.81
1257.00,99.79
1256.00,99.77
1255.00,99.75
1254.00,99.73
1253.00,99.71
1252.00,99.70
1251.00,99.70
1250.00,99.69
1249.00,99.67
1248.00,99.64
1247.00,99.62
1246.00,99.61
1245.00,99.61
1244.00,99.61
1243.00,99.62
1242.00,99.62
1241.00,99.61
1240.00,99.62
1239.00,99.63
1238.00,99.65
1237.00,99.68
1236.00,99.69
1235.00,99.69
1234.00,99.69
1233.00,99.69
1232.00,99.68
1231.00,99.69
1230.00,99.70
1229.00,99.71
1228.00,99.73
1227.00,99.74
1226.00,99.74
1225.00,99.74
1224.00,99.75
1223.00,99.75
1222.00,99.75
1221.00,99.76
1220.00,99.77
1219.00,99.78
1218.00,99.79
1217.00,99.79
1216.00,99.80
1215.00,99.82
1214.00,99.85
1213.00,99.89
1212.00,99.93
1211.00,99.97
1210.00,100.01
1209.00,100.03
1208.00,100.04
1207.00,100.05
1206.00,100.07
1205.00,100.10
1204.00,100.13
1203.00,100.16
1202.00,100.17
1201.00,100.18
1200.00,100.19
1199.00,100.21
1198.00,100.24
1197.00,100.27
1196.00,100.31
1195.00,100.35
1194.00,100.38
1193.00,100.41
1192.00,100.44
1191.00,100.47
1190.00,100.49
1189.00,100.50
1188.00,100.51
1187.00,100.52
1186.00,100.53
1185.00,100.53
1184.00,100.52
1183.00,100.49
1182.00,100.44
1181.00,100.40
1180.00,100.36
1179.00,100.34
1178.00,100.32
1177.00,100.28
1176.00,100.24
1175.00,100.19
1174.00,100.16
1173.00,100.17
1172.00,100.23
1171.00,100.32
1170.00,100.41
1169.00,100.50
1168.00,100.57
1167.00,100.64
1166.00,100.70
1165.00,100.77
1164.00,100.83
1163.00,100.87
1162.00,100.88
1161.00,100.88
1160.00,100.87
1159.00,100.86
1158.00,100.87
1157.00,100.88
1156.00,100.86
1155.00,100.84
1154.00,100.83
1153.00,100.88
1152.00,100.95
1151.00,101.02
1150.00,101.07
1149.00,101.10
1148.00,101.11
1147.00,101.13
1146.00,101.14
1145.00,101.14
1144.00,101.14
1143.00,101.12
1142.00,101.11
1141.00,101.10
1140.00,101.08
1139.00,101.03
1138.00,100.97
1137.00,100.88
1136.00,100.79
1135.00,100.68
1134.00,100.58
1133.00,100.51
1132.00,100.49
1131.00,100.50
1130.00,100.53
1129.00,100.58
1128.00,100.63
1127.00,100.69
1126.00,100.75
1125.00,100.80
1124.00,100.84
1123.00,100.86
1122.00,100.87
1121.00,100.89
1120.00,100.90
1119.00,100.88
1118.00,100.82
1117.00,100.75
1116.00,100.69
1115.00,100.64
1114.00,100.61
1113.00,100.57
1112.00,100.50
1111.00,100.40
1110.00,100.30
1109.00,100.21
1108.00,100.14
1107.00,100.08
1106.00,100.01
1105.00,99.90
1104.00,99.77
1103.00,99.64
1102.00,99.52
1101.00,99.42
1100.00,99.33
1099.00,99.23
1098.00,99.12
1097.00,98.99
1096.00,98.86
1095.00,98.74
1094.00,98.64
1093.00,98.53
1092.00,98.42
1091.00,98.33
1090.00,98.25
1089.00,98.17
1088.00,98.08
1087.00,97.98
1086.00,97.88
1085.00,97.79
1084.00,97.72
1083.00,97.67
1082.00,97.62
1081.00,97.57
1080.00,97.51
1079.00,97.44
1078.00,97.38
1077.00,97.32
1076.00,97.26
1075.00,97.22
1074.00,97.21
1073.00,97.22
1072.00,97.22
1071.00,97.20
1070.00,97.16
1069.00,97.14
1068.00,97.13
1067.00,97.14
1066.00,97.16
1065.00,97.17
1064.00,97.19
1063.00,97.22
1062.00,97.27
1061.00,97.32
1060.00,97.35
1059.00,97.37
1058.00,97.40
1057.00,97.46
1056.00,97.53
1055.00,97.62
1054.00,97.71
1053.00,97.80
1052.00,97.88
1051.00,97.96
1050.00,98.03
1049.00,98.08
1048.00,98.13
1047.00,98.17
1046.00,98.21
1045.00,98.25
1044.00,98.31
1043.00,98.37
1042.00,98.42
1041.00,98.47
1040.00,98.53
1039.00,98.61
1038.00,98.71
1037.00,98.83
1036.00,98.94
1035.00,99.04
1034.00,99.15
1033.00,99.25
1032.00,99.35
1031.00,99.43
1030.00,99.50
1029.00,99.54
1028.00,99.56
1027.00,99.59
1026.00,99.64
1025.00,99.72
1024.00,99.81
1023.00,99.88
1022.00,99.93
1021.00,99.95
1020.00,99.95
1019.00,99.97
1018.00,100.00
1017.00,100.07
1016.00,100.16
1015.00,100.24
1014.00,100.29
1013.00,100.30
1012.00,100.30
1011.00,100.30
1010.00,100.31
1009.00,100.34
1008.00,100.36
1007.00,100.38
1006.00,100.41
1005.00,100.44
1004.00,100.51
1003.00,100.58
1002.00,100.63
1001.00,100.66
1000.00,100.67
999.00,100.66
998.00,100.65
997.00,100.65
996.00,100.66
995.00,100.68
994.00,100.68
993.00,100.68
992.00,100.67
991.00,100.65
990.00,100.66
989.00,100.69
988.00,100.72
987.00,100.75
986.00,100.75
985.00,100.75
984.00,100.75
983.00,100.76
982.00,100.77
981.00,100.78
980.00,100.77
979.00,100.77
978.00,100.77
977.00,100.77
976.00,100.78
975.00,100.80
974.00,100.82
973.00,100.85
972.00,100.89
971.00,100.94
970.00,100.98
969.00,101.01
968.00,101.02
967.00,101.02
966.00,101.03
965.00,101.05
964.00,101.07
963.00,101.07
962.00,101.06
961.00,101.05
960.00,101.05
959.00,101.07
958.00,101.10
957.00,101.14
956.00,101.17
955.00,101.19
954.00,101.21
953.00,101.23
952.00,101.23
951.00,101.22
950.00,101.20
949.00,101.19
948.00,101.19
947.00,101.19
946.00,101.19
945.00,101.18
944.00,101.17
943.00,101.17
942.00,101.17
941.00,101.17
940.00,101.19
939.00,101.22
938.00,101.24
937.00,101.24
936.00,101.23
935.00,101.21
934.00,101.19
933.00,101.19
932.00,101.19
931.00,101.19
930.00,101.19
929.00,101.18
928.00,101.17
927.00,101.15
926.00,101.13
925.00,101.13
924.00,101.16
923.00,101.21
922.00,101.24
921.00,101.27
920.00,101.29
919.00,101.32
918.00,101.34
917.00,101.34
916.00,101.35
915.00,101.35
914.00,101.37
913.00,101.39
912.00,101.42
911.00,101.46
910.00,101.50
909.00,101.51
908.00,101.52
907.00,101.51
906.00,101.51
905.00,101.53
904.00,101.57
903.00,101.63
902.00,101.69
901.00,101.75
900.00,101.78
899.00,101.79
898.00,101.78
897.00,101.76
896.00,101.76
895.00,101.76
894.00,101.76
893.00,101.75
892.00,101.75
891.00,101.77
890.00,101.80
889.00,101.82
888.00,101.82
887.00,101.80
886.00,101.78
885.00,101.77
884.00,101.75
883.00,101.76
882.00,101.78
881.00,101.82
880.00,101.85
879.00,101.87
878.00,101.89
877.00,101.92
876.00,101.97
875.00,102.04
874.00,102.11
873.00,102.17
872.00,102.21
871.00,102.22
870.00,102.23
869.00,102.25
868.00,102.29
867.00,102.35
866.00,102.42
865.00,102.49
864.00,102.52
863.00,102.52
862.00,102.50
861.00,102.47
860.00,102.46
859.00,102.48
858.00,102.50
857.00,102.53
856.00,102.57
855.00,102.62
854.00,102.68
853.00,102.71
852.00,102.72
851.00,102.70
850.00,102.68
849.00,102.67
848.00,102.66
847.00,102.66
846.00,102.64
845.00,102.61
844.00,102.55
843.00,102.49
842.00,102.44
841.00,102.40
840.00,102.37
839.00,102.36
838.00,102.37
837.00,102.41
836.00,102.44
835.00,102.45
834.00,102.45
833.00,102.47
832.00,102.51
831.00,102.56
830.00,102.60
829.00,102.64
828.00,102.68
827.00,102.71
826.00,102.71
825.00,102.69
824.00,102.68
823.00,102.68
822.00,102.69
821.00,102.69
820.00,102.66
819.00,102.62
818.00,102.60
817.00,102.62
816.00,102.67
815.00,102.72
814.00,102.75
813.00,102.76
812.00,102.75
811.00,102.73
810.00,102.67
809.00,102.60
808.00,102.55
807.00,102.54
806.00,102.58
805.00,102.62
804.00,102.64
803.00,102.65
802.00,102.65
801.00,102.64
800.00,102.63
799.00,102.61
798.00,102.59
797.00,102.58
796.00,102.59
795.00,102.61
794.00,102.62
793.00,102.64
792.00,102.68
791.00,102.72
790.00,102.76
789.00,102.76
788.00,102.73
787.00,102.69
786.00,102.66
785.00,102.65
784.00,102.66
783.00,102.66
782.00,102.66
781.00,102.64
780.00,102.64
779.00,102.66
778.00,102.70
777.00,102.72
776.00,102.71
775.00,102.69
774.00,102.67
773.00,102.66
772.00,102.66
771.00,102.65
770.00,102.64
769.00,102.62
768.00,102.61
767.00,102.60
766.00,102.58
765.00,102.56
764.00,102.53
763.00,102.52
762.00,102.52
761.00,102.52
760.00,102.49
759.00,102.43
758.00,102.38
757.00,102.35
756.00,102.35
755.00,102.36
754.00,102.35
753.00,102.32
752.00,102.30
751.00,102.28
750.00,102.26
749.00,102.22
748.00,102.17
747.00,102.13
746.00,102.08
745.00,102.02
744.00,101.96
743.00,101.91
742.00,101.91
741.00,101.93
740.00,101.95
739.00,101.94
738.00,101.90
737.00,101.85
736.00,101.84
735.00,101.86
734.00,101.87
733.00,101.81
732.00,101.71
731.00,101.61
730.00,101.55
729.00,101.49
728.00,101.38
727.00,101.25
726.00,101.15
725.00,101.08
724.00,101.04
723.00,100.98
722.00,100.89
721.00,100.78
720.00,100.66
719.00,100.56
718.00,100.50
717.00,100.47
716.00,100.45
715.00,100.44
714.00,100.43
713.00,100.43
712.00,100.44
711.00,100.45
710.00,100.46
709.00,100.45
708.00,100.43
707.00,100.38
706.00,100.33
705.00,100.29
704.00,100.25
703.00,100.24
702.00,100.27
701.00,100.34
700.00,100.42
699.00,100.49
698.00,100.53
697.00,100.53
696.00,100.49
695.00,100.46
694.00,100.45
693.00,100.48
692.00,100.52
691.00,100.53
690.00,100.49
689.00,100.44
688.00,100.39
687.00,100.35
686.00,100.30
685.00,100.21
684.00,100.07
683.00,99.91
682.00,99.76
681.00,99.61
680.00,99.44
679.00,99.26
678.00,99.13
677.00,99.06
676.00,99.04
675.00,99.05
674.00,99.05
673.00,99.03
672.00,98.96
671.00,98.84
670.00,98.63
669.00,98.33
668.00,98.04
667.00,97.95
666.00,98.03
665.00,98.12
664.00,98.13
663.00,98.06
662.00,97.92
661.00,97.74
660.00,97.56
659.00,97.41
658.00,97.29
657.00,97.19
656.00,97.10
655.00,97.02
654.00,96.99
653.00,97.03
652.00,97.08
651.00,97.07
650.00,96.97
649.00,96.81
648.00,96.66
647.00,96.59
646.00,96.60
645.00,96.64
644.00,96.70
643.00,96.76
642.00,96.81
641.00,96.81
640.00,96.74
639.00,96.67
638.00,96.69
637.00,96.83
636.00,97.05
635.00,97.21
634.00,97.23
633.00,97.10
632.00,96.99
631.00,97.07
630.00,97.36
629.00,97.72
628.00,97.93
627.00,97.90
626.00,97.70
625.00,97.50
624.00,97.45
623.00,97.59
622.00,97.83
621.00,97.98
620.00,97.93
619.00,97.73
618.00,97.52
617.00,97.36
616.00,97.26
615.00,97.28
614.00,97.48
613.00,97.76
612.00,97.94
611.00,97.89
610.00,97.67
609.00,97.48
608.00,97.45
607.00,97.57
606.00,97.76
605.00,97.95
604.00,98.13
603.00,98.25
602.00,98.24
601.00,98.08
600.00,97.92
599.00,97.95
598.00,98.17
597.00,98.40
596.00,98.47
595.00,98.43
594.00,98.50
593.00,98.71
592.00,98.84
591.00,98.62
590.00,98.10
589.00,97.68
588.00,97.70
587.00,98.13
586.00,98.68
585.00,99.15
584.00,99.56
583.00,99.90
582.00,100.01
581.00,99.83
580.00,99.58
579.00,99.51
578.00,99.52
577.00,99.24
576.00,98.52
575.00,97.62
574.00,96.98
573.00,96.86
572.00,97.30
571.00,98.18
570.00,99.01
569.00,99.25
568.00,98.79
567.00,98.06
566.00,97.49
565.00,97.15
564.00,96.99
563.00,97.15
562.00,97.69
561.00,98.39
560.00,98.88
559.00,99.03
558.00,98.95
557.00,98.83
556.00,98.74
555.00,98.63
554.00,98.47
553.00,98.33
552.00,98.45
551.00,99.00
550.00,99.69
