Created as New Dataset,61 Monsanto
cm-1,%T
4000.00,100.85
3999.00,100.85
3998.00,100.84
3997.00,100.83
3996.00,100.80
3995.00,100.78
3994.00,100.77
3993.00,100.76
3992.00,100.76
3991.00,100.76
3990.00,100.76
3989.00,100.78
3988.00,100.79
3987.00,100.80
3986.00,100.81
3985.00,100.81
3984.00,100.79
3983.00,100.78
3982.00,100.77
3981.00,100.76
3980.00,100.75
3979.00,100.74
3978.00,100.73
3977.00,100.74
3976.00,100.76
3975.00,100.77
3974.00,100.77
3973.00,100.78
3972.00,100.78
3971.00,100.80
3970.00,100.82
3969.00,100.83
3968.00,100.84
3967.00,100.84
3966.00,100.85
3965.00,100.84
3964.00,100.81
3963.00,100.78
3962.00,100.77
3961.00,100.77
3960.00,100.79
3959.00,100.81
3958.00,100.81
3957.00,100.80
3956.00,100.80
3955.00,100.81
3954.00,100.82
3953.00,100.83
3952.00,100.84
3951.00,100.83
3950.00,100.82
3949.00,100.80
3948.00,100.78
3947.00,100.77
3946.00,100.78
3945.00,100.79
3944.00,100.79
3943.00,100.79
3942.00,100.78
3941.00,100.77
3940.00,100.76
3939.00,100.76
3938.00,100.77
3937.00,100.79
3936.00,100.80
3935.00,100.80
3934.00,100.81
3933.00,100.80
3932.00,100.79
3931.00,100.78
3930.00,100.76
3929.00,100.76
3928.00,100.76
3927.00,100.77
3926.00,100.77
3925.00,100.76
3924.00,100.75
3923.00,100.73
3922.00,100.71
3921.00,100.69
3920.00,100.69
3919.00,100.69
3918.00,100.71
3917.00,100.73
3916.00,100.76
3915.00,100.78
3914.00,100.79
3913.00,100.79
3912.00,100.79
3911.00,100.79
3910.00,100.79
3909.00,100.77
3908.00,100.76
3907.00,100.74
3906.00,100.72
3905.00,100.72
3904.00,100.73
3903.00,100.75
3902.00,100.75
3901.00,100.74
3900.00,100.72
3899.00,100.72
3898.00,100.74
3897.00,100.76
3896.00,100.78
3895.00,100.80
3894.00,100.80
3893.00,100.81
3892.00,100.81
3891.00,100.81
3890.00,100.81
3889.00,100.79
3888.00,100.76
3887.00,100.74
3886.00,100.73
3885.00,100.74
3884.00,100.74
3883.00,100.73
3882.00,100.71
3881.00,100.70
3880.00,100.69
3879.00,100.69
3878.00,100.68
3877.00,100.68
3876.00,100.68
3875.00,100.70
3874.00,100.72
3873.00,100.73
3872.00,100.73
3871.00,100.72
3870.00,100.72
3869.00,100.72
3868.00,100.71
3867.00,100.70
3866.00,100.69
3865.00,100.69
3864.00,100.71
3863.00,100.73
3862.00,100.75
3861.00,100.77
3860.00,100.79
3859.00,100.80
3858.00,100.79
3857.00,100.77
3856.00,100.73
3855.00,100.69
3854.00,100.67
3853.00,100.67
3852.00,100.67
3851.00,100.66
3850.00,100.66
3849.00,100.68
3848.00,100.71
3847.00,100.73
3846.00,100.74
3845.00,100.76
3844.00,100.77
3843.00,100.78
3842.00,100.78
3841.00,100.75
3840.00,100.71
3839.00,100.66
3838.00,100.63
3837.00,100.61
3836.00,100.61
3835.00,100.61
3834.00,100.63
3833.00,100.65
3832.00,100.68
3831.00,100.71
3830.00,100.74
3829.00,100.75
3828.00,100.75
3827.00,100.75
3826.00,100.75
3825.00,100.75
3824.00,100.73
3823.00,100.69
3822.00,100.66
3821.00,100.64
3820.00,100.62
3819.00,100.60
3818.00,100.58
3817.00,100.58
3816.00,100.61
3815.00,100.63
3814.00,100.65
3813.00,100.65
3812.00,100.67
3811.00,100.70
3810.00,100.71
3809.00,100.71
3808.00,100.70
3807.00,100.69
3806.00,100.69
3805.00,100.68
3804.00,100.65
3803.00,100.63
3802.00,100.62
3801.00,100.63
3800.00,100.64
3799.00,100.64
3798.00,100.63
3797.00,100.64
3796.00,100.66
3795.00,100.69
3794.00,100.71
3793.00,100.72
3792.00,100.72
3791.00,100.72
3790.00,100.73
3789.00,100.75
3788.00,100.78
3787.00,100.79
3786.00,100.78
3785.00,100.76
3784.00,100.74
3783.00,100.71
3782.00,100.69
3781.00,100.67
3780.00,100.67
3779.00,100.69
3778.00,100.72
3777.00,100.73
3776.00,100.72
3775.00,100.71
3774.00,100.71
3773.00,100.71
3772.00,100.71
3771.00,100.72
3770.00,100.73
3769.00,100.73
3768.00,100.72
3767.00,100.70
3766.00,100.70
3765.00,100.71
3764.00,100.73
3763.00,100.73
3762.00,100.73
3761.00,100.71
3760.00,100.71
3759.00,100.71
3758.00,100.70
3757.00,100.70
3756.00,100.69
3755.00,100.68
3754.00,100.68
3753.00,100.67
3752.00,100.65
3751.00,100.63
3750.00,100.61
3749.00,100.59
3748.00,100.58
3747.00,100.56
3746.00,100.55
3745.00,100.56
3744.00,100.57
3743.00,100.57
3742.00,100.55
3741.00,100.54
3740.00,100.56
3739.00,100.60
3738.00,100.63
3737.00,100.62
3736.00,100.59
3735.00,100.57
3734.00,100.56
3733.00,100.57
3732.00,100.61
3731.00,100.65
3730.00,100.69
3729.00,100.71
3728.00,100.72
3727.00,100.71
3726.00,100.69
3725.00,100.66
3724.00,100.63
3723.00,100.61
3722.00,100.61
3721.00,100.63
3720.00,100.64
3719.00,100.64
3718.00,100.64
3717.00,100.62
3716.00,100.60
3715.00,100.58
3714.00,100.56
3713.00,100.55
3712.00,100.54
3711.00,100.55
3710.00,100.57
3709.00,100.61
3708.00,100.63
3707.00,100.65
3706.00,100.66
3705.00,100.66
3704.00,100.67
3703.00,100.68
3702.00,100.69
3701.00,100.70
3700.00,100.70
3699.00,100.69
3698.00,100.69
3697.00,100.68
3696.00,100.67
3695.00,100.66
3694.00,100.65
3693.00,100.66
3692.00,100.66
3691.00,100.66
3690.00,100.63
3689.00,100.61
3688.00,100.62
3687.00,100.64
3686.00,100.66
3685.00,100.65
3684.00,100.64
3683.00,100.63
3682.00,100.63
3681.00,100.63
3680.00,100.64
3679.00,100.65
3678.00,100.67
3677.00,100.67
3676.00,100.65
3675.00,100.63
3674.00,100.58
3673.00,100.54
3672.00,100.51
3671.00,100.52
3670.00,100.56
3669.00,100.60
3668.00,100.62
3667.00,100.62
3666.00,100.61
3665.00,100.60
3664.00,100.60
3663.00,100.62
3662.00,100.64
3661.00,100.66
3660.00,100.66
3659.00,100.63
3658.00,100.60
3657.00,100.58
3656.00,100.60
3655.00,100.62
3654.00,100.63
3653.00,100.61
3652.00,100.56
3651.00,100.51
3650.00,100.47
3649.00,100.48
3648.00,100.52
3647.00,100.57
3646.00,100.59
3645.00,100.60
3644.00,100.62
3643.00,100.64
3642.00,100.66
3641.00,100.68
3640.00,100.68
3639.00,100.67
3638.00,100.67
3637.00,100.67
3636.00,100.66
3635.00,100.65
3634.00,100.64
3633.00,100.62
3632.00,100.61
3631.00,100.59
3630.00,100.58
3629.00,100.58
3628.00,100.57
3627.00,100.57
3626.00,100.58
3625.00,100.61
3624.00,100.66
3623.00,100.69
3622.00,100.69
3621.00,100.65
3620.00,100.61
3619.00,100.59
3618.00,100.59
3617.00,100.59
3616.00,100.59
3615.00,100.57
3614.00,100.55
3613.00,100.55
3612.00,100.55
3611.00,100.55
3610.00,100.56
3609.00,100.57
3608.00,100.57
3607.00,100.58
3606.00,100.58
3605.00,100.59
3604.00,100.60
3603.00,100.60
3602.00,100.59
3601.00,100.60
3600.00,100.60
3599.00,100.60
3598.00,100.59
3597.00,100.58
3596.00,100.58
3595.00,100.59
3594.00,100.62
3593.00,100.63
3592.00,100.61
3591.00,100.59
3590.00,100.57
3589.00,100.57
3588.00,100.58
3587.00,100.57
3586.00,100.57
3585.00,100.57
3584.00,100.59
3583.00,100.60
3582.00,100.61
3581.00,100.62
3580.00,100.64
3579.00,100.66
3578.00,100.68
3577.00,100.68
3576.00,100.68
3575.00,100.67
3574.00,100.66
3573.00,100.65
3572.00,100.63
3571.00,100.61
3570.00,100.59
3569.00,100.58
3568.00,100.58
3567.00,100.58
3566.00,100.58
3565.00,100.56
3564.00,100.56
3563.00,100.56
3562.00,100.59
3561.00,100.63
3560.00,100.66
3559.00,100.68
3558.00,100.68
3557.00,100.66
3556.00,100.65
3555.00,100.64
3554.00,100.63
3553.00,100.61
3552.00,100.58
3551.00,100.57
3550.00,100.57
3549.00,100.58
3548.00,100.58
3547.00,100.58
3546.00,100.57
3545.00,100.57
3544.00,100.58
3543.00,100.60
3542.00,100.62
3541.00,100.63
3540.00,100.63
3539.00,100.62
3538.00,100.61
3537.00,100.60
3536.00,100.60
3535.00,100.61
3534.00,100.61
3533.00,100.61
3532.00,100.61
3531.00,100.62
3530.00,100.62
3529.00,100.62
3528.00,100.63
3527.00,100.64
3526.00,100.66
3525.00,100.67
3524.00,100.66
3523.00,100.64
3522.00,100.62
3521.00,100.61
3520.00,100.60
3519.00,100.61
3518.00,100.62
3517.00,100.63
3516.00,100.64
3515.00,100.64
3514.00,100.64
3513.00,100.63
3512.00,100.63
3511.00,100.63
3510.00,100.64
3509.00,100.64
3508.00,100.64
3507.00,100.64
3506.00,100.63
3505.00,100.63
3504.00,100.63
3503.00,100.64
3502.00,100.66
3501.00,100.68
3500.00,100.70
3499.00,100.71
3498.00,100.71
3497.00,100.70
3496.00,100.69
3495.00,100.68
3494.00,100.66
3493.00,100.64
3492.00,100.63
3491.00,100.63
3490.00,100.64
3489.00,100.66
3488.00,100.67
3487.00,100.68
3486.00,100.68
3485.00,100.69
3484.00,100.69
3483.00,100.68
3482.00,100.66
3481.00,100.65
3480.00,100.65
3479.00,100.66
3478.00,100.67
3477.00,100.69
3476.00,100.70
3475.00,100.71
3474.00,100.71
3473.00,100.71
3472.00,100.70
3471.00,100.69
3470.00,100.68
3469.00,100.66
3468.00,100.65
3467.00,100.63
3466.00,100.61
3465.00,100.59
3464.00,100.58
3463.00,100.58
3462.00,100.59
3461.00,100.61
3460.00,100.65
3459.00,100.68
3458.00,100.70
3457.00,100.71
3456.00,100.70
3455.00,100.69
3454.00,100.68
3453.00,100.67
3452.00,100.66
3451.00,100.65
3450.00,100.64
3449.00,100.64
3448.00,100.66
3447.00,100.69
3446.00,100.72
3445.00,100.73
3444.00,100.72
3443.00,100.70
3442.00,100.67
3441.00,100.66
3440.00,100.66
3439.00,100.67
3438.00,100.67
3437.00,100.66
3436.00,100.64
3435.00,100.63
3434.00,100.63
3433.00,100.64
3432.00,100.66
3431.00,100.68
3430.00,100.69
3429.00,100.70
3428.00,100.70
3427.00,100.70
3426.00,100.70
3425.00,100.69
3424.00,100.67
3423.00,100.65
3422.00,100.63
3421.00,100.62
3420.00,100.63
3419.00,100.65
3418.00,100.66
3417.00,100.67
3416.00,100.68
3415.00,100.68
3414.00,100.67
3413.00,100.67
3412.00,100.67
3411.00,100.67
3410.00,100.68
3409.00,100.68
3408.00,100.68
3407.00,100.68
3406.00,100.67
3405.00,100.66
3404.00,100.64
3403.00,100.64
3402.00,100.66
3401.00,100.69
3400.00,100.72
3399.00,100.74
3398.00,100.74
3397.00,100.73
3396.00,100.71
3395.00,100.69
3394.00,100.68
3393.00,100.67
3392.00,100.67
3391.00,100.67
3390.00,100.68
3389.00,100.68
3388.00,100.69
3387.00,100.69
3386.00,100.70
3385.00,100.70
3384.00,100.71
3383.00,100.70
3382.00,100.69
3381.00,100.67
3380.00,100.66
3379.00,100.66
3378.00,100.66
3377.00,100.66
3376.00,100.66
3375.00,100.66
3374.00,100.65
3373.00,100.65
3372.00,100.66
3371.00,100.66
3370.00,100.65
3369.00,100.64
3368.00,100.62
3367.00,100.62
3366.00,100.63
3365.00,100.65
3364.00,100.67
3363.00,100.68
3362.00,100.68
3361.00,100.67
3360.00,100.66
3359.00,100.65
3358.00,100.63
3357.00,100.63
3356.00,100.63
3355.00,100.65
3354.00,100.66
3353.00,100.67
3352.00,100.66
3351.00,100.63
3350.00,100.60
3349.00,100.58
3348.00,100.58
3347.00,100.58
3346.00,100.60
3345.00,100.61
3344.00,100.61
3343.00,100.61
3342.00,100.62
3341.00,100.63
3340.00,100.64
3339.00,100.64
3338.00,100.64
3337.00,100.63
3336.00,100.62
3335.00,100.61
3334.00,100.61
3333.00,100.62
3332.00,100.63
3331.00,100.66
3330.00,100.69
3329.00,100.70
3328.00,100.71
3327.00,100.72
3326.00,100.71
3325.00,100.70
3324.00,100.68
3323.00,100.66
3322.00,100.65
3321.00,100.67
3320.00,100.69
3319.00,100.70
3318.00,100.69
3317.00,100.68
3316.00,100.68
3315.00,100.69
3314.00,100.69
3313.00,100.67
3312.00,100.65
3311.00,100.62
3310.00,100.60
3309.00,100.60
3308.00,100.62
3307.00,100.66
3306.00,100.70
3305.00,100.72
3304.00,100.71
3303.00,100.69
3302.00,100.67
3301.00,100.67
3300.00,100.67
3299.00,100.68
3298.00,100.67
3297.00,100.65
3296.00,100.63
3295.00,100.62
3294.00,100.62
3293.00,100.63
3292.00,100.64
3291.00,100.65
3290.00,100.66
3289.00,100.67
3288.00,100.67
3287.00,100.67
3286.00,100.67
3285.00,100.67
3284.00,100.68
3283.00,100.70
3282.00,100.71
3281.00,100.72
3280.00,100.72
3279.00,100.71
3278.00,100.69
3277.00,100.68
3276.00,100.68
3275.00,100.68
3274.00,100.67
3273.00,100.65
3272.00,100.64
3271.00,100.65
3270.00,100.65
3269.00,100.65
3268.00,100.65
3267.00,100.65
3266.00,100.66
3265.00,100.66
3264.00,100.67
3263.00,100.67
3262.00,100.67
3261.00,100.65
3260.00,100.64
3259.00,100.63
3258.00,100.63
3257.00,100.63
3256.00,100.63
3255.00,100.62
3254.00,100.62
3253.00,100.62
3252.00,100.62
3251.00,100.63
3250.00,100.64
3249.00,100.65
3248.00,100.66
3247.00,100.67
3246.00,100.68
3245.00,100.69
3244.00,100.71
3243.00,100.71
3242.00,100.71
3241.00,100.68
3240.00,100.66
3239.00,100.65
3238.00,100.65
3237.00,100.66
3236.00,100.66
3235.00,100.67
3234.00,100.67
3233.00,100.68
3232.00,100.67
3231.00,100.66
3230.00,100.65
3229.00,100.63
3228.00,100.63
3227.00,100.65
3226.00,100.68
3225.00,100.70
3224.00,100.71
3223.00,100.70
3222.00,100.68
3221.00,100.67
3220.00,100.66
3219.00,100.67
3218.00,100.68
3217.00,100.69
3216.00,100.68
3215.00,100.67
3214.00,100.67
3213.00,100.67
3212.00,100.67
3211.00,100.67
3210.00,100.66
3209.00,100.64
3208.00,100.62
3207.00,100.61
3206.00,100.62
3205.00,100.63
3204.00,100.64
3203.00,100.64
3202.00,100.63
3201.00,100.63
3200.00,100.63
3199.00,100.62
3198.00,100.63
3197.00,100.65
3196.00,100.66
3195.00,100.68
3194.00,100.68
3193.00,100.67
3192.00,100.66
3191.00,100.66
3190.00,100.67
3189.00,100.67
3188.00,100.66
3187.00,100.65
3186.00,100.65
3185.00,100.66
3184.00,100.66
3183.00,100.65
3182.00,100.64
3181.00,100.64
3180.00,100.65
3179.00,100.67
3178.00,100.67
3177.00,100.67
3176.00,100.66
3175.00,100.66
3174.00,100.67
3173.00,100.69
3172.00,100.69
3171.00,100.69
3170.00,100.67
3169.00,100.66
3168.00,100.66
3167.00,100.66
3166.00,100.68
3165.00,100.69
3164.00,100.68
3163.00,100.67
3162.00,100.66
3161.00,100.65
3160.00,100.65
3159.00,100.65
3158.00,100.66
3157.00,100.66
3156.00,100.67
3155.00,100.67
3154.00,100.67
3153.00,100.67
3152.00,100.65
3151.00,100.63
3150.00,100.62
3149.00,100.63
3148.00,100.66
3147.00,100.69
3146.00,100.70
3145.00,100.70
3144.00,100.69
3143.00,100.69
3142.00,100.69
3141.00,100.69
3140.00,100.69
3139.00,100.68
3138.00,100.67
3137.00,100.66
3136.00,100.66
3135.00,100.66
3134.00,100.67
3133.00,100.67
3132.00,100.67
3131.00,100.67
3130.00,100.67
3129.00,100.65
3128.00,100.64
3127.00,100.63
3126.00,100.63
3125.00,100.63
3124.00,100.64
3123.00,100.65
3122.00,100.66
3121.00,100.66
3120.00,100.67
3119.00,100.68
3118.00,100.68
3117.00,100.67
3116.00,100.65
3115.00,100.64
3114.00,100.64
3113.00,100.65
3112.00,100.66
3111.00,100.67
3110.00,100.66
3109.00,100.65
3108.00,100.64
3107.00,100.63
3106.00,100.63
3105.00,100.63
3104.00,100.64
3103.00,100.64
3102.00,100.65
3101.00,100.66
3100.00,100.67
3099.00,100.66
3098.00,100.65
3097.00,100.65
3096.00,100.65
3095.00,100.66
3094.00,100.66
3093.00,100.66
3092.00,100.66
3091.00,100.66
3090.00,100.68
3089.00,100.71
3088.00,100.72
3087.00,100.72
3086.00,100.70
3085.00,100.67
3084.00,100.65
3083.00,100.65
3082.00,100.67
3081.00,100.69
3080.00,100.71
3079.00,100.74
3078.00,100.75
3077.00,100.76
3076.00,100.76
3075.00,100.75
3074.00,100.73
3073.00,100.70
3072.00,100.68
3071.00,100.67
3070.00,100.66
3069.00,100.67
3068.00,100.67
3067.00,100.67
3066.00,100.68
3065.00,100.67
3064.00,100.67
3063.00,100.66
3062.00,100.66
3061.00,100.66
3060.00,100.67
3059.00,100.68
3058.00,100.68
3057.00,100.68
3056.00,100.66
3055.00,100.66
3054.00,100.66
3053.00,100.67
3052.00,100.68
3051.00,100.69
3050.00,100.69
3049.00,100.69
3048.00,100.71
3047.00,100.72
3046.00,100.73
3045.00,100.72
3044.00,100.70
3043.00,100.68
3042.00,100.66
3041.00,100.65
3040.00,100.64
3039.00,100.64
3038.00,100.65
3037.00,100.66
3036.00,100.68
3035.00,100.69
3034.00,100.70
3033.00,100.70
3032.00,100.69
3031.00,100.68
3030.00,100.67
3029.00,100.66
3028.00,100.66
3027.00,100.67
3026.00,100.69
3025.00,100.69
3024.00,100.69
3023.00,100.68
3022.00,100.67
3021.00,100.66
3020.00,100.65
3019.00,100.65
3018.00,100.65
3017.00,100.64
3016.00,100.64
3015.00,100.65
3014.00,100.65
3013.00,100.66
3012.00,100.66
3011.00,100.66
3010.00,100.67
3009.00,100.68
3008.00,100.68
3007.00,100.68
3006.00,100.67
3005.00,100.67
3004.00,100.66
3003.00,100.66
3002.00,100.67
3001.00,100.67
3000.00,100.68
2999.00,100.69
2998.00,100.68
2997.00,100.67
2996.00,100.66
2995.00,100.65
2994.00,100.65
2993.00,100.66
2992.00,100.68
2991.00,100.69
2990.00,100.69
2989.00,100.70
2988.00,100.70
2987.00,100.69
2986.00,100.67
2985.00,100.64
2984.00,100.63
2983.00,100.62
2982.00,100.62
2981.00,100.64
2980.00,100.65
2979.00,100.67
2978.00,100.67
2977.00,100.66
2976.00,100.64
2975.00,100.64
2974.00,100.63
2973.00,100.63
2972.00,100.62
2971.00,100.62
2970.00,100.63
2969.00,100.64
2968.00,100.63
2967.00,100.62
2966.00,100.60
2965.00,100.60
2964.00,100.60
2963.00,100.62
2962.00,100.65
2961.00,100.66
2960.00,100.66
2959.00,100.66
2958.00,100.67
2957.00,100.67
2956.00,100.67
2955.00,100.66
2954.00,100.63
2953.00,100.60
2952.00,100.57
2951.00,100.56
2950.00,100.56
2949.00,100.57
2948.00,100.58
2947.00,100.58
2946.00,100.58
2945.00,100.57
2944.00,100.56
2943.00,100.56
2942.00,100.58
2941.00,100.58
2940.00,100.57
2939.00,100.54
2938.00,100.51
2937.00,100.50
2936.00,100.51
2935.00,100.53
2934.00,100.54
2933.00,100.54
2932.00,100.53
2931.00,100.53
2930.00,100.53
2929.00,100.54
2928.00,100.55
2927.00,100.55
2926.00,100.55
2925.00,100.55
2924.00,100.55
2923.00,100.56
2922.00,100.57
2921.00,100.57
2920.00,100.57
2919.00,100.57
2918.00,100.56
2917.00,100.55
2916.00,100.54
2915.00,100.55
2914.00,100.57
2913.00,100.59
2912.00,100.60
2911.00,100.59
2910.00,100.58
2909.00,100.57
2908.00,100.58
2907.00,100.61
2906.00,100.63
2905.00,100.64
2904.00,100.62
2903.00,100.60
2902.00,100.58
2901.00,100.58
2900.00,100.60
2899.00,100.62
2898.00,100.64
2897.00,100.64
2896.00,100.62
2895.00,100.60
2894.00,100.58
2893.00,100.57
2892.00,100.58
2891.00,100.59
2890.00,100.60
2889.00,100.62
2888.00,100.63
2887.00,100.63
2886.00,100.63
2885.00,100.61
2884.00,100.59
2883.00,100.59
2882.00,100.60
2881.00,100.63
2880.00,100.65
2879.00,100.65
2878.00,100.64
2877.00,100.63
2876.00,100.62
2875.00,100.61
2874.00,100.60
2873.00,100.59
2872.00,100.60
2871.00,100.60
2870.00,100.62
2869.00,100.63
2868.00,100.65
2867.00,100.66
2866.00,100.67
2865.00,100.68
2864.00,100.68
2863.00,100.67
2862.00,100.66
2861.00,100.64
2860.00,100.62
2859.00,100.62
2858.00,100.63
2857.00,100.63
2856.00,100.64
2855.00,100.63
2854.00,100.63
2853.00,100.62
2852.00,100.62
2851.00,100.62
2850.00,100.64
2849.00,100.66
2848.00,100.67
2847.00,100.68
2846.00,100.69
2845.00,100.69
2844.00,100.69
2843.00,100.68
2842.00,100.65
2841.00,100.63
2840.00,100.61
2839.00,100.61
2838.00,100.63
2837.00,100.66
2836.00,100.69
2835.00,100.70
2834.00,100.69
2833.00,100.69
2832.00,100.70
2831.00,100.71
2830.00,100.71
2829.00,100.71
2828.00,100.70
2827.00,100.68
2826.00,100.68
2825.00,100.68
2824.00,100.69
2823.00,100.70
2822.00,100.70
2821.00,100.70
2820.00,100.69
2819.00,100.68
2818.00,100.68
2817.00,100.69
2816.00,100.70
2815.00,100.71
2814.00,100.73
2813.00,100.74
2812.00,100.75
2811.00,100.73
2810.00,100.71
2809.00,100.69
2808.00,100.67
2807.00,100.66
2806.00,100.66
2805.00,100.67
2804.00,100.68
2803.00,100.69
2802.00,100.70
2801.00,100.70
2800.00,100.70
2799.00,100.70
2798.00,100.69
2797.00,100.69
2796.00,100.70
2795.00,100.70
2794.00,100.70
2793.00,100.70
2792.00,100.69
2791.00,100.68
2790.00,100.68
2789.00,100.69
2788.00,100.71
2787.00,100.72
2786.00,100.72
2785.00,100.72
2784.00,100.72
2783.00,100.73
2782.00,100.73
2781.00,100.72
2780.00,100.71
2779.00,100.70
2778.00,100.71
2777.00,100.72
2776.00,100.74
2775.00,100.74
2774.00,100.73
2773.00,100.72
2772.00,100.71
2771.00,100.70
2770.00,100.70
2769.00,100.72
2768.00,100.73
2767.00,100.74
2766.00,100.74
2765.00,100.74
2764.00,100.73
2763.00,100.73
2762.00,100.73
2761.00,100.72
2760.00,100.72
2759.00,100.72
2758.00,100.73
2757.00,100.73
2756.00,100.72
2755.00,100.71
2754.00,100.70
2753.00,100.69
2752.00,100.70
2751.00,100.71
2750.00,100.71
2749.00,100.72
2748.00,100.72
2747.00,100.72
2746.00,100.73
2745.00,100.73
2744.00,100.73
2743.00,100.73
2742.00,100.71
2741.00,100.69
2740.00,100.69
2739.00,100.68
2738.00,100.68
2737.00,100.69
2736.00,100.70
2735.00,100.71
2734.00,100.72
2733.00,100.72
2732.00,100.71
2731.00,100.69
2730.00,100.68
2729.00,100.68
2728.00,100.68
2727.00,100.69
2726.00,100.70
2725.00,100.70
2724.00,100.71
2723.00,100.72
2722.00,100.73
2721.00,100.73
2720.00,100.71
2719.00,100.70
2718.00,100.69
2717.00,100.69
2716.00,100.71
2715.00,100.72
2714.00,100.74
2713.00,100.74
2712.00,100.74
2711.00,100.73
2710.00,100.73
2709.00,100.72
2708.00,100.71
2707.00,100.71
2706.00,100.71
2705.00,100.71
2704.00,100.71
2703.00,100.70
2702.00,100.69
2701.00,100.68
2700.00,100.68
2699.00,100.68
2698.00,100.68
2697.00,100.69
2696.00,100.71
2695.00,100.73
2694.00,100.73
2693.00,100.73
2692.00,100.73
2691.00,100.73
2690.00,100.73
2689.00,100.73
2688.00,100.72
2687.00,100.71
2686.00,100.71
2685.00,100.72
2684.00,100.73
2683.00,100.73
2682.00,100.73
2681.00,100.73
2680.00,100.72
2679.00,100.71
2678.00,100.70
2677.00,100.70
2676.00,100.69
2675.00,100.70
2674.00,100.71
2673.00,100.72
2672.00,100.72
2671.00,100.72
2670.00,100.70
2669.00,100.70
2668.00,100.70
2667.00,100.71
2666.00,100.72
2665.00,100.71
2664.00,100.71
2663.00,100.70
2662.00,100.70
2661.00,100.71
2660.00,100.72
2659.00,100.73
2658.00,100.73
2657.00,100.73
2656.00,100.71
2655.00,100.70
2654.00,100.69
2653.00,100.69
2652.00,100.69
2651.00,100.69
2650.00,100.68
2649.00,100.67
2648.00,100.66
2647.00,100.66
2646.00,100.66
2645.00,100.66
2644.00,100.66
2643.00,100.66
2642.00,100.65
2641.00,100.65
2640.00,100.64
2639.00,100.64
2638.00,100.64
2637.00,100.65
2636.00,100.66
2635.00,100.68
2634.00,100.68
2633.00,100.68
2632.00,100.66
2631.00,100.65
2630.00,100.63
2629.00,100.63
2628.00,100.62
2627.00,100.61
2626.00,100.60
2625.00,100.59
2624.00,100.59
2623.00,100.60
2622.00,100.61
2621.00,100.62
2620.00,100.63
2619.00,100.64
2618.00,100.65
2617.00,100.64
2616.00,100.63
2615.00,100.63
2614.00,100.62
2613.00,100.62
2612.00,100.61
2611.00,100.59
2610.00,100.58
2609.00,100.58
2608.00,100.59
2607.00,100.60
2606.00,100.61
2605.00,100.61
2604.00,100.60
2603.00,100.59
2602.00,100.57
2601.00,100.56
2600.00,100.57
2599.00,100.58
2598.00,100.59
2597.00,100.59
2596.00,100.58
2595.00,100.57
2594.00,100.56
2593.00,100.55
2592.00,100.56
2591.00,100.56
2590.00,100.57
2589.00,100.58
2588.00,100.58
2587.00,100.57
2586.00,100.55
2585.00,100.53
2584.00,100.51
2583.00,100.51
2582.00,100.52
2581.00,100.53
2580.00,100.53
2579.00,100.54
2578.00,100.54
2577.00,100.53
2576.00,100.53
2575.00,100.52
2574.00,100.53
2573.00,100.54
2572.00,100.55
2571.00,100.56
2570.00,100.55
2569.00,100.54
2568.00,100.53
2567.00,100.53
2566.00,100.54
2565.00,100.55
2564.00,100.54
2563.00,100.53
2562.00,100.52
2561.00,100.52
2560.00,100.51
2559.00,100.51
2558.00,100.51
2557.00,100.50
2556.00,100.51
2555.00,100.52
2554.00,100.53
2553.00,100.54
2552.00,100.54
2551.00,100.55
2550.00,100.56
2549.00,100.57
2548.00,100.57
2547.00,100.55
2546.00,100.54
2545.00,100.54
2544.00,100.54
2543.00,100.54
2542.00,100.54
2541.00,100.54
2540.00,100.52
2539.00,100.50
2538.00,100.48
2537.00,100.48
2536.00,100.49
2535.00,100.49
2534.00,100.49
2533.00,100.49
2532.00,100.48
2531.00,100.48
2530.00,100.47
2529.00,100.47
2528.00,100.46
2527.00,100.46
2526.00,100.47
2525.00,100.50
2524.00,100.54
2523.00,100.56
2522.00,100.57
2521.00,100.56
2520.00,100.53
2519.00,100.49
2518.00,100.46
2517.00,100.44
2516.00,100.44
2515.00,100.44
2514.00,100.45
2513.00,100.46
2512.00,100.48
2511.00,100.49
2510.00,100.50
2509.00,100.52
2508.00,100.53
2507.00,100.54
2506.00,100.53
2505.00,100.52
2504.00,100.51
2503.00,100.50
2502.00,100.50
2501.00,100.49
2500.00,100.49
2499.00,100.49
2498.00,100.50
2497.00,100.50
2496.00,100.50
2495.00,100.49
2494.00,100.48
2493.00,100.47
2492.00,100.48
2491.00,100.49
2490.00,100.50
2489.00,100.50
2488.00,100.50
2487.00,100.49
2486.00,100.49
2485.00,100.50
2484.00,100.50
2483.00,100.51
2482.00,100.51
2481.00,100.52
2480.00,100.54
2479.00,100.55
2478.00,100.54
2477.00,100.53
2476.00,100.51
2475.00,100.50
2474.00,100.48
2473.00,100.47
2472.00,100.47
2471.00,100.46
2470.00,100.46
2469.00,100.46
2468.00,100.46
2467.00,100.46
2466.00,100.48
2465.00,100.50
2464.00,100.51
2463.00,100.51
2462.00,100.50
2461.00,100.50
2460.00,100.50
2459.00,100.51
2458.00,100.52
2457.00,100.52
2456.00,100.51
2455.00,100.51
2454.00,100.50
2453.00,100.49
2452.00,100.51
2451.00,100.53
2450.00,100.55
2449.00,100.56
2448.00,100.56
2447.00,100.55
2446.00,100.55
2445.00,100.55
2444.00,100.54
2443.00,100.53
2442.00,100.52
2441.00,100.52
2440.00,100.51
2439.00,100.52
2438.00,100.53
2437.00,100.54
2436.00,100.56
2435.00,100.57
2434.00,100.58
2433.00,100.58
2432.00,100.58
2431.00,100.58
2430.00,100.57
2429.00,100.55
2428.00,100.53
2427.00,100.50
2426.00,100.49
2425.00,100.49
2424.00,100.50
2423.00,100.52
2422.00,100.55
2421.00,100.59
2420.00,100.61
2419.00,100.60
2418.00,100.56
2417.00,100.52
2416.00,100.49
2415.00,100.50
2414.00,100.53
2413.00,100.57
2412.00,100.59
2411.00,100.59
2410.00,100.57
2409.00,100.55
2408.00,100.54
2407.00,100.53
2406.00,100.52
2405.00,100.53
2404.00,100.55
2403.00,100.57
2402.00,100.59
2401.00,100.60
2400.00,100.61
2399.00,100.62
2398.00,100.62
2397.00,100.61
2396.00,100.60
2395.00,100.58
2394.00,100.57
2393.00,100.57
2392.00,100.58
2391.00,100.61
2390.00,100.62
2389.00,100.62
2388.00,100.62
2387.00,100.61
2386.00,100.60
2385.00,100.60
2384.00,100.60
2383.00,100.61
2382.00,100.63
2381.00,100.66
2380.00,100.68
2379.00,100.70
2378.00,100.71
2377.00,100.73
2376.00,100.76
2375.00,100.79
2374.00,100.79
2373.00,100.78
2372.00,100.75
2371.00,100.74
2370.00,100.72
2369.00,100.69
2368.00,100.68
2367.00,100.69
2366.00,100.73
2365.00,100.77
2364.00,100.78
2363.00,100.78
2362.00,100.77
2361.00,100.77
2360.00,100.77
2359.00,100.77
2358.00,100.78
2357.00,100.80
2356.00,100.82
2355.00,100.82
2354.00,100.81
2353.00,100.80
2352.00,100.80
2351.00,100.80
2350.00,100.80
2349.00,100.80
2348.00,100.81
2347.00,100.82
2346.00,100.82
2345.00,100.80
2344.00,100.77
2343.00,100.75
2342.00,100.75
2341.00,100.79
2340.00,100.83
2339.00,100.85
2338.00,100.82
2337.00,100.77
2336.00,100.74
2335.00,100.76
2334.00,100.80
2333.00,100.83
2332.00,100.83
2331.00,100.81
2330.00,100.78
2329.00,100.75
2328.00,100.72
2327.00,100.70
2326.00,100.67
2325.00,100.64
2324.00,100.61
2323.00,100.60
2322.00,100.62
2321.00,100.63
2320.00,100.61
2319.00,100.57
2318.00,100.53
2317.00,100.50
2316.00,100.49
2315.00,100.50
2314.00,100.53
2313.00,100.57
2312.00,100.59
2311.00,100.61
2310.00,100.62
2309.00,100.62
2308.00,100.62
2307.00,100.63
2306.00,100.64
2305.00,100.65
2304.00,100.64
2303.00,100.61
2302.00,100.57
2301.00,100.53
2300.00,100.50
2299.00,100.49
2298.00,100.50
2297.00,100.52
2296.00,100.53
2295.00,100.54
2294.00,100.54
2293.00,100.53
2292.00,100.52
2291.00,100.51
2290.00,100.49
2289.00,100.47
2288.00,100.44
2287.00,100.42
2286.00,100.40
2285.00,100.39
2284.00,100.39
2283.00,100.37
2282.00,100.36
2281.00,100.36
2280.00,100.38
2279.00,100.40
2278.00,100.41
2277.00,100.43
2276.00,100.43
2275.00,100.41
2274.00,100.37
2273.00,100.32
2272.00,100.29
2271.00,100.30
2270.00,100.33
2269.00,100.35
2268.00,100.34
2267.00,100.30
2266.00,100.25
2265.00,100.21
2264.00,100.20
2263.00,100.22
2262.00,100.24
2261.00,100.24
2260.00,100.20
2259.00,100.17
2258.00,100.16
2257.00,100.16
2256.00,100.17
2255.00,100.17
2254.00,100.17
2253.00,100.15
2252.00,100.10
2251.00,100.05
2250.00,100.01
2249.00,100.01
2248.00,100.01
2247.00,99.99
2246.00,99.96
2245.00,99.92
2244.00,99.89
2243.00,99.85
2242.00,99.79
2241.00,99.73
2240.00,99.71
2239.00,99.73
2238.00,99.81
2237.00,99.88
2236.00,99.93
2235.00,99.95
2234.00,99.95
2233.00,99.94
2232.00,99.94
2231.00,99.95
2230.00,99.96
2229.00,99.99
2228.00,100.04
2227.00,100.08
2226.00,100.09
2225.00,100.07
2224.00,100.04
2223.00,100.00
2222.00,99.99
2221.00,100.00
2220.00,100.02
2219.00,100.03
2218.00,100.04
2217.00,100.06
2216.00,100.08
2215.00,100.09
2214.00,100.08
2213.00,100.06
2212.00,100.05
2211.00,100.03
2210.00,100.00
2209.00,99.97
2208.00,99.96
2207.00,99.97
2206.00,99.98
2205.00,99.98
2204.00,99.98
2203.00,99.97
2202.00,99.95
2201.00,99.93
2200.00,99.91
2199.00,99.89
2198.00,99.87
2197.00,99.84
2196.00,99.81
2195.00,99.80
2194.00,99.82
2193.00,99.86
2192.00,99.92
2191.00,99.97
2190.00,99.98
2189.00,99.98
2188.00,99.98
2187.00,99.98
2186.00,99.96
2185.00,99.91
2184.00,99.88
2183.00,99.90
2182.00,99.97
2181.00,100.03
2180.00,100.02
2179.00,99.94
2178.00,99.86
2177.00,99.81
2176.00,99.78
2175.00,99.79
2174.00,99.80
2173.00,99.81
2172.00,99.79
2171.00,99.75
2170.00,99.70
2169.00,99.67
2168.00,99.67
2167.00,99.69
2166.00,99.71
2165.00,99.68
2164.00,99.61
2163.00,99.53
2162.00,99.48
2161.00,99.48
2160.00,99.50
2159.00,99.57
2158.00,99.66
2157.00,99.76
2156.00,99.82
2155.00,99.83
2154.00,99.81
2153.00,99.82
2152.00,99.84
2151.00,99.87
2150.00,99.87
2149.00,99.87
2148.00,99.91
2147.00,99.99
2146.00,100.06
2145.00,100.09
2144.00,100.06
2143.00,100.01
2142.00,99.99
2141.00,100.02
2140.00,100.06
2139.00,100.10
2138.00,100.13
2137.00,100.15
2136.00,100.16
2135.00,100.17
2134.00,100.17
2133.00,100.17
2132.00,100.18
2131.00,100.20
2130.00,100.23
2129.00,100.26
2128.00,100.25
2127.00,100.23
2126.00,100.20
2125.00,100.18
2124.00,100.18
2123.00,100.19
2122.00,100.21
2121.00,100.25
2120.00,100.30
2119.00,100.35
2118.00,100.38
2117.00,100.39
2116.00,100.36
2115.00,100.33
2114.00,100.30
2113.00,100.29
2112.00,100.30
2111.00,100.32
2110.00,100.32
2109.00,100.31
2108.00,100.29
2107.00,100.26
2106.00,100.23
2105.00,100.22
2104.00,100.22
2103.00,100.24
2102.00,100.26
2101.00,100.27
2100.00,100.28
2099.00,100.29
2098.00,100.31
2097.00,100.33
2096.00,100.33
2095.00,100.30
2094.00,100.24
2093.00,100.19
2092.00,100.18
2091.00,100.19
2090.00,100.23
2089.00,100.26
2088.00,100.26
2087.00,100.24
2086.00,100.20
2085.00,100.17
2084.00,100.16
2083.00,100.17
2082.00,100.20
2081.00,100.22
2080.00,100.23
2079.00,100.23
2078.00,100.22
2077.00,100.20
2076.00,100.18
2075.00,100.18
2074.00,100.19
2073.00,100.23
2072.00,100.26
2071.00,100.27
2070.00,100.25
2069.00,100.20
2068.00,100.17
2067.00,100.17
2066.00,100.20
2065.00,100.24
2064.00,100.26
2063.00,100.25
2062.00,100.22
2061.00,100.19
2060.00,100.14
2059.00,100.10
2058.00,100.08
2057.00,100.09
2056.00,100.10
2055.00,100.10
2054.00,100.08
2053.00,100.05
2052.00,100.02
2051.00,100.01
2050.00,100.00
2049.00,99.99
2048.00,99.96
2047.00,99.91
2046.00,99.88
2045.00,99.89
2044.00,99.90
2043.00,99.90
2042.00,99.89
2041.00,99.89
2040.00,99.92
2039.00,99.95
2038.00,99.95
2037.00,99.89
2036.00,99.80
2035.00,99.74
2034.00,99.72
2033.00,99.75
2032.00,99.77
2031.00,99.77
2030.00,99.77
2029.00,99.80
2028.00,99.85
2027.00,99.90
2026.00,99.91
2025.00,99.89
2024.00,99.86
2023.00,99.86
2022.00,99.87
2021.00,99.88
2020.00,99.84
2019.00,99.78
2018.00,99.75
2017.00,99.81
2016.00,99.92
2015.00,99.99
2014.00,99.98
2013.00,99.93
2012.00,99.89
2011.00,99.88
2010.00,99.90
2009.00,99.92
2008.00,99.92
2007.00,99.90
2006.00,99.87
2005.00,99.85
2004.00,99.86
2003.00,99.89
2002.00,99.91
2001.00,99.93
2000.00,99.93
1999.00,99.94
1998.00,99.93
1997.00,99.91
1996.00,99.91
1995.00,99.93
1994.00,99.96
1993.00,99.97
1992.00,99.93
1991.00,99.86
1990.00,99.83
1989.00,99.85
1988.00,99.88
1987.00,99.89
1986.00,99.87
1985.00,99.85
1984.00,99.84
1983.00,99.85
1982.00,99.88
1981.00,99.90
1980.00,99.89
1979.00,99.87
1978.00,99.87
1977.00,99.89
1976.00,99.89
1975.00,99.86
1974.00,99.81
1973.00,99.79
1972.00,99.80
1971.00,99.85
1970.00,99.91
1969.00,99.96
1968.00,99.98
1967.00,99.97
1966.00,99.96
1965.00,99.95
1964.00,99.97
1963.00,99.98
1962.00,99.99
1961.00,100.01
1960.00,100.03
1959.00,100.07
1958.00,100.10
1957.00,100.13
1956.00,100.16
1955.00,100.18
1954.00,100.19
1953.00,100.19
1952.00,100.17
1951.00,100.16
1950.00,100.17
1949.00,100.21
1948.00,100.26
1947.00,100.29
1946.00,100.30
1945.00,100.29
1944.00,100.28
1943.00,100.25
1942.00,100.21
1941.00,100.20
1940.00,100.21
1939.00,100.23
1938.00,100.25
1937.00,100.26
1936.00,100.27
1935.00,100.29
1934.00,100.31
1933.00,100.31
1932.00,100.31
1931.00,100.32
1930.00,100.35
1929.00,100.39
1928.00,100.41
1927.00,100.40
1926.00,100.38
1925.00,100.36
1924.00,100.35
1923.00,100.36
1922.00,100.38
1921.00,100.37
1920.00,100.35
1919.00,100.31
1918.00,100.27
1917.00,100.26
1916.00,100.28
1915.00,100.32
1914.00,100.36
1913.00,100.40
1912.00,100.41
1911.00,100.41
1910.00,100.41
1909.00,100.41
1908.00,100.41
1907.00,100.41
1906.00,100.40
1905.00,100.39
1904.00,100.37
1903.00,100.36
1902.00,100.35
1901.00,100.33
1900.00,100.32
1899.00,100.33
1898.00,100.35
1897.00,100.39
1896.00,100.43
1895.00,100.45
1894.00,100.43
1893.00,100.40
1892.00,100.39
1891.00,100.40
1890.00,100.41
1889.00,100.43
1888.00,100.46
1887.00,100.48
1886.00,100.51
1885.00,100.53
1884.00,100.54
1883.00,100.54
1882.00,100.53
1881.00,100.51
1880.00,100.49
1879.00,100.46
1878.00,100.45
1877.00,100.44
1876.00,100.44
1875.00,100.46
1874.00,100.49
1873.00,100.52
1872.00,100.53
1871.00,100.51
1870.00,100.48
1869.00,100.46
1868.00,100.45
1867.00,100.47
1866.00,100.49
1865.00,100.51
1864.00,100.53
1863.00,100.54
1862.00,100.54
1861.00,100.54
1860.00,100.54
1859.00,100.55
1858.00,100.55
1857.00,100.55
1856.00,100.55
1855.00,100.55
1854.00,100.55
1853.00,100.56
1852.00,100.58
1851.00,100.59
1850.00,100.61
1849.00,100.60
1848.00,100.59
1847.00,100.56
1846.00,100.55
1845.00,100.54
1844.00,100.53
1843.00,100.52
1842.00,100.51
1841.00,100.52
1840.00,100.54
1839.00,100.55
1838.00,100.55
1837.00,100.54
1836.00,100.52
1835.00,100.51
1834.00,100.52
1833.00,100.52
1832.00,100.52
1831.00,100.50
1830.00,100.48
1829.00,100.49
1828.00,100.51
1827.00,100.54
1826.00,100.56
1825.00,100.56
1824.00,100.56
1823.00,100.56
1822.00,100.57
1821.00,100.58
1820.00,100.58
1819.00,100.59
1818.00,100.60
1817.00,100.61
1816.00,100.61
1815.00,100.60
1814.00,100.59
1813.00,100.58
1812.00,100.58
1811.00,100.59
1810.00,100.60
1809.00,100.60
1808.00,100.59
1807.00,100.59
1806.00,100.59
1805.00,100.59
1804.00,100.60
1803.00,100.59
1802.00,100.58
1801.00,100.57
1800.00,100.58
1799.00,100.58
1798.00,100.59
1797.00,100.59
1796.00,100.59
1795.00,100.59
1794.00,100.59
1793.00,100.58
1792.00,100.57
1791.00,100.56
1790.00,100.56
1789.00,100.56
1788.00,100.57
1787.00,100.57
1786.00,100.58
1785.00,100.59
1784.00,100.60
1783.00,100.60
1782.00,100.60
1781.00,100.59
1780.00,100.59
1779.00,100.59
1778.00,100.58
1777.00,100.57
1776.00,100.57
1775.00,100.57
1774.00,100.59
1773.00,100.59
1772.00,100.58
1771.00,100.56
1770.00,100.56
1769.00,100.57
1768.00,100.58
1767.00,100.58
1766.00,100.56
1765.00,100.54
1764.00,100.54
1763.00,100.55
1762.00,100.55
1761.00,100.55
1760.00,100.54
1759.00,100.54
1758.00,100.55
1757.00,100.56
1756.00,100.57
1755.00,100.56
1754.00,100.56
1753.00,100.57
1752.00,100.57
1751.00,100.56
1750.00,100.53
1749.00,100.51
1748.00,100.49
1747.00,100.49
1746.00,100.50
1745.00,100.51
1744.00,100.52
1743.00,100.53
1742.00,100.54
1741.00,100.53
1740.00,100.51
1739.00,100.49
1738.00,100.48
1737.00,100.49
1736.00,100.52
1735.00,100.55
1734.00,100.56
1733.00,100.56
1732.00,100.54
1731.00,100.53
1730.00,100.54
1729.00,100.55
1728.00,100.56
1727.00,100.56
1726.00,100.56
1725.00,100.55
1724.00,100.54
1723.00,100.53
1722.00,100.52
1721.00,100.52
1720.00,100.53
1719.00,100.54
1718.00,100.54
1717.00,100.55
1716.00,100.55
1715.00,100.55
1714.00,100.55
1713.00,100.55
1712.00,100.56
1711.00,100.56
1710.00,100.57
1709.00,100.58
1708.00,100.58
1707.00,100.57
1706.00,100.56
1705.00,100.55
1704.00,100.55
1703.00,100.54
1702.00,100.53
1701.00,100.53
1700.00,100.55
1699.00,100.58
1698.00,100.58
1697.00,100.58
1696.00,100.58
1695.00,100.59
1694.00,100.60
1693.00,100.61
1692.00,100.61
1691.00,100.60
1690.00,100.59
1689.00,100.58
1688.00,100.57
1687.00,100.54
1686.00,100.51
1685.00,100.49
1684.00,100.49
1683.00,100.52
1682.00,100.54
1681.00,100.55
1680.00,100.56
1679.00,100.57
1678.00,100.58
1677.00,100.58
1676.00,100.58
1675.00,100.58
1674.00,100.59
1673.00,100.61
1672.00,100.62
1671.00,100.61
1670.00,100.60
1669.00,100.59
1668.00,100.59
1667.00,100.59
1666.00,100.57
1665.00,100.55
1664.00,100.54
1663.00,100.53
1662.00,100.54
1661.00,100.56
1660.00,100.57
1659.00,100.57
1658.00,100.57
1657.00,100.56
1656.00,100.56
1655.00,100.55
1654.00,100.53
1653.00,100.52
1652.00,100.54
1651.00,100.57
1650.00,100.58
1649.00,100.57
1648.00,100.55
1647.00,100.52
1646.00,100.50
1645.00,100.50
1644.00,100.50
1643.00,100.50
1642.00,100.51
1641.00,100.53
1640.00,100.54
1639.00,100.55
1638.00,100.55
1637.00,100.55
1636.00,100.55
1635.00,100.54
1634.00,100.55
1633.00,100.55
1632.00,100.55
1631.00,100.54
1630.00,100.53
1629.00,100.51
1628.00,100.51
1627.00,100.52
1626.00,100.52
1625.00,100.52
1624.00,100.52
1623.00,100.53
1622.00,100.53
1621.00,100.53
1620.00,100.52
1619.00,100.52
1618.00,100.52
1617.00,100.53
1616.00,100.53
1615.00,100.54
1614.00,100.54
1613.00,100.54
1612.00,100.55
1611.00,100.56
1610.00,100.57
1609.00,100.57
1608.00,100.56
1607.00,100.55
1606.00,100.55
1605.00,100.55
1604.00,100.55
1603.00,100.55
1602.00,100.54
1601.00,100.53
1600.00,100.52
1599.00,100.51
1598.00,100.50
1597.00,100.50
1596.00,100.50
1595.00,100.51
1594.00,100.51
1593.00,100.50
1592.00,100.49
1591.00,100.49
1590.00,100.50
1589.00,100.51
1588.00,100.52
1587.00,100.53
1586.00,100.53
1585.00,100.54
1584.00,100.54
1583.00,100.54
1582.00,100.55
1581.00,100.56
1580.00,100.57
1579.00,100.57
1578.00,100.57
1577.00,100.58
1576.00,100.58
1575.00,100.58
1574.00,100.58
1573.00,100.59
1572.00,100.59
1571.00,100.60
1570.00,100.59
1569.00,100.58
1568.00,100.57
1567.00,100.57
1566.00,100.57
1565.00,100.57
1564.00,100.56
1563.00,100.56
1562.00,100.57
1561.00,100.60
1560.00,100.62
1559.00,100.62
1558.00,100.62
1557.00,100.60
1556.00,100.59
1555.00,100.59
1554.00,100.59
1553.00,100.59
1552.00,100.59
1551.00,100.59
1550.00,100.59
1549.00,100.59
1548.00,100.60
1547.00,100.61
1546.00,100.61
1545.00,100.61
1544.00,100.60
1543.00,100.59
1542.00,100.58
1541.00,100.59
1540.00,100.59
1539.00,100.59
1538.00,100.60
1537.00,100.60
1536.00,100.60
1535.00,100.60
1534.00,100.60
1533.00,100.60
1532.00,100.59
1531.00,100.58
1530.00,100.57
1529.00,100.57
1528.00,100.57
1527.00,100.58
1526.00,100.59
1525.00,100.59
1524.00,100.60
1523.00,100.59
1522.00,100.57
1521.00,100.56
1520.00,100.56
1519.00,100.58
1518.00,100.59
1517.00,100.60
1516.00,100.59
1515.00,100.59
1514.00,100.58
1513.00,100.58
1512.00,100.57
1511.00,100.56
1510.00,100.55
1509.00,100.56
1508.00,100.59
1507.00,100.60
1506.00,100.59
1505.00,100.56
1504.00,100.54
1503.00,100.52
1502.00,100.51
1501.00,100.51
1500.00,100.52
1499.00,100.53
1498.00,100.53
1497.00,100.54
1496.00,100.54
1495.00,100.53
1494.00,100.53
1493.00,100.52
1492.00,100.51
1491.00,100.51
1490.00,100.50
1489.00,100.52
1488.00,100.54
1487.00,100.56
1486.00,100.56
1485.00,100.55
1484.00,100.53
1483.00,100.53
1482.00,100.54
1481.00,100.55
1480.00,100.55
1479.00,100.55
1478.00,100.53
1477.00,100.52
1476.00,100.50
1475.00,100.50
1474.00,100.49
1473.00,100.48
1472.00,100.47
1471.00,100.48
1470.00,100.48
1469.00,100.48
1468.00,100.49
1467.00,100.49
1466.00,100.50
1465.00,100.49
1464.00,100.46
1463.00,100.43
1462.00,100.41
1461.00,100.40
1460.00,100.40
1459.00,100.40
1458.00,100.39
1457.00,100.36
1456.00,100.33
1455.00,100.28
1454.00,100.23
1453.00,100.20
1452.00,100.18
1451.00,100.16
1450.00,100.15
1449.00,100.13
1448.00,100.13
1447.00,100.12
1446.00,100.13
1445.00,100.14
1444.00,100.15
1443.00,100.16
1442.00,100.15
1441.00,100.15
1440.00,100.15
1439.00,100.16
1438.00,100.16
1437.00,100.15
1436.00,100.16
1435.00,100.16
1434.00,100.16
1433.00,100.16
1432.00,100.16
1431.00,100.18
1430.00,100.21
1429.00,100.25
1428.00,100.28
1427.00,100.30
1426.00,100.31
1425.00,100.32
1424.00,100.33
1423.00,100.34
1422.00,100.35
1421.00,100.35
1420.00,100.35
1419.00,100.37
1418.00,100.39
1417.00,100.41
1416.00,100.43
1415.00,100.43
1414.00,100.43
1413.00,100.43
1412.00,100.43
1411.00,100.43
1410.00,100.43
1409.00,100.43
1408.00,100.42
1407.00,100.42
1406.00,100.44
1405.00,100.46
1404.00,100.47
1403.00,100.47
1402.00,100.47
1401.00,100.47
1400.00,100.48
1399.00,100.49
1398.00,100.50
1397.00,100.50
1396.00,100.49
1395.00,100.48
1394.00,100.45
1393.00,100.44
1392.00,100.43
1391.00,100.44
1390.00,100.45
1389.00,100.47
1388.00,100.48
1387.00,100.49
1386.00,100.48
1385.00,100.47
1384.00,100.47
1383.00,100.46
1382.00,100.45
1381.00,100.44
1380.00,100.43
1379.00,100.42
1378.00,100.42
1377.00,100.42
1376.00,100.41
1375.00,100.39
1374.00,100.38
1373.00,100.37
1372.00,100.36
1371.00,100.36
1370.00,100.36
1369.00,100.35
1368.00,100.34
1367.00,100.33
1366.00,100.32
1365.00,100.32
1364.00,100.33
1363.00,100.35
1362.00,100.36
1361.00,100.36
1360.00,100.35
1359.00,100.34
1358.00,100.33
1357.00,100.33
1356.00,100.33
1355.00,100.34
1354.00,100.34
1353.00,100.33
1352.00,100.33
1351.00,100.34
1350.00,100.35
1349.00,100.35
1348.00,100.34
1347.00,100.33
1346.00,100.32
1345.00,100.31
1344.00,100.32
1343.00,100.34
1342.00,100.37
1341.00,100.41
1340.00,100.43
1339.00,100.44
1338.00,100.44
1337.00,100.44
1336.00,100.42
1335.00,100.40
1334.00,100.39
1333.00,100.38
1332.00,100.38
1331.00,100.39
1330.00,100.41
1329.00,100.42
1328.00,100.43
1327.00,100.43
1326.00,100.42
1325.00,100.42
1324.00,100.43
1323.00,100.43
1322.00,100.44
1321.00,100.43
1320.00,100.42
1319.00,100.41
1318.00,100.40
1317.00,100.41
1316.00,100.42
1315.00,100.43
1314.00,100.44
1313.00,100.43
1312.00,100.42
1311.00,100.41
1310.00,100.40
1309.00,100.40
1308.00,100.40
1307.00,100.41
1306.00,100.42
1305.00,100.42
1304.00,100.40
1303.00,100.38
1302.00,100.37
1301.00,100.37
1300.00,100.37
1299.00,100.38
1298.00,100.38
1297.00,100.37
1296.00,100.37
1295.00,100.37
1294.00,100.38
1293.00,100.38
1292.00,100.38
1291.00,100.38
1290.00,100.38
1289.00,100.38
1288.00,100.39
1287.00,100.38
1286.00,100.38
1285.00,100.38
1284.00,100.37
1283.00,100.36
1282.00,100.35
1281.00,100.33
1280.00,100.33
1279.00,100.33
1278.00,100.34
1277.00,100.35
1276.00,100.35
1275.00,100.35
1274.00,100.34
1273.00,100.33
1272.00,100.33
1271.00,100.33
1270.00,100.33
1269.00,100.32
1268.00,100.33
1267.00,100.33
1266.00,100.33
1265.00,100.33
1264.00,100.33
1263.00,100.33
1262.00,100.31
1261.00,100.30
1260.00,100.28
1259.00,100.28
1258.00,100.27
1257.00,100.27
1256.00,100.27
1255.00,100.27
1254.00,100.27
1253.00,100.26
1252.00,100.26
1251.00,100.25
1250.00,100.24
1249.00,100.22
1248.00,100.21
1247.00,100.20
1246.00,100.20
1245.00,100.20
1244.00,100.21
1243.00,100.21
1242.00,100.22
1241.00,100.23
1240.00,100.24
1239.00,100.26
1238.00,100.28
1237.00,100.29
1236.00,100.29
1235.00,100.27
1234.00,100.24
1233.00,100.21
1232.00,100.20
1231.00,100.20
1230.00,100.20
1229.00,100.22
1228.00,100.23
1227.00,100.24
1226.00,100.25
1225.00,100.26
1224.00,100.27
1223.00,100.27
1222.00,100.26
1221.00,100.25
1220.00,100.22
1219.00,100.21
1218.00,100.20
1217.00,100.21
1216.00,100.23
1215.00,100.25
1214.00,100.26
1213.00,100.25
1212.00,100.23
1211.00,100.23
1210.00,100.23
1209.00,100.25
1208.00,100.28
1207.00,100.30
1206.00,100.31
1205.00,100.32
1204.00,100.31
1203.00,100.31
1202.00,100.30
1201.00,100.30
1200.00,100.29
1199.00,100.27
1198.00,100.26
1197.00,100.26
1196.00,100.28
1195.00,100.32
1194.00,100.35
1193.00,100.35
1192.00,100.35
1191.00,100.33
1190.00,100.31
1189.00,100.30
1188.00,100.28
1187.00,100.26
1186.00,100.25
1185.00,100.24
1184.00,100.24
1183.00,100.23
1182.00,100.22
1181.00,100.22
1180.00,100.21
1179.00,100.20
1178.00,100.19
1177.00,100.19
1176.00,100.20
1175.00,100.21
1174.00,100.21
1173.00,100.22
1172.00,100.25
1171.00,100.28
1170.00,100.29
1169.00,100.28
1168.00,100.27
1167.00,100.26
1166.00,100.26
1165.00,100.27
1164.00,100.27
1163.00,100.27
1162.00,100.25
1161.00,100.24
1160.00,100.25
1159.00,100.24
1158.00,100.23
1157.00,100.22
1156.00,100.22
1155.00,100.24
1154.00,100.27
1153.00,100.29
1152.00,100.29
1151.00,100.28
1150.00,100.27
1149.00,100.27
1148.00,100.29
1147.00,100.29
1146.00,100.28
1145.00,100.27
1144.00,100.26
1143.00,100.27
1142.00,100.27
1141.00,100.28
1140.00,100.29
1139.00,100.29
1138.00,100.28
1137.00,100.27
1136.00,100.26
1135.00,100.27
1134.00,100.29
1133.00,100.29
1132.00,100.26
1131.00,100.21
1130.00,100.17
1129.00,100.15
1128.00,100.16
1127.00,100.17
1126.00,100.18
1125.00,100.16
1124.00,100.14
1123.00,100.13
1122.00,100.11
1121.00,100.10
1120.00,100.09
1119.00,100.09
1118.00,100.09
1117.00,100.11
1116.00,100.15
1115.00,100.19
1114.00,100.21
1113.00,100.19
1112.00,100.16
1111.00,100.13
1110.00,100.09
1109.00,100.05
1108.00,100.03
1107.00,100.02
1106.00,100.01
1105.00,100.01
1104.00,100.01
1103.00,100.02
1102.00,100.05
1101.00,100.08
1100.00,100.09
1099.00,100.08
1098.00,100.07
1097.00,100.05
1096.00,100.05
1095.00,100.06
1094.00,100.06
1093.00,100.06
1092.00,100.05
1091.00,100.04
1090.00,100.05
1089.00,100.07
1088.00,100.08
1087.00,100.07
1086.00,100.05
1085.00,100.03
1084.00,100.01
1083.00,100.00
1082.00,100.01
1081.00,100.02
1080.00,100.03
1079.00,100.03
1078.00,100.03
1077.00,100.03
1076.00,100.03
1075.00,100.02
1074.00,100.01
1073.00,100.01
1072.00,99.99
1071.00,99.96
1070.00,99.91
1069.00,99.89
1068.00,99.91
1067.00,99.95
1066.00,99.98
1065.00,99.99
1064.00,99.98
1063.00,99.97
1062.00,99.98
1061.00,100.00
1060.00,100.02
1059.00,100.01
1058.00,99.99
1057.00,99.97
1056.00,99.96
1055.00,99.98
1054.00,100.01
1053.00,100.03
1052.00,100.05
1051.00,100.04
1050.00,100.03
1049.00,100.02
1048.00,100.00
1047.00,100.00
1046.00,100.00
1045.00,100.01
1044.00,100.01
1043.00,100.00
1042.00,99.99
1041.00,100.00
1040.00,100.02
1039.00,100.04
1038.00,100.05
1037.00,100.05
1036.00,100.04
1035.00,100.04
1034.00,100.03
1033.00,100.02
1032.00,100.03
1031.00,100.03
1030.00,100.03
1029.00,100.01
1028.00,99.98
1027.00,99.96
1026.00,99.94
1025.00,99.95
1024.00,99.98
1023.00,100.01
1022.00,100.04
1021.00,100.05
1020.00,100.06
1019.00,100.07
1018.00,100.11
1017.00,100.14
1016.00,100.17
1015.00,100.18
1014.00,100.18
1013.00,100.18
1012.00,100.17
1011.00,100.17
1010.00,100.15
1009.00,100.13
1008.00,100.12
1007.00,100.11
1006.00,100.10
1005.00,100.09
1004.00,100.07
1003.00,100.05
1002.00,100.05
1001.00,100.07
1000.00,100.09
999.00,100.11
998.00,100.13
997.00,100.15
996.00,100.17
995.00,100.18
994.00,100.18
993.00,100.18
992.00,100.20
991.00,100.22
990.00,100.23
989.00,100.24
988.00,100.24
987.00,100.25
986.00,100.27
985.00,100.28
984.00,100.28
983.00,100.27
982.00,100.26
981.00,100.25
980.00,100.23
979.00,100.21
978.00,100.20
977.00,100.18
976.00,100.17
975.00,100.17
974.00,100.17
973.00,100.18
972.00,100.19
971.00,100.20
970.00,100.20
969.00,100.21
968.00,100.22
967.00,100.23
966.00,100.23
965.00,100.23
964.00,100.24
963.00,100.25
962.00,100.26
961.00,100.27
960.00,100.28
959.00,100.27
958.00,100.26
957.00,100.25
956.00,100.24
955.00,100.24
954.00,100.24
953.00,100.23
952.00,100.22
951.00,100.20
950.00,100.19
949.00,100.20
948.00,100.21
947.00,100.21
946.00,100.22
945.00,100.21
944.00,100.20
943.00,100.19
942.00,100.19
941.00,100.20
940.00,100.20
939.00,100.20
938.00,100.21
937.00,100.21
936.00,100.22
935.00,100.22
934.00,100.21
933.00,100.20
932.00,100.21
931.00,100.22
930.00,100.23
929.00,100.22
928.00,100.22
927.00,100.22
926.00,100.25
925.00,100.27
924.00,100.29
923.00,100.28
922.00,100.27
921.00,100.26
920.00,100.25
919.00,100.24
918.00,100.23
917.00,100.21
916.00,100.21
915.00,100.21
914.00,100.22
913.00,100.23
912.00,100.24
911.00,100.23
910.00,100.23
909.00,100.23
908.00,100.25
907.00,100.27
906.00,100.28
905.00,100.29
904.00,100.30
903.00,100.30
902.00,100.29
901.00,100.26
900.00,100.25
899.00,100.26
898.00,100.29
897.00,100.32
896.00,100.32
895.00,100.31
894.00,100.30
893.00,100.30
892.00,100.29
891.00,100.28
890.00,100.27
889.00,100.26
888.00,100.27
887.00,100.27
886.00,100.28
885.00,100.28
884.00,100.30
883.00,100.31
882.00,100.32
881.00,100.33
880.00,100.32
879.00,100.31
878.00,100.30
877.00,100.28
876.00,100.28
875.00,100.28
874.00,100.28
873.00,100.28
872.00,100.28
871.00,100.28
870.00,100.29
869.00,100.31
868.00,100.31
867.00,100.29
866.00,100.25
865.00,100.20
864.00,100.17
863.00,100.18
862.00,100.22
861.00,100.25
860.00,100.27
859.00,100.28
858.00,100.29
857.00,100.29
856.00,100.28
855.00,100.26
854.00,100.25
853.00,100.24
852.00,100.24
851.00,100.24
850.00,100.22
849.00,100.22
848.00,100.22
847.00,100.24
846.00,100.27
845.00,100.32
844.00,100.37
843.00,100.40
842.00,100.37
841.00,100.30
840.00,100.24
839.00,100.20
838.00,100.21
837.00,100.25
836.00,100.29
835.00,100.29
834.00,100.26
833.00,100.22
832.00,100.22
831.00,100.25
830.00,100.30
829.00,100.35
828.00,100.39
827.00,100.39
826.00,100.35
825.00,100.28
824.00,100.22
823.00,100.20
822.00,100.22
821.00,100.26
820.00,100.30
819.00,100.32
818.00,100.31
817.00,100.30
816.00,100.29
815.00,100.28
814.00,100.27
813.00,100.25
812.00,100.23
811.00,100.21
810.00,100.19
809.00,100.18
808.00,100.18
807.00,100.20
806.00,100.22
805.00,100.22
804.00,100.22
803.00,100.20
802.00,100.20
801.00,100.20
800.00,100.22
799.00,100.25
798.00,100.27
797.00,100.28
796.00,100.28
795.00,100.31
794.00,100.35
793.00,100.39
792.00,100.40
791.00,100.38
790.00,100.35
789.00,100.34
788.00,100.34
787.00,100.34
786.00,100.35
785.00,100.35
784.00,100.34
783.00,100.31
782.00,100.27
781.00,100.26
780.00,100.26
779.00,100.25
778.00,100.22
777.00,100.19
776.00,100.17
775.00,100.16
774.00,100.16
773.00,100.17
772.00,100.20
771.00,100.23
770.00,100.24
769.00,100.24
768.00,100.23
767.00,100.23
766.00,100.24
765.00,100.27
764.00,100.31
763.00,100.33
762.00,100.32
761.00,100.30
760.00,100.28
759.00,100.26
758.00,100.25
757.00,100.25
756.00,100.28
755.00,100.32
754.00,100.36
753.00,100.40
752.00,100.44
751.00,100.44
750.00,100.43
749.00,100.40
748.00,100.39
747.00,100.37
746.00,100.32
745.00,100.23
744.00,100.14
743.00,100.13
742.00,100.18
741.00,100.27
740.00,100.32
739.00,100.32
738.00,100.29
737.00,100.27
736.00,100.29
735.00,100.30
734.00,100.31
733.00,100.30
732.00,100.30
731.00,100.31
730.00,100.29
729.00,100.26
728.00,100.23
727.00,100.23
726.00,100.25
725.00,100.25
724.00,100.24
723.00,100.22
722.00,100.22
721.00,100.24
720.00,100.26
719.00,100.27
718.00,100.27
717.00,100.25
716.00,100.22
715.00,100.19
714.00,100.17
713.00,100.17
712.00,100.17
711.00,100.18
710.00,100.17
709.00,100.15
708.00,100.14
707.00,100.13
706.00,100.11
705.00,100.08
704.00,100.05
703.00,100.04
702.00,100.04
701.00,100.06
700.00,100.09
699.00,100.12
698.00,100.12
697.00,100.12
696.00,100.11
695.00,100.12
694.00,100.12
693.00,100.13
692.00,100.14
691.00,100.16
690.00,100.17
689.00,100.17
688.00,100.14
687.00,100.11
686.00,100.10
685.00,100.10
684.00,100.14
683.00,100.20
682.00,100.27
681.00,100.29
680.00,100.28
679.00,100.26
678.00,100.26
677.00,100.26
676.00,100.24
675.00,100.18
674.00,100.10
673.00,100.08
672.00,100.11
671.00,100.17
670.00,100.21
669.00,100.25
668.00,100.26
667.00,100.22
666.00,100.22
665.00,100.25
664.00,100.26
663.00,100.23
662.00,100.18
661.00,100.14
660.00,100.10
659.00,100.08
658.00,100.09
657.00,100.11
656.00,100.13
655.00,100.11
654.00,100.07
653.00,100.03
652.00,99.99
651.00,99.95
650.00,99.91
649.00,99.89
648.00,99.92
647.00,99.98
646.00,100.04
645.00,100.09
644.00,100.14
643.00,100.20
642.00,100.22
641.00,100.11
640.00,99.88
639.00,99.60
638.00,99.43
637.00,99.43
636.00,99.56
635.00,99.71
634.00,99.80
633.00,99.83
632.00,99.87
631.00,99.98
630.00,100.16
629.00,100.37
628.00,100.51
627.00,100.47
626.00,100.23
625.00,99.91
624.00,99.67
623.00,99.58
622.00,99.60
621.00,99.64
620.00,99.68
619.00,99.75
618.00,99.86
617.00,99.98
616.00,100.00
615.00,99.90
614.00,99.76
613.00,99.72
612.00,99.84
611.00,100.01
610.00,100.13
609.00,100.18
608.00,100.17
607.00,100.11
606.00,100.03
605.00,99.99
604.00,100.01
603.00,99.96
602.00,99.76
601.00,99.54
600.00,99.48
599.00,99.63
598.00,99.84
597.00,99.99
596.00,100.10
595.00,100.20
594.00,100.23
593.00,100.08
592.00,99.84
591.00,99.70
590.00,99.77
589.00,99.98
588.00,100.18
587.00,100.21
586.00,100.04
585.00,99.74
584.00,99.52
583.00,99.56
582.00,99.86
581.00,100.28
580.00,100.62
579.00,100.73
578.00,100.59
577.00,100.37
576.00,100.41
575.00,100.85
574.00,101.39
573.00,101.46
572.00,100.82
571.00,99.73
570.00,98.87
569.00,98.71
568.00,99.17
567.00,99.79
566.00,100.22
565.00,100.50
564.00,100.84
563.00,101.21
562.00,101.33
561.00,101.10
560.00,100.68
559.00,100.36
558.00,100.19
557.00,100.04
556.00,99.81
555.00,99.50
554.00,99.32
553.00,99.45
552.00,99.94
551.00,100.56
550.00,100.96
