Created as New Dataset,64. Modacrylic Toray Dyed
cm-1,%T
4000.00,96.18
3999.00,96.18
3998.00,96.17
3997.00,96.17
3996.00,96.18
3995.00,96.19
3994.00,96.21
3993.00,96.22
3992.00,96.23
3991.00,96.22
3990.00,96.20
3989.00,96.19
3988.00,96.17
3987.00,96.16
3986.00,96.16
3985.00,96.15
3984.00,96.14
3983.00,96.14
3982.00,96.14
3981.00,96.15
3980.00,96.17
3979.00,96.18
3978.00,96.19
3977.00,96.19
3976.00,96.18
3975.00,96.17
3974.00,96.17
3973.00,96.18
3972.00,96.19
3971.00,96.20
3970.00,96.20
3969.00,96.20
3968.00,96.19
3967.00,96.19
3966.00,96.19
3965.00,96.19
3964.00,96.19
3963.00,96.19
3962.00,96.18
3961.00,96.17
3960.00,96.16
3959.00,96.17
3958.00,96.18
3957.00,96.20
3956.00,96.22
3955.00,96.25
3954.00,96.27
3953.00,96.28
3952.00,96.29
3951.00,96.28
3950.00,96.29
3949.00,96.29
3948.00,96.30
3947.00,96.29
3946.00,96.27
3945.00,96.24
3944.00,96.22
3943.00,96.23
3942.00,96.24
3941.00,96.25
3940.00,96.26
3939.00,96.25
3938.00,96.23
3937.00,96.22
3936.00,96.22
3935.00,96.22
3934.00,96.22
3933.00,96.22
3932.00,96.22
3931.00,96.22
3930.00,96.23
3929.00,96.23
3928.00,96.23
3927.00,96.21
3926.00,96.20
3925.00,96.18
3924.00,96.17
3923.00,96.16
3922.00,96.17
3921.00,96.17
3920.00,96.18
3919.00,96.19
3918.00,96.20
3917.00,96.20
3916.00,96.20
3915.00,96.20
3914.00,96.19
3913.00,96.18
3912.00,96.17
3911.00,96.17
3910.00,96.18
3909.00,96.21
3908.00,96.26
3907.00,96.30
3906.00,96.33
3905.00,96.34
3904.00,96.34
3903.00,96.33
3902.00,96.33
3901.00,96.33
3900.00,96.32
3899.00,96.29
3898.00,96.26
3897.00,96.24
3896.00,96.22
3895.00,96.20
3894.00,96.19
3893.00,96.19
3892.00,96.19
3891.00,96.19
3890.00,96.22
3889.00,96.24
3888.00,96.26
3887.00,96.26
3886.00,96.25
3885.00,96.24
3884.00,96.25
3883.00,96.27
3882.00,96.28
3881.00,96.26
3880.00,96.25
3879.00,96.26
3878.00,96.29
3877.00,96.31
3876.00,96.30
3875.00,96.27
3874.00,96.25
3873.00,96.23
3872.00,96.23
3871.00,96.23
3870.00,96.21
3869.00,96.21
3868.00,96.22
3867.00,96.25
3866.00,96.26
3865.00,96.26
3864.00,96.25
3863.00,96.24
3862.00,96.24
3861.00,96.24
3860.00,96.25
3859.00,96.27
3858.00,96.30
3857.00,96.35
3856.00,96.41
3855.00,96.46
3854.00,96.47
3853.00,96.46
3852.00,96.44
3851.00,96.42
3850.00,96.36
3849.00,96.29
3848.00,96.23
3847.00,96.21
3846.00,96.20
3845.00,96.21
3844.00,96.22
3843.00,96.22
3842.00,96.23
3841.00,96.25
3840.00,96.28
3839.00,96.30
3838.00,96.29
3837.00,96.27
3836.00,96.24
3835.00,96.22
3834.00,96.20
3833.00,96.19
3832.00,96.17
3831.00,96.16
3830.00,96.15
3829.00,96.16
3828.00,96.16
3827.00,96.15
3826.00,96.15
3825.00,96.17
3824.00,96.19
3823.00,96.22
3822.00,96.24
3821.00,96.22
3820.00,96.20
3819.00,96.18
3818.00,96.15
3817.00,96.13
3816.00,96.11
3815.00,96.11
3814.00,96.12
3813.00,96.14
3812.00,96.16
3811.00,96.17
3810.00,96.19
3809.00,96.21
3808.00,96.21
3807.00,96.20
3806.00,96.20
3805.00,96.21
3804.00,96.22
3803.00,96.19
3802.00,96.15
3801.00,96.11
3800.00,96.10
3799.00,96.11
3798.00,96.12
3797.00,96.11
3796.00,96.09
3795.00,96.07
3794.00,96.05
3793.00,96.05
3792.00,96.05
3791.00,96.05
3790.00,96.05
3789.00,96.05
3788.00,96.06
3787.00,96.07
3786.00,96.08
3785.00,96.09
3784.00,96.10
3783.00,96.11
3782.00,96.12
3781.00,96.12
3780.00,96.10
3779.00,96.06
3778.00,96.04
3777.00,96.03
3776.00,96.04
3775.00,96.06
3774.00,96.07
3773.00,96.07
3772.00,96.07
3771.00,96.07
3770.00,96.06
3769.00,96.06
3768.00,96.07
3767.00,96.08
3766.00,96.08
3765.00,96.08
3764.00,96.07
3763.00,96.06
3762.00,96.05
3761.00,96.05
3760.00,96.04
3759.00,96.03
3758.00,96.03
3757.00,96.05
3756.00,96.08
3755.00,96.12
3754.00,96.17
3753.00,96.21
3752.00,96.23
3751.00,96.23
3750.00,96.23
3749.00,96.24
3748.00,96.26
3747.00,96.27
3746.00,96.27
3745.00,96.24
3744.00,96.19
3743.00,96.17
3742.00,96.16
3741.00,96.15
3740.00,96.14
3739.00,96.14
3738.00,96.15
3737.00,96.15
3736.00,96.12
3735.00,96.09
3734.00,96.09
3733.00,96.10
3732.00,96.11
3731.00,96.11
3730.00,96.10
3729.00,96.09
3728.00,96.06
3727.00,96.04
3726.00,96.03
3725.00,96.02
3724.00,96.02
3723.00,96.01
3722.00,95.99
3721.00,95.96
3720.00,95.94
3719.00,95.93
3718.00,95.92
3717.00,95.93
3716.00,95.94
3715.00,95.96
3714.00,95.99
3713.00,96.01
3712.00,96.01
3711.00,96.01
3710.00,95.99
3709.00,95.96
3708.00,95.92
3707.00,95.88
3706.00,95.86
3705.00,95.86
3704.00,95.87
3703.00,95.88
3702.00,95.88
3701.00,95.88
3700.00,95.88
3699.00,95.89
3698.00,95.89
3697.00,95.90
3696.00,95.91
3695.00,95.92
3694.00,95.94
3693.00,95.96
3692.00,95.97
3691.00,95.97
3690.00,95.94
3689.00,95.89
3688.00,95.85
3687.00,95.83
3686.00,95.83
3685.00,95.83
3684.00,95.83
3683.00,95.82
3682.00,95.83
3681.00,95.84
3680.00,95.87
3679.00,95.90
3678.00,95.93
3677.00,95.93
3676.00,95.91
3675.00,95.87
3674.00,95.83
3673.00,95.80
3672.00,95.77
3671.00,95.75
3670.00,95.73
3669.00,95.73
3668.00,95.73
3667.00,95.72
3666.00,95.70
3665.00,95.67
3664.00,95.63
3663.00,95.60
3662.00,95.57
3661.00,95.54
3660.00,95.53
3659.00,95.53
3658.00,95.53
3657.00,95.54
3656.00,95.54
3655.00,95.55
3654.00,95.57
3653.00,95.58
3652.00,95.59
3651.00,95.58
3650.00,95.57
3649.00,95.56
3648.00,95.55
3647.00,95.54
3646.00,95.50
3645.00,95.47
3644.00,95.43
3643.00,95.41
3642.00,95.40
3641.00,95.41
3640.00,95.42
3639.00,95.42
3638.00,95.41
3637.00,95.39
3636.00,95.36
3635.00,95.35
3634.00,95.35
3633.00,95.38
3632.00,95.42
3631.00,95.45
3630.00,95.45
3629.00,95.44
3628.00,95.42
3627.00,95.42
3626.00,95.41
3625.00,95.38
3624.00,95.36
3623.00,95.35
3622.00,95.36
3621.00,95.38
3620.00,95.39
3619.00,95.39
3618.00,95.39
3617.00,95.40
3616.00,95.41
3615.00,95.42
3614.00,95.42
3613.00,95.41
3612.00,95.41
3611.00,95.41
3610.00,95.41
3609.00,95.41
3608.00,95.40
3607.00,95.39
3606.00,95.38
3605.00,95.37
3604.00,95.36
3603.00,95.36
3602.00,95.35
3601.00,95.34
3600.00,95.33
3599.00,95.35
3598.00,95.38
3597.00,95.41
3596.00,95.42
3595.00,95.42
3594.00,95.43
3593.00,95.44
3592.00,95.47
3591.00,95.50
3590.00,95.52
3589.00,95.53
3588.00,95.53
3587.00,95.52
3586.00,95.51
3585.00,95.50
3584.00,95.48
3583.00,95.45
3582.00,95.43
3581.00,95.41
3580.00,95.40
3579.00,95.40
3578.00,95.39
3577.00,95.37
3576.00,95.36
3575.00,95.36
3574.00,95.39
3573.00,95.42
3572.00,95.45
3571.00,95.46
3570.00,95.47
3569.00,95.47
3568.00,95.47
3567.00,95.46
3566.00,95.45
3565.00,95.43
3564.00,95.42
3563.00,95.40
3562.00,95.39
3561.00,95.38
3560.00,95.37
3559.00,95.35
3558.00,95.32
3557.00,95.30
3556.00,95.28
3555.00,95.29
3554.00,95.31
3553.00,95.33
3552.00,95.35
3551.00,95.36
3550.00,95.37
3549.00,95.37
3548.00,95.36
3547.00,95.36
3546.00,95.36
3545.00,95.35
3544.00,95.34
3543.00,95.33
3542.00,95.32
3541.00,95.30
3540.00,95.28
3539.00,95.25
3538.00,95.23
3537.00,95.24
3536.00,95.25
3535.00,95.27
3534.00,95.29
3533.00,95.30
3532.00,95.31
3531.00,95.33
3530.00,95.35
3529.00,95.38
3528.00,95.39
3527.00,95.41
3526.00,95.42
3525.00,95.43
3524.00,95.43
3523.00,95.42
3522.00,95.40
3521.00,95.38
3520.00,95.36
3519.00,95.35
3518.00,95.37
3517.00,95.39
3516.00,95.41
3515.00,95.42
3514.00,95.40
3513.00,95.37
3512.00,95.34
3511.00,95.32
3510.00,95.32
3509.00,95.32
3508.00,95.33
3507.00,95.34
3506.00,95.37
3505.00,95.40
3504.00,95.43
3503.00,95.45
3502.00,95.45
3501.00,95.43
3500.00,95.42
3499.00,95.42
3498.00,95.43
3497.00,95.43
3496.00,95.43
3495.00,95.41
3494.00,95.38
3493.00,95.37
3492.00,95.36
3491.00,95.36
3490.00,95.36
3489.00,95.36
3488.00,95.36
3487.00,95.38
3486.00,95.40
3485.00,95.42
3484.00,95.41
3483.00,95.41
3482.00,95.40
3481.00,95.41
3480.00,95.41
3479.00,95.41
3478.00,95.42
3477.00,95.44
3476.00,95.47
3475.00,95.49
3474.00,95.50
3473.00,95.50
3472.00,95.49
3471.00,95.47
3470.00,95.46
3469.00,95.44
3468.00,95.43
3467.00,95.42
3466.00,95.42
3465.00,95.42
3464.00,95.42
3463.00,95.41
3462.00,95.41
3461.00,95.40
3460.00,95.40
3459.00,95.40
3458.00,95.39
3457.00,95.38
3456.00,95.39
3455.00,95.41
3454.00,95.44
3453.00,95.46
3452.00,95.46
3451.00,95.45
3450.00,95.43
3449.00,95.42
3448.00,95.42
3447.00,95.43
3446.00,95.43
3445.00,95.43
3444.00,95.43
3443.00,95.42
3442.00,95.41
3441.00,95.40
3440.00,95.40
3439.00,95.40
3438.00,95.41
3437.00,95.43
3436.00,95.44
3435.00,95.44
3434.00,95.43
3433.00,95.41
3432.00,95.39
3431.00,95.38
3430.00,95.39
3429.00,95.40
3428.00,95.41
3427.00,95.42
3426.00,95.43
3425.00,95.45
3424.00,95.47
3423.00,95.47
3422.00,95.47
3421.00,95.45
3420.00,95.44
3419.00,95.43
3418.00,95.41
3417.00,95.40
3416.00,95.38
3415.00,95.38
3414.00,95.38
3413.00,95.39
3412.00,95.40
3411.00,95.41
3410.00,95.42
3409.00,95.41
3408.00,95.41
3407.00,95.41
3406.00,95.41
3405.00,95.41
3404.00,95.41
3403.00,95.40
3402.00,95.39
3401.00,95.38
3400.00,95.38
3399.00,95.38
3398.00,95.38
3397.00,95.37
3396.00,95.36
3395.00,95.35
3394.00,95.35
3393.00,95.34
3392.00,95.34
3391.00,95.34
3390.00,95.33
3389.00,95.32
3388.00,95.32
3387.00,95.32
3386.00,95.32
3385.00,95.32
3384.00,95.32
3383.00,95.33
3382.00,95.34
3381.00,95.35
3380.00,95.33
3379.00,95.30
3378.00,95.27
3377.00,95.25
3376.00,95.22
3375.00,95.20
3374.00,95.20
3373.00,95.21
3372.00,95.23
3371.00,95.24
3370.00,95.23
3369.00,95.21
3368.00,95.20
3367.00,95.19
3366.00,95.17
3365.00,95.16
3364.00,95.14
3363.00,95.13
3362.00,95.11
3361.00,95.10
3360.00,95.09
3359.00,95.08
3358.00,95.08
3357.00,95.08
3356.00,95.07
3355.00,95.07
3354.00,95.06
3353.00,95.06
3352.00,95.06
3351.00,95.06
3350.00,95.06
3349.00,95.07
3348.00,95.09
3347.00,95.11
3346.00,95.14
3345.00,95.18
3344.00,95.20
3343.00,95.21
3342.00,95.21
3341.00,95.20
3340.00,95.19
3339.00,95.20
3338.00,95.20
3337.00,95.21
3336.00,95.22
3335.00,95.25
3334.00,95.28
3333.00,95.30
3332.00,95.32
3331.00,95.33
3330.00,95.35
3329.00,95.37
3328.00,95.39
3327.00,95.39
3326.00,95.38
3325.00,95.35
3324.00,95.33
3323.00,95.33
3322.00,95.34
3321.00,95.35
3320.00,95.36
3319.00,95.38
3318.00,95.40
3317.00,95.40
3316.00,95.39
3315.00,95.37
3314.00,95.36
3313.00,95.36
3312.00,95.37
3311.00,95.38
3310.00,95.39
3309.00,95.41
3308.00,95.41
3307.00,95.42
3306.00,95.43
3305.00,95.43
3304.00,95.43
3303.00,95.43
3302.00,95.42
3301.00,95.42
3300.00,95.41
3299.00,95.41
3298.00,95.41
3297.00,95.41
3296.00,95.41
3295.00,95.41
3294.00,95.41
3293.00,95.41
3292.00,95.42
3291.00,95.42
3290.00,95.44
3289.00,95.45
3288.00,95.45
3287.00,95.45
3286.00,95.44
3285.00,95.43
3284.00,95.43
3283.00,95.43
3282.00,95.44
3281.00,95.44
3280.00,95.43
3279.00,95.41
3278.00,95.40
3277.00,95.41
3276.00,95.41
3275.00,95.42
3274.00,95.41
3273.00,95.41
3272.00,95.40
3271.00,95.39
3270.00,95.39
3269.00,95.40
3268.00,95.42
3267.00,95.45
3266.00,95.48
3265.00,95.48
3264.00,95.46
3263.00,95.43
3262.00,95.41
3261.00,95.41
3260.00,95.43
3259.00,95.46
3258.00,95.49
3257.00,95.50
3256.00,95.50
3255.00,95.47
3254.00,95.44
3253.00,95.42
3252.00,95.42
3251.00,95.43
3250.00,95.44
3249.00,95.46
3248.00,95.47
3247.00,95.48
3246.00,95.49
3245.00,95.49
3244.00,95.48
3243.00,95.47
3242.00,95.47
3241.00,95.48
3240.00,95.48
3239.00,95.48
3238.00,95.49
3237.00,95.50
3236.00,95.52
3235.00,95.51
3234.00,95.49
3233.00,95.47
3232.00,95.47
3231.00,95.48
3230.00,95.50
3229.00,95.51
3228.00,95.50
3227.00,95.49
3226.00,95.48
3225.00,95.48
3224.00,95.47
3223.00,95.46
3222.00,95.46
3221.00,95.46
3220.00,95.46
3219.00,95.47
3218.00,95.48
3217.00,95.49
3216.00,95.49
3215.00,95.48
3214.00,95.47
3213.00,95.45
3212.00,95.44
3211.00,95.44
3210.00,95.45
3209.00,95.45
3208.00,95.45
3207.00,95.44
3206.00,95.42
3205.00,95.41
3204.00,95.40
3203.00,95.39
3202.00,95.40
3201.00,95.41
3200.00,95.43
3199.00,95.43
3198.00,95.43
3197.00,95.43
3196.00,95.45
3195.00,95.47
3194.00,95.48
3193.00,95.48
3192.00,95.45
3191.00,95.43
3190.00,95.41
3189.00,95.39
3188.00,95.38
3187.00,95.38
3186.00,95.41
3185.00,95.46
3184.00,95.50
3183.00,95.52
3182.00,95.50
3181.00,95.47
3180.00,95.45
3179.00,95.45
3178.00,95.47
3177.00,95.48
3176.00,95.50
3175.00,95.52
3174.00,95.54
3173.00,95.54
3172.00,95.54
3171.00,95.52
3170.00,95.51
3169.00,95.51
3168.00,95.51
3167.00,95.52
3166.00,95.52
3165.00,95.53
3164.00,95.54
3163.00,95.55
3162.00,95.56
3161.00,95.57
3160.00,95.58
3159.00,95.59
3158.00,95.60
3157.00,95.61
3156.00,95.61
3155.00,95.61
3154.00,95.61
3153.00,95.61
3152.00,95.62
3151.00,95.62
3150.00,95.62
3149.00,95.62
3148.00,95.63
3147.00,95.65
3146.00,95.68
3145.00,95.69
3144.00,95.70
3143.00,95.71
3142.00,95.71
3141.00,95.72
3140.00,95.73
3139.00,95.73
3138.00,95.74
3137.00,95.73
3136.00,95.72
3135.00,95.71
3134.00,95.71
3133.00,95.71
3132.00,95.72
3131.00,95.73
3130.00,95.73
3129.00,95.74
3128.00,95.75
3127.00,95.75
3126.00,95.74
3125.00,95.74
3124.00,95.73
3123.00,95.74
3122.00,95.75
3121.00,95.77
3120.00,95.78
3119.00,95.79
3118.00,95.80
3117.00,95.80
3116.00,95.79
3115.00,95.78
3114.00,95.76
3113.00,95.75
3112.00,95.74
3111.00,95.75
3110.00,95.75
3109.00,95.75
3108.00,95.76
3107.00,95.76
3106.00,95.76
3105.00,95.77
3104.00,95.77
3103.00,95.78
3102.00,95.78
3101.00,95.77
3100.00,95.76
3099.00,95.76
3098.00,95.77
3097.00,95.77
3096.00,95.76
3095.00,95.74
3094.00,95.73
3093.00,95.74
3092.00,95.74
3091.00,95.74
3090.00,95.74
3089.00,95.73
3088.00,95.73
3087.00,95.73
3086.00,95.74
3085.00,95.73
3084.00,95.73
3083.00,95.73
3082.00,95.73
3081.00,95.72
3080.00,95.71
3079.00,95.70
3078.00,95.70
3077.00,95.70
3076.00,95.70
3075.00,95.70
3074.00,95.71
3073.00,95.73
3072.00,95.74
3071.00,95.74
3070.00,95.73
3069.00,95.73
3068.00,95.74
3067.00,95.75
3066.00,95.75
3065.00,95.73
3064.00,95.72
3063.00,95.71
3062.00,95.72
3061.00,95.72
3060.00,95.72
3059.00,95.71
3058.00,95.71
3057.00,95.70
3056.00,95.70
3055.00,95.70
3054.00,95.71
3053.00,95.73
3052.00,95.74
3051.00,95.74
3050.00,95.73
3049.00,95.73
3048.00,95.72
3047.00,95.72
3046.00,95.72
3045.00,95.72
3044.00,95.72
3043.00,95.72
3042.00,95.72
3041.00,95.73
3040.00,95.72
3039.00,95.72
3038.00,95.71
3037.00,95.70
3036.00,95.70
3035.00,95.69
3034.00,95.68
3033.00,95.68
3032.00,95.68
3031.00,95.68
3030.00,95.67
3029.00,95.65
3028.00,95.64
3027.00,95.64
3026.00,95.63
3025.00,95.63
3024.00,95.63
3023.00,95.64
3022.00,95.64
3021.00,95.64
3020.00,95.64
3019.00,95.62
3018.00,95.59
3017.00,95.56
3016.00,95.53
3015.00,95.52
3014.00,95.51
3013.00,95.50
3012.00,95.47
3011.00,95.45
3010.00,95.42
3009.00,95.40
3008.00,95.39
3007.00,95.37
3006.00,95.36
3005.00,95.34
3004.00,95.31
3003.00,95.27
3002.00,95.23
3001.00,95.20
3000.00,95.19
2999.00,95.18
2998.00,95.16
2997.00,95.11
2996.00,95.07
2995.00,95.04
2994.00,95.01
2993.00,94.98
2992.00,94.95
2991.00,94.92
2990.00,94.89
2989.00,94.86
2988.00,94.83
2987.00,94.79
2986.00,94.75
2985.00,94.70
2984.00,94.67
2983.00,94.64
2982.00,94.62
2981.00,94.60
2980.00,94.59
2979.00,94.58
2978.00,94.56
2977.00,94.54
2976.00,94.51
2975.00,94.48
2974.00,94.44
2973.00,94.41
2972.00,94.40
2971.00,94.38
2970.00,94.37
2969.00,94.36
2968.00,94.34
2967.00,94.32
2966.00,94.29
2965.00,94.25
2964.00,94.20
2963.00,94.15
2962.00,94.11
2961.00,94.08
2960.00,94.06
2959.00,94.04
2958.00,94.02
2957.00,93.99
2956.00,93.96
2955.00,93.93
2954.00,93.89
2953.00,93.85
2952.00,93.80
2951.00,93.76
2950.00,93.72
2949.00,93.67
2948.00,93.62
2947.00,93.55
2946.00,93.47
2945.00,93.39
2944.00,93.30
2943.00,93.21
2942.00,93.11
2941.00,93.02
2940.00,92.91
2939.00,92.80
2938.00,92.68
2937.00,92.57
2936.00,92.48
2935.00,92.41
2934.00,92.37
2933.00,92.33
2932.00,92.27
2931.00,92.20
2930.00,92.10
2929.00,92.01
2928.00,91.92
2927.00,91.87
2926.00,91.84
2925.00,91.84
2924.00,91.86
2923.00,91.89
2922.00,91.95
2921.00,92.03
2920.00,92.15
2919.00,92.30
2918.00,92.48
2917.00,92.68
2916.00,92.87
2915.00,93.06
2914.00,93.23
2913.00,93.40
2912.00,93.56
2911.00,93.70
2910.00,93.84
2909.00,93.97
2908.00,94.08
2907.00,94.16
2906.00,94.23
2905.00,94.30
2904.00,94.37
2903.00,94.44
2902.00,94.51
2901.00,94.56
2900.00,94.61
2899.00,94.66
2898.00,94.70
2897.00,94.75
2896.00,94.79
2895.00,94.82
2894.00,94.86
2893.00,94.90
2892.00,94.94
2891.00,94.98
2890.00,95.01
2889.00,95.02
2888.00,95.02
2887.00,95.03
2886.00,95.04
2885.00,95.06
2884.00,95.09
2883.00,95.11
2882.00,95.12
2881.00,95.12
2880.00,95.11
2879.00,95.09
2878.00,95.08
2877.00,95.07
2876.00,95.06
2875.00,95.05
2874.00,95.03
2873.00,95.01
2872.00,95.00
2871.00,94.99
2870.00,94.98
2869.00,94.98
2868.00,94.98
2867.00,94.98
2866.00,94.97
2865.00,94.94
2864.00,94.89
2863.00,94.84
2862.00,94.79
2861.00,94.74
2860.00,94.69
2859.00,94.63
2858.00,94.55
2857.00,94.46
2856.00,94.38
2855.00,94.32
2854.00,94.28
2853.00,94.28
2852.00,94.32
2851.00,94.39
2850.00,94.49
2849.00,94.61
2848.00,94.74
2847.00,94.86
2846.00,94.96
2845.00,95.06
2844.00,95.16
2843.00,95.25
2842.00,95.35
2841.00,95.43
2840.00,95.49
2839.00,95.55
2838.00,95.59
2837.00,95.63
2836.00,95.66
2835.00,95.69
2834.00,95.72
2833.00,95.75
2832.00,95.78
2831.00,95.81
2830.00,95.83
2829.00,95.84
2828.00,95.86
2827.00,95.87
2826.00,95.88
2825.00,95.88
2824.00,95.88
2823.00,95.87
2822.00,95.86
2821.00,95.86
2820.00,95.87
2819.00,95.89
2818.00,95.91
2817.00,95.94
2816.00,95.95
2815.00,95.96
2814.00,95.96
2813.00,95.95
2812.00,95.95
2811.00,95.94
2810.00,95.94
2809.00,95.95
2808.00,95.95
2807.00,95.97
2806.00,95.99
2805.00,96.00
2804.00,96.01
2803.00,96.01
2802.00,96.01
2801.00,96.01
2800.00,96.01
2799.00,96.01
2798.00,96.01
2797.00,96.02
2796.00,96.02
2795.00,96.02
2794.00,96.01
2793.00,96.00
2792.00,95.99
2791.00,95.99
2790.00,95.99
2789.00,96.00
2788.00,96.02
2787.00,96.04
2786.00,96.05
2785.00,96.06
2784.00,96.06
2783.00,96.06
2782.00,96.08
2781.00,96.09
2780.00,96.10
2779.00,96.10
2778.00,96.09
2777.00,96.09
2776.00,96.09
2775.00,96.11
2774.00,96.12
2773.00,96.13
2772.00,96.14
2771.00,96.15
2770.00,96.16
2769.00,96.16
2768.00,96.17
2767.00,96.16
2766.00,96.14
2765.00,96.13
2764.00,96.13
2763.00,96.15
2762.00,96.17
2761.00,96.18
2760.00,96.18
2759.00,96.17
2758.00,96.17
2757.00,96.16
2756.00,96.15
2755.00,96.13
2754.00,96.13
2753.00,96.14
2752.00,96.15
2751.00,96.16
2750.00,96.15
2749.00,96.14
2748.00,96.13
2747.00,96.13
2746.00,96.13
2745.00,96.13
2744.00,96.13
2743.00,96.12
2742.00,96.12
2741.00,96.13
2740.00,96.14
2739.00,96.15
2738.00,96.16
2737.00,96.16
2736.00,96.16
2735.00,96.15
2734.00,96.14
2733.00,96.13
2732.00,96.14
2731.00,96.16
2730.00,96.17
2729.00,96.17
2728.00,96.16
2727.00,96.14
2726.00,96.14
2725.00,96.14
2724.00,96.14
2723.00,96.15
2722.00,96.16
2721.00,96.16
2720.00,96.15
2719.00,96.14
2718.00,96.13
2717.00,96.13
2716.00,96.14
2715.00,96.16
2714.00,96.18
2713.00,96.19
2712.00,96.20
2711.00,96.19
2710.00,96.19
2709.00,96.18
2708.00,96.17
2707.00,96.16
2706.00,96.15
2705.00,96.15
2704.00,96.15
2703.00,96.14
2702.00,96.14
2701.00,96.14
2700.00,96.15
2699.00,96.16
2698.00,96.17
2697.00,96.18
2696.00,96.19
2695.00,96.20
2694.00,96.21
2693.00,96.21
2692.00,96.20
2691.00,96.20
2690.00,96.20
2689.00,96.20
2688.00,96.20
2687.00,96.20
2686.00,96.20
2685.00,96.19
2684.00,96.18
2683.00,96.17
2682.00,96.16
2681.00,96.16
2680.00,96.17
2679.00,96.18
2678.00,96.20
2677.00,96.22
2676.00,96.23
2675.00,96.23
2674.00,96.22
2673.00,96.21
2672.00,96.20
2671.00,96.20
2670.00,96.21
2669.00,96.21
2668.00,96.22
2667.00,96.22
2666.00,96.22
2665.00,96.22
2664.00,96.20
2663.00,96.19
2662.00,96.17
2661.00,96.17
2660.00,96.16
2659.00,96.16
2658.00,96.15
2657.00,96.15
2656.00,96.13
2655.00,96.12
2654.00,96.09
2653.00,96.08
2652.00,96.07
2651.00,96.07
2650.00,96.07
2649.00,96.06
2648.00,96.05
2647.00,96.03
2646.00,96.01
2645.00,96.00
2644.00,95.98
2643.00,95.97
2642.00,95.95
2641.00,95.93
2640.00,95.92
2639.00,95.91
2638.00,95.92
2637.00,95.93
2636.00,95.94
2635.00,95.95
2634.00,95.94
2633.00,95.92
2632.00,95.89
2631.00,95.87
2630.00,95.84
2629.00,95.83
2628.00,95.82
2627.00,95.83
2626.00,95.83
2625.00,95.83
2624.00,95.82
2623.00,95.82
2622.00,95.82
2621.00,95.81
2620.00,95.79
2619.00,95.77
2618.00,95.75
2617.00,95.75
2616.00,95.76
2615.00,95.78
2614.00,95.80
2613.00,95.80
2612.00,95.79
2611.00,95.76
2610.00,95.74
2609.00,95.73
2608.00,95.73
2607.00,95.74
2606.00,95.75
2605.00,95.75
2604.00,95.75
2603.00,95.74
2602.00,95.73
2601.00,95.71
2600.00,95.70
2599.00,95.69
2598.00,95.68
2597.00,95.68
2596.00,95.68
2595.00,95.68
2594.00,95.67
2593.00,95.67
2592.00,95.67
2591.00,95.67
2590.00,95.66
2589.00,95.64
2588.00,95.63
2587.00,95.63
2586.00,95.64
2585.00,95.64
2584.00,95.62
2583.00,95.61
2582.00,95.61
2581.00,95.61
2580.00,95.61
2579.00,95.61
2578.00,95.60
2577.00,95.59
2576.00,95.59
2575.00,95.59
2574.00,95.59
2573.00,95.59
2572.00,95.59
2571.00,95.60
2570.00,95.61
2569.00,95.60
2568.00,95.57
2567.00,95.54
2566.00,95.52
2565.00,95.51
2564.00,95.51
2563.00,95.50
2562.00,95.49
2561.00,95.48
2560.00,95.50
2559.00,95.54
2558.00,95.58
2557.00,95.60
2556.00,95.60
2555.00,95.58
2554.00,95.56
2553.00,95.55
2552.00,95.53
2551.00,95.53
2550.00,95.52
2549.00,95.52
2548.00,95.50
2547.00,95.48
2546.00,95.48
2545.00,95.50
2544.00,95.53
2543.00,95.55
2542.00,95.58
2541.00,95.59
2540.00,95.59
2539.00,95.59
2538.00,95.60
2537.00,95.61
2536.00,95.61
2535.00,95.58
2534.00,95.55
2533.00,95.52
2532.00,95.51
2531.00,95.53
2530.00,95.55
2529.00,95.55
2528.00,95.54
2527.00,95.53
2526.00,95.52
2525.00,95.52
2524.00,95.54
2523.00,95.55
2522.00,95.55
2521.00,95.54
2520.00,95.53
2519.00,95.54
2518.00,95.56
2517.00,95.59
2516.00,95.61
2515.00,95.59
2514.00,95.56
2513.00,95.53
2512.00,95.52
2511.00,95.53
2510.00,95.54
2509.00,95.55
2508.00,95.55
2507.00,95.56
2506.00,95.56
2505.00,95.55
2504.00,95.54
2503.00,95.52
2502.00,95.51
2501.00,95.51
2500.00,95.51
2499.00,95.53
2498.00,95.56
2497.00,95.58
2496.00,95.60
2495.00,95.59
2494.00,95.59
2493.00,95.58
2492.00,95.59
2491.00,95.59
2490.00,95.60
2489.00,95.60
2488.00,95.58
2487.00,95.56
2486.00,95.55
2485.00,95.55
2484.00,95.57
2483.00,95.60
2482.00,95.62
2481.00,95.62
2480.00,95.62
2479.00,95.61
2478.00,95.60
2477.00,95.59
2476.00,95.59
2475.00,95.59
2474.00,95.59
2473.00,95.60
2472.00,95.60
2471.00,95.60
2470.00,95.59
2469.00,95.57
2468.00,95.57
2467.00,95.58
2466.00,95.60
2465.00,95.62
2464.00,95.64
2463.00,95.65
2462.00,95.66
2461.00,95.66
2460.00,95.65
2459.00,95.63
2458.00,95.60
2457.00,95.57
2456.00,95.55
2455.00,95.54
2454.00,95.54
2453.00,95.55
2452.00,95.57
2451.00,95.59
2450.00,95.62
2449.00,95.64
2448.00,95.65
2447.00,95.66
2446.00,95.66
2445.00,95.65
2444.00,95.64
2443.00,95.63
2442.00,95.62
2441.00,95.61
2440.00,95.60
2439.00,95.60
2438.00,95.61
2437.00,95.62
2436.00,95.63
2435.00,95.64
2434.00,95.64
2433.00,95.65
2432.00,95.67
2431.00,95.68
2430.00,95.69
2429.00,95.68
2428.00,95.66
2427.00,95.63
2426.00,95.62
2425.00,95.63
2424.00,95.64
2423.00,95.66
2422.00,95.67
2421.00,95.69
2420.00,95.70
2419.00,95.70
2418.00,95.71
2417.00,95.72
2416.00,95.73
2415.00,95.73
2414.00,95.73
2413.00,95.73
2412.00,95.74
2411.00,95.76
2410.00,95.79
2409.00,95.81
2408.00,95.82
2407.00,95.82
2406.00,95.81
2405.00,95.80
2404.00,95.80
2403.00,95.81
2402.00,95.83
2401.00,95.85
2400.00,95.87
2399.00,95.89
2398.00,95.89
2397.00,95.91
2396.00,95.92
2395.00,95.94
2394.00,95.95
2393.00,95.96
2392.00,95.95
2391.00,95.95
2390.00,95.94
2389.00,95.95
2388.00,95.96
2387.00,95.98
2386.00,96.00
2385.00,96.03
2384.00,96.05
2383.00,96.07
2382.00,96.08
2381.00,96.10
2380.00,96.11
2379.00,96.12
2378.00,96.13
2377.00,96.15
2376.00,96.18
2375.00,96.23
2374.00,96.26
2373.00,96.26
2372.00,96.22
2371.00,96.18
2370.00,96.16
2369.00,96.18
2368.00,96.21
2367.00,96.25
2366.00,96.30
2365.00,96.36
2364.00,96.40
2363.00,96.39
2362.00,96.31
2361.00,96.24
2360.00,96.21
2359.00,96.23
2358.00,96.27
2357.00,96.29
2356.00,96.27
2355.00,96.22
2354.00,96.20
2353.00,96.19
2352.00,96.21
2351.00,96.23
2350.00,96.24
2349.00,96.24
2348.00,96.25
2347.00,96.26
2346.00,96.28
2345.00,96.29
2344.00,96.27
2343.00,96.23
2342.00,96.20
2341.00,96.21
2340.00,96.24
2339.00,96.27
2338.00,96.29
2337.00,96.30
2336.00,96.27
2335.00,96.21
2334.00,96.13
2333.00,96.09
2332.00,96.10
2331.00,96.12
2330.00,96.13
2329.00,96.10
2328.00,96.05
2327.00,95.99
2326.00,95.93
2325.00,95.87
2324.00,95.83
2323.00,95.82
2322.00,95.84
2321.00,95.86
2320.00,95.87
2319.00,95.89
2318.00,95.90
2317.00,95.92
2316.00,95.92
2315.00,95.92
2314.00,95.92
2313.00,95.93
2312.00,95.94
2311.00,95.93
2310.00,95.90
2309.00,95.86
2308.00,95.83
2307.00,95.81
2306.00,95.79
2305.00,95.77
2304.00,95.75
2303.00,95.73
2302.00,95.72
2301.00,95.71
2300.00,95.69
2299.00,95.67
2298.00,95.63
2297.00,95.60
2296.00,95.57
2295.00,95.54
2294.00,95.52
2293.00,95.48
2292.00,95.46
2291.00,95.44
2290.00,95.42
2289.00,95.39
2288.00,95.35
2287.00,95.29
2286.00,95.22
2285.00,95.16
2284.00,95.14
2283.00,95.14
2282.00,95.14
2281.00,95.13
2280.00,95.10
2279.00,95.06
2278.00,95.04
2277.00,95.04
2276.00,95.06
2275.00,95.06
2274.00,95.05
2273.00,95.01
2272.00,94.95
2271.00,94.89
2270.00,94.84
2269.00,94.82
2268.00,94.81
2267.00,94.79
2266.00,94.76
2265.00,94.71
2264.00,94.65
2263.00,94.56
2262.00,94.45
2261.00,94.32
2260.00,94.17
2259.00,94.01
2258.00,93.84
2257.00,93.67
2256.00,93.48
2255.00,93.25
2254.00,92.98
2253.00,92.66
2252.00,92.33
2251.00,91.99
2250.00,91.65
2249.00,91.31
2248.00,91.02
2247.00,90.79
2246.00,90.64
2245.00,90.57
2244.00,90.59
2243.00,90.71
2242.00,90.92
2241.00,91.22
2240.00,91.57
2239.00,91.96
2238.00,92.35
2237.00,92.73
2236.00,93.09
2235.00,93.40
2234.00,93.65
2233.00,93.84
2232.00,93.99
2231.00,94.10
2230.00,94.18
2229.00,94.23
2228.00,94.26
2227.00,94.27
2226.00,94.26
2225.00,94.24
2224.00,94.25
2223.00,94.28
2222.00,94.33
2221.00,94.36
2220.00,94.33
2219.00,94.27
2218.00,94.21
2217.00,94.17
2216.00,94.14
2215.00,94.12
2214.00,94.10
2213.00,94.10
2212.00,94.12
2211.00,94.15
2210.00,94.19
2209.00,94.21
2208.00,94.20
2207.00,94.19
2206.00,94.18
2205.00,94.17
2204.00,94.12
2203.00,94.04
2202.00,93.94
2201.00,93.84
2200.00,93.78
2199.00,93.76
2198.00,93.79
2197.00,93.84
2196.00,93.87
2195.00,93.85
2194.00,93.77
2193.00,93.67
2192.00,93.59
2191.00,93.53
2190.00,93.50
2189.00,93.48
2188.00,93.49
2187.00,93.52
2186.00,93.58
2185.00,93.64
2184.00,93.64
2183.00,93.60
2182.00,93.55
2181.00,93.54
2180.00,93.58
2179.00,93.62
2178.00,93.65
2177.00,93.66
2176.00,93.65
2175.00,93.62
2174.00,93.57
2173.00,93.55
2172.00,93.54
2171.00,93.52
2170.00,93.47
2169.00,93.41
2168.00,93.36
2167.00,93.29
2166.00,93.20
2165.00,93.11
2164.00,93.03
2163.00,92.97
2162.00,92.91
2161.00,92.89
2160.00,92.95
2159.00,93.10
2158.00,93.29
2157.00,93.46
2156.00,93.58
2155.00,93.67
2154.00,93.77
2153.00,93.86
2152.00,93.94
2151.00,93.97
2150.00,94.00
2149.00,94.03
2148.00,94.09
2147.00,94.14
2146.00,94.19
2145.00,94.24
2144.00,94.30
2143.00,94.37
2142.00,94.44
2141.00,94.48
2140.00,94.50
2139.00,94.52
2138.00,94.56
2137.00,94.63
2136.00,94.71
2135.00,94.79
2134.00,94.88
2133.00,94.97
2132.00,95.04
2131.00,95.08
2130.00,95.07
2129.00,95.04
2128.00,95.02
2127.00,95.02
2126.00,95.04
2125.00,95.06
2124.00,95.08
2123.00,95.10
2122.00,95.11
2121.00,95.13
2120.00,95.15
2119.00,95.16
2118.00,95.15
2117.00,95.12
2116.00,95.08
2115.00,95.03
2114.00,95.00
2113.00,94.99
2112.00,95.00
2111.00,95.01
2110.00,94.99
2109.00,94.97
2108.00,94.96
2107.00,94.96
2106.00,94.98
2105.00,95.00
2104.00,95.01
2103.00,95.00
2102.00,94.97
2101.00,94.94
2100.00,94.92
2099.00,94.93
2098.00,94.95
2097.00,94.98
2096.00,95.02
2095.00,95.04
2094.00,95.05
2093.00,95.05
2092.00,95.05
2091.00,95.06
2090.00,95.05
2089.00,95.03
2088.00,94.99
2087.00,94.97
2086.00,94.98
2085.00,95.00
2084.00,95.02
2083.00,95.00
2082.00,94.96
2081.00,94.91
2080.00,94.87
2079.00,94.84
2078.00,94.82
2077.00,94.82
2076.00,94.82
2075.00,94.81
2074.00,94.78
2073.00,94.74
2072.00,94.71
2071.00,94.70
2070.00,94.73
2069.00,94.77
2068.00,94.78
2067.00,94.75
2066.00,94.67
2065.00,94.60
2064.00,94.57
2063.00,94.59
2062.00,94.63
2061.00,94.64
2060.00,94.63
2059.00,94.60
2058.00,94.59
2057.00,94.59
2056.00,94.59
2055.00,94.58
2054.00,94.54
2053.00,94.47
2052.00,94.40
2051.00,94.33
2050.00,94.26
2049.00,94.20
2048.00,94.16
2047.00,94.11
2046.00,94.05
2045.00,93.96
2044.00,93.89
2043.00,93.85
2042.00,93.84
2041.00,93.84
2040.00,93.79
2039.00,93.71
2038.00,93.61
2037.00,93.54
2036.00,93.50
2035.00,93.48
2034.00,93.47
2033.00,93.48
2032.00,93.53
2031.00,93.57
2030.00,93.60
2029.00,93.60
2028.00,93.61
2027.00,93.64
2026.00,93.65
2025.00,93.63
2024.00,93.60
2023.00,93.59
2022.00,93.61
2021.00,93.64
2020.00,93.67
2019.00,93.66
2018.00,93.63
2017.00,93.58
2016.00,93.55
2015.00,93.57
2014.00,93.63
2013.00,93.70
2012.00,93.75
2011.00,93.76
2010.00,93.78
2009.00,93.79
2008.00,93.82
2007.00,93.87
2006.00,93.95
2005.00,94.03
2004.00,94.08
2003.00,94.09
2002.00,94.08
2001.00,94.09
2000.00,94.11
1999.00,94.13
1998.00,94.13
1997.00,94.14
1996.00,94.17
1995.00,94.21
1994.00,94.21
1993.00,94.17
1992.00,94.11
1991.00,94.08
1990.00,94.06
1989.00,94.06
1988.00,94.04
1987.00,94.00
1986.00,93.95
1985.00,93.93
1984.00,93.94
1983.00,93.92
1982.00,93.84
1981.00,93.73
1980.00,93.63
1979.00,93.60
1978.00,93.63
1977.00,93.70
1976.00,93.75
1975.00,93.80
1974.00,93.83
1973.00,93.88
1972.00,93.91
1971.00,93.94
1970.00,93.96
1969.00,94.01
1968.00,94.09
1967.00,94.16
1966.00,94.22
1965.00,94.27
1964.00,94.33
1963.00,94.40
1962.00,94.47
1961.00,94.52
1960.00,94.57
1959.00,94.61
1958.00,94.63
1957.00,94.63
1956.00,94.64
1955.00,94.66
1954.00,94.70
1953.00,94.72
1952.00,94.74
1951.00,94.76
1950.00,94.79
1949.00,94.81
1948.00,94.82
1947.00,94.82
1946.00,94.82
1945.00,94.84
1944.00,94.87
1943.00,94.93
1942.00,95.00
1941.00,95.08
1940.00,95.14
1939.00,95.18
1938.00,95.19
1937.00,95.18
1936.00,95.15
1935.00,95.13
1934.00,95.14
1933.00,95.18
1932.00,95.24
1931.00,95.29
1930.00,95.32
1929.00,95.34
1928.00,95.35
1927.00,95.37
1926.00,95.40
1925.00,95.44
1924.00,95.47
1923.00,95.49
1922.00,95.49
1921.00,95.47
1920.00,95.46
1919.00,95.45
1918.00,95.45
1917.00,95.46
1916.00,95.46
1915.00,95.47
1914.00,95.49
1913.00,95.53
1912.00,95.58
1911.00,95.61
1910.00,95.63
1909.00,95.63
1908.00,95.64
1907.00,95.64
1906.00,95.64
1905.00,95.63
1904.00,95.64
1903.00,95.65
1902.00,95.67
1901.00,95.69
1900.00,95.70
1899.00,95.71
1898.00,95.73
1897.00,95.75
1896.00,95.78
1895.00,95.79
1894.00,95.80
1893.00,95.82
1892.00,95.84
1891.00,95.86
1890.00,95.88
1889.00,95.88
1888.00,95.88
1887.00,95.88
1886.00,95.90
1885.00,95.90
1884.00,95.89
1883.00,95.87
1882.00,95.84
1881.00,95.84
1880.00,95.85
1879.00,95.87
1878.00,95.88
1877.00,95.89
1876.00,95.89
1875.00,95.88
1874.00,95.88
1873.00,95.88
1872.00,95.88
1871.00,95.88
1870.00,95.90
1869.00,95.91
1868.00,95.93
1867.00,95.94
1866.00,95.94
1865.00,95.95
1864.00,95.96
1863.00,95.98
1862.00,95.99
1861.00,96.00
1860.00,95.99
1859.00,95.97
1858.00,95.96
1857.00,95.96
1856.00,95.98
1855.00,96.00
1854.00,96.03
1853.00,96.05
1852.00,96.07
1851.00,96.08
1850.00,96.08
1849.00,96.08
1848.00,96.09
1847.00,96.11
1846.00,96.13
1845.00,96.14
1844.00,96.14
1843.00,96.13
1842.00,96.12
1841.00,96.12
1840.00,96.13
1839.00,96.14
1838.00,96.15
1837.00,96.15
1836.00,96.15
1835.00,96.15
1834.00,96.17
1833.00,96.19
1832.00,96.21
1831.00,96.22
1830.00,96.21
1829.00,96.19
1828.00,96.17
1827.00,96.16
1826.00,96.15
1825.00,96.15
1824.00,96.16
1823.00,96.18
1822.00,96.20
1821.00,96.22
1820.00,96.23
1819.00,96.25
1818.00,96.28
1817.00,96.29
1816.00,96.30
1815.00,96.30
1814.00,96.29
1813.00,96.29
1812.00,96.30
1811.00,96.30
1810.00,96.31
1809.00,96.31
1808.00,96.30
1807.00,96.31
1806.00,96.33
1805.00,96.35
1804.00,96.37
1803.00,96.37
1802.00,96.35
1801.00,96.34
1800.00,96.35
1799.00,96.37
1798.00,96.38
1797.00,96.38
1796.00,96.37
1795.00,96.35
1794.00,96.34
1793.00,96.33
1792.00,96.33
1791.00,96.34
1790.00,96.35
1789.00,96.35
1788.00,96.34
1787.00,96.32
1786.00,96.30
1785.00,96.30
1784.00,96.30
1783.00,96.31
1782.00,96.32
1781.00,96.32
1780.00,96.32
1779.00,96.32
1778.00,96.33
1777.00,96.33
1776.00,96.33
1775.00,96.33
1774.00,96.33
1773.00,96.32
1772.00,96.32
1771.00,96.33
1770.00,96.33
1769.00,96.33
1768.00,96.31
1767.00,96.29
1766.00,96.27
1765.00,96.27
1764.00,96.27
1763.00,96.24
1762.00,96.20
1761.00,96.17
1760.00,96.15
1759.00,96.13
1758.00,96.11
1757.00,96.07
1756.00,96.02
1755.00,95.97
1754.00,95.93
1753.00,95.87
1752.00,95.78
1751.00,95.65
1750.00,95.50
1749.00,95.34
1748.00,95.18
1747.00,95.02
1746.00,94.86
1745.00,94.68
1744.00,94.49
1743.00,94.28
1742.00,94.07
1741.00,93.84
1740.00,93.61
1739.00,93.38
1738.00,93.20
1737.00,93.04
1736.00,92.88
1735.00,92.68
1734.00,92.48
1733.00,92.34
1732.00,92.26
1731.00,92.20
1730.00,92.17
1729.00,92.15
1728.00,92.17
1727.00,92.20
1726.00,92.26
1725.00,92.35
1724.00,92.48
1723.00,92.62
1722.00,92.77
1721.00,92.90
1720.00,93.05
1719.00,93.21
1718.00,93.41
1717.00,93.61
1716.00,93.81
1715.00,93.99
1714.00,94.17
1713.00,94.32
1712.00,94.43
1711.00,94.54
1710.00,94.65
1709.00,94.77
1708.00,94.89
1707.00,95.00
1706.00,95.11
1705.00,95.21
1704.00,95.30
1703.00,95.38
1702.00,95.46
1701.00,95.52
1700.00,95.56
1699.00,95.60
1698.00,95.63
1697.00,95.66
1696.00,95.69
1695.00,95.72
1694.00,95.75
1693.00,95.77
1692.00,95.78
1691.00,95.79
1690.00,95.80
1689.00,95.80
1688.00,95.80
1687.00,95.81
1686.00,95.81
1685.00,95.81
1684.00,95.81
1683.00,95.81
1682.00,95.80
1681.00,95.78
1680.00,95.75
1679.00,95.74
1678.00,95.74
1677.00,95.73
1676.00,95.72
1675.00,95.69
1674.00,95.69
1673.00,95.68
1672.00,95.67
1671.00,95.64
1670.00,95.59
1669.00,95.52
1668.00,95.47
1667.00,95.43
1666.00,95.40
1665.00,95.37
1664.00,95.33
1663.00,95.29
1662.00,95.25
1661.00,95.22
1660.00,95.20
1659.00,95.19
1658.00,95.19
1657.00,95.20
1656.00,95.23
1655.00,95.25
1654.00,95.24
1653.00,95.20
1652.00,95.17
1651.00,95.16
1650.00,95.16
1649.00,95.16
1648.00,95.14
1647.00,95.10
1646.00,95.07
1645.00,95.05
1644.00,95.02
1643.00,95.00
1642.00,94.98
1641.00,94.97
1640.00,94.95
1639.00,94.94
1638.00,94.91
1637.00,94.87
1636.00,94.80
1635.00,94.73
1634.00,94.70
1633.00,94.67
1632.00,94.67
1631.00,94.68
1630.00,94.71
1629.00,94.76
1628.00,94.81
1627.00,94.87
1626.00,94.93
1625.00,94.98
1624.00,95.04
1623.00,95.09
1622.00,95.12
1621.00,95.14
1620.00,95.15
1619.00,95.17
1618.00,95.18
1617.00,95.20
1616.00,95.24
1615.00,95.28
1614.00,95.33
1613.00,95.36
1612.00,95.39
1611.00,95.43
1610.00,95.47
1609.00,95.50
1608.00,95.53
1607.00,95.54
1606.00,95.54
1605.00,95.55
1604.00,95.57
1603.00,95.60
1602.00,95.63
1601.00,95.65
1600.00,95.67
1599.00,95.70
1598.00,95.74
1597.00,95.79
1596.00,95.84
1595.00,95.88
1594.00,95.91
1593.00,95.93
1592.00,95.94
1591.00,95.96
1590.00,95.98
1589.00,95.99
1588.00,96.00
1587.00,96.00
1586.00,96.01
1585.00,96.02
1584.00,96.03
1583.00,96.04
1582.00,96.06
1581.00,96.07
1580.00,96.08
1579.00,96.10
1578.00,96.10
1577.00,96.09
1576.00,96.09
1575.00,96.09
1574.00,96.12
1573.00,96.14
1572.00,96.16
1571.00,96.17
1570.00,96.18
1569.00,96.20
1568.00,96.21
1567.00,96.21
1566.00,96.21
1565.00,96.22
1564.00,96.23
1563.00,96.24
1562.00,96.24
1561.00,96.23
1560.00,96.21
1559.00,96.20
1558.00,96.24
1557.00,96.26
1556.00,96.26
1555.00,96.26
1554.00,96.25
1553.00,96.25
1552.00,96.25
1551.00,96.25
1550.00,96.26
1549.00,96.27
1548.00,96.29
1547.00,96.31
1546.00,96.32
1545.00,96.32
1544.00,96.31
1543.00,96.30
1542.00,96.30
1541.00,96.30
1540.00,96.30
1539.00,96.31
1538.00,96.31
1537.00,96.31
1536.00,96.31
1535.00,96.31
1534.00,96.29
1533.00,96.27
1532.00,96.26
1531.00,96.25
1530.00,96.24
1529.00,96.23
1528.00,96.22
1527.00,96.23
1526.00,96.23
1525.00,96.23
1524.00,96.23
1523.00,96.22
1522.00,96.20
1521.00,96.17
1520.00,96.16
1519.00,96.15
1518.00,96.15
1517.00,96.16
1516.00,96.17
1515.00,96.18
1514.00,96.20
1513.00,96.21
1512.00,96.22
1511.00,96.24
1510.00,96.27
1509.00,96.28
1508.00,96.28
1507.00,96.28
1506.00,96.29
1505.00,96.30
1504.00,96.30
1503.00,96.30
1502.00,96.30
1501.00,96.31
1500.00,96.31
1499.00,96.32
1498.00,96.32
1497.00,96.31
1496.00,96.28
1495.00,96.26
1494.00,96.25
1493.00,96.25
1492.00,96.23
1491.00,96.20
1490.00,96.17
1489.00,96.13
1488.00,96.10
1487.00,96.09
1486.00,96.06
1485.00,96.03
1484.00,95.98
1483.00,95.93
1482.00,95.88
1481.00,95.82
1480.00,95.76
1479.00,95.71
1478.00,95.65
1477.00,95.56
1476.00,95.47
1475.00,95.39
1474.00,95.30
1473.00,95.18
1472.00,95.04
1471.00,94.92
1470.00,94.81
1469.00,94.71
1468.00,94.63
1467.00,94.57
1466.00,94.51
1465.00,94.43
1464.00,94.32
1463.00,94.18
1462.00,94.01
1461.00,93.82
1460.00,93.58
1459.00,93.30
1458.00,92.90
1457.00,92.39
1456.00,91.91
1455.00,91.55
1454.00,91.27
1453.00,91.00
1452.00,90.75
1451.00,90.54
1450.00,90.39
1449.00,90.26
1448.00,90.16
1447.00,90.09
1446.00,90.03
1445.00,89.98
1444.00,89.92
1443.00,89.88
1442.00,89.84
1441.00,89.80
1440.00,89.76
1439.00,89.74
1438.00,89.73
1437.00,89.74
1436.00,89.80
1435.00,89.91
1434.00,90.04
1433.00,90.17
1432.00,90.35
1431.00,90.57
1430.00,90.83
1429.00,91.10
1428.00,91.38
1427.00,91.65
1426.00,91.92
1425.00,92.20
1424.00,92.47
1423.00,92.72
1422.00,92.93
1421.00,93.14
1420.00,93.36
1419.00,93.60
1418.00,93.81
1417.00,93.97
1416.00,94.09
1415.00,94.21
1414.00,94.31
1413.00,94.40
1412.00,94.49
1411.00,94.58
1410.00,94.67
1409.00,94.77
1408.00,94.87
1407.00,94.95
1406.00,95.01
1405.00,95.07
1404.00,95.12
1403.00,95.16
1402.00,95.18
1401.00,95.18
1400.00,95.18
1399.00,95.18
1398.00,95.18
1397.00,95.17
1396.00,95.14
1395.00,95.10
1394.00,95.07
1393.00,95.05
1392.00,95.04
1391.00,95.03
1390.00,95.02
1389.00,94.98
1388.00,94.94
1387.00,94.88
1386.00,94.82
1385.00,94.77
1384.00,94.72
1383.00,94.66
1382.00,94.60
1381.00,94.54
1380.00,94.49
1379.00,94.43
1378.00,94.37
1377.00,94.32
1376.00,94.27
1375.00,94.22
1374.00,94.17
1373.00,94.12
1372.00,94.09
1371.00,94.06
1370.00,94.03
1369.00,94.00
1368.00,93.97
1367.00,93.94
1366.00,93.90
1365.00,93.87
1364.00,93.83
1363.00,93.79
1362.00,93.76
1361.00,93.74
1360.00,93.73
1359.00,93.72
1358.00,93.73
1357.00,93.73
1356.00,93.72
1355.00,93.72
1354.00,93.73
1353.00,93.74
1352.00,93.76
1351.00,93.78
1350.00,93.80
1349.00,93.83
1348.00,93.86
1347.00,93.90
1346.00,93.94
1345.00,93.98
1344.00,94.02
1343.00,94.07
1342.00,94.12
1341.00,94.17
1340.00,94.24
1339.00,94.30
1338.00,94.36
1337.00,94.41
1336.00,94.44
1335.00,94.47
1334.00,94.51
1333.00,94.54
1332.00,94.57
1331.00,94.59
1330.00,94.61
1329.00,94.63
1328.00,94.65
1327.00,94.69
1326.00,94.73
1325.00,94.78
1324.00,94.81
1323.00,94.82
1322.00,94.81
1321.00,94.80
1320.00,94.80
1319.00,94.81
1318.00,94.82
1317.00,94.82
1316.00,94.82
1315.00,94.81
1314.00,94.80
1313.00,94.78
1312.00,94.77
1311.00,94.76
1310.00,94.76
1309.00,94.76
1308.00,94.75
1307.00,94.73
1306.00,94.70
1305.00,94.66
1304.00,94.63
1303.00,94.60
1302.00,94.57
1301.00,94.55
1300.00,94.51
1299.00,94.46
1298.00,94.41
1297.00,94.37
1296.00,94.33
1295.00,94.30
1294.00,94.27
1293.00,94.24
1292.00,94.20
1291.00,94.15
1290.00,94.12
1289.00,94.08
1288.00,94.04
1287.00,93.99
1286.00,93.95
1285.00,93.91
1284.00,93.86
1283.00,93.80
1282.00,93.74
1281.00,93.67
1280.00,93.60
1279.00,93.54
1278.00,93.49
1277.00,93.44
1276.00,93.40
1275.00,93.35
1274.00,93.30
1273.00,93.25
1272.00,93.22
1271.00,93.19
1270.00,93.16
1269.00,93.14
1268.00,93.11
1267.00,93.08
1266.00,93.04
1265.00,93.01
1264.00,92.98
1263.00,92.94
1262.00,92.90
1261.00,92.85
1260.00,92.81
1259.00,92.77
1258.00,92.72
1257.00,92.68
1256.00,92.63
1255.00,92.56
1254.00,92.49
1253.00,92.41
1252.00,92.33
1251.00,92.26
1250.00,92.18
1249.00,92.10
1248.00,92.02
1247.00,91.95
1246.00,91.89
1245.00,91.81
1244.00,91.73
1243.00,91.65
1242.00,91.58
1241.00,91.52
1240.00,91.45
1239.00,91.39
1238.00,91.33
1237.00,91.29
1236.00,91.26
1235.00,91.24
1234.00,91.24
1233.00,91.23
1232.00,91.22
1231.00,91.19
1230.00,91.14
1229.00,91.10
1228.00,91.07
1227.00,91.04
1226.00,91.02
1225.00,91.00
1224.00,90.98
1223.00,90.95
1222.00,90.90
1221.00,90.84
1220.00,90.79
1219.00,90.77
1218.00,90.77
1217.00,90.77
1216.00,90.76
1215.00,90.74
1214.00,90.71
1213.00,90.69
1212.00,90.66
1211.00,90.63
1210.00,90.60
1209.00,90.58
1208.00,90.57
1207.00,90.57
1206.00,90.57
1205.00,90.58
1204.00,90.59
1203.00,90.62
1202.00,90.66
1201.00,90.72
1200.00,90.78
1199.00,90.83
1198.00,90.89
1197.00,90.95
1196.00,91.01
1195.00,91.06
1194.00,91.10
1193.00,91.13
1192.00,91.18
1191.00,91.23
1190.00,91.27
1189.00,91.30
1188.00,91.34
1187.00,91.37
1186.00,91.41
1185.00,91.44
1184.00,91.45
1183.00,91.46
1182.00,91.48
1181.00,91.49
1180.00,91.50
1179.00,91.49
1178.00,91.47
1177.00,91.46
1176.00,91.44
1175.00,91.42
1174.00,91.41
1173.00,91.40
1172.00,91.40
1171.00,91.42
1170.00,91.44
1169.00,91.47
1168.00,91.52
1167.00,91.58
1166.00,91.65
1165.00,91.73
1164.00,91.83
1163.00,91.95
1162.00,92.08
1161.00,92.20
1160.00,92.31
1159.00,92.42
1158.00,92.53
1157.00,92.62
1156.00,92.68
1155.00,92.73
1154.00,92.75
1153.00,92.78
1152.00,92.82
1151.00,92.86
1150.00,92.89
1149.00,92.91
1148.00,92.92
1147.00,92.90
1146.00,92.87
1145.00,92.85
1144.00,92.84
1143.00,92.84
1142.00,92.84
1141.00,92.82
1140.00,92.79
1139.00,92.75
1138.00,92.71
1137.00,92.69
1136.00,92.67
1135.00,92.65
1134.00,92.63
1133.00,92.61
1132.00,92.60
1131.00,92.61
1130.00,92.63
1129.00,92.64
1128.00,92.64
1127.00,92.65
1126.00,92.66
1125.00,92.67
1124.00,92.67
1123.00,92.67
1122.00,92.67
1121.00,92.67
1120.00,92.66
1119.00,92.65
1118.00,92.64
1117.00,92.61
1116.00,92.56
1115.00,92.51
1114.00,92.45
1113.00,92.39
1112.00,92.30
1111.00,92.18
1110.00,92.04
1109.00,91.89
1108.00,91.75
1107.00,91.63
1106.00,91.50
1105.00,91.35
1104.00,91.16
1103.00,90.95
1102.00,90.77
1101.00,90.60
1100.00,90.44
1099.00,90.27
1098.00,90.08
1097.00,89.89
1096.00,89.73
1095.00,89.58
1094.00,89.44
1093.00,89.29
1092.00,89.14
1091.00,89.00
1090.00,88.87
1089.00,88.74
1088.00,88.62
1087.00,88.50
1086.00,88.39
1085.00,88.29
1084.00,88.19
1083.00,88.09
1082.00,88.01
1081.00,87.93
1080.00,87.85
1079.00,87.77
1078.00,87.68
1077.00,87.59
1076.00,87.47
1075.00,87.37
1074.00,87.30
1073.00,87.26
1072.00,87.23
1071.00,87.18
1070.00,87.12
1069.00,87.06
1068.00,87.02
1067.00,87.02
1066.00,87.06
1065.00,87.13
1064.00,87.19
1063.00,87.25
1062.00,87.29
1061.00,87.32
1060.00,87.35
1059.00,87.38
1058.00,87.43
1057.00,87.50
1056.00,87.57
1055.00,87.65
1054.00,87.71
1053.00,87.74
1052.00,87.76
1051.00,87.78
1050.00,87.80
1049.00,87.81
1048.00,87.80
1047.00,87.79
1046.00,87.77
1045.00,87.77
1044.00,87.77
1043.00,87.75
1042.00,87.70
1041.00,87.64
1040.00,87.60
1039.00,87.60
1038.00,87.65
1037.00,87.73
1036.00,87.89
1035.00,88.12
1034.00,88.42
1033.00,88.73
1032.00,89.02
1031.00,89.28
1030.00,89.53
1029.00,89.77
1028.00,89.98
1027.00,90.17
1026.00,90.33
1025.00,90.47
1024.00,90.58
1023.00,90.66
1022.00,90.72
1021.00,90.79
1020.00,90.85
1019.00,90.91
1018.00,90.98
1017.00,91.04
1016.00,91.09
1015.00,91.13
1014.00,91.16
1013.00,91.20
1012.00,91.24
1011.00,91.29
1010.00,91.35
1009.00,91.44
1008.00,91.53
1007.00,91.62
1006.00,91.69
1005.00,91.75
1004.00,91.82
1003.00,91.89
1002.00,91.96
1001.00,92.03
1000.00,92.10
999.00,92.18
998.00,92.26
997.00,92.32
996.00,92.38
995.00,92.43
994.00,92.47
993.00,92.52
992.00,92.57
991.00,92.62
990.00,92.66
989.00,92.70
988.00,92.73
987.00,92.76
986.00,92.78
985.00,92.81
984.00,92.85
983.00,92.89
982.00,92.91
981.00,92.92
980.00,92.92
979.00,92.92
978.00,92.91
977.00,92.92
976.00,92.93
975.00,92.94
974.00,92.95
973.00,92.96
972.00,92.97
971.00,92.99
970.00,93.01
969.00,93.03
968.00,93.04
967.00,93.04
966.00,93.05
965.00,93.07
964.00,93.10
963.00,93.14
962.00,93.17
961.00,93.18
960.00,93.19
959.00,93.20
958.00,93.22
957.00,93.25
956.00,93.28
955.00,93.30
954.00,93.31
953.00,93.32
952.00,93.33
951.00,93.34
950.00,93.36
949.00,93.37
948.00,93.37
947.00,93.36
946.00,93.36
945.00,93.36
944.00,93.35
943.00,93.33
942.00,93.32
941.00,93.32
940.00,93.33
939.00,93.34
938.00,93.37
937.00,93.39
936.00,93.40
935.00,93.40
934.00,93.38
933.00,93.35
932.00,93.31
931.00,93.31
930.00,93.32
929.00,93.35
928.00,93.36
927.00,93.36
926.00,93.35
925.00,93.34
924.00,93.34
923.00,93.36
922.00,93.38
921.00,93.41
920.00,93.42
919.00,93.42
918.00,93.43
917.00,93.46
916.00,93.50
915.00,93.53
914.00,93.54
913.00,93.55
912.00,93.56
911.00,93.60
910.00,93.64
909.00,93.66
908.00,93.66
907.00,93.66
906.00,93.66
905.00,93.68
904.00,93.71
903.00,93.74
902.00,93.76
901.00,93.79
900.00,93.82
899.00,93.86
898.00,93.88
897.00,93.89
896.00,93.90
895.00,93.91
894.00,93.92
893.00,93.92
892.00,93.93
891.00,93.96
890.00,94.00
889.00,94.04
888.00,94.06
887.00,94.07
886.00,94.10
885.00,94.14
884.00,94.18
883.00,94.20
882.00,94.22
881.00,94.26
880.00,94.30
879.00,94.35
878.00,94.40
877.00,94.42
876.00,94.42
875.00,94.42
874.00,94.42
873.00,94.43
872.00,94.46
871.00,94.50
870.00,94.55
869.00,94.60
868.00,94.64
867.00,94.68
866.00,94.72
865.00,94.77
864.00,94.82
863.00,94.87
862.00,94.92
861.00,94.96
860.00,94.96
859.00,94.95
858.00,94.95
857.00,94.97
856.00,94.99
855.00,94.99
854.00,94.98
853.00,94.98
852.00,94.99
851.00,95.01
850.00,95.02
849.00,95.02
848.00,95.00
847.00,94.97
846.00,94.93
845.00,94.90
844.00,94.90
843.00,94.92
842.00,94.93
841.00,94.93
840.00,94.89
839.00,94.83
838.00,94.76
837.00,94.71
836.00,94.68
835.00,94.67
834.00,94.68
833.00,94.70
832.00,94.71
831.00,94.69
830.00,94.65
829.00,94.64
828.00,94.68
827.00,94.74
826.00,94.80
825.00,94.84
824.00,94.87
823.00,94.89
822.00,94.91
821.00,94.93
820.00,94.94
819.00,94.94
818.00,94.91
817.00,94.89
816.00,94.87
815.00,94.86
814.00,94.86
813.00,94.87
812.00,94.89
811.00,94.90
810.00,94.89
809.00,94.87
808.00,94.83
807.00,94.79
806.00,94.75
805.00,94.73
804.00,94.72
803.00,94.73
802.00,94.72
801.00,94.69
800.00,94.67
799.00,94.67
798.00,94.69
797.00,94.72
796.00,94.76
795.00,94.79
794.00,94.79
793.00,94.79
792.00,94.79
791.00,94.80
790.00,94.80
789.00,94.79
788.00,94.79
787.00,94.79
786.00,94.80
785.00,94.82
784.00,94.85
783.00,94.86
782.00,94.86
781.00,94.86
780.00,94.87
779.00,94.90
778.00,94.92
777.00,94.92
776.00,94.90
775.00,94.87
774.00,94.83
773.00,94.78
772.00,94.74
771.00,94.73
770.00,94.73
769.00,94.74
768.00,94.74
767.00,94.72
766.00,94.69
765.00,94.64
764.00,94.57
763.00,94.52
762.00,94.50
761.00,94.50
760.00,94.51
759.00,94.50
758.00,94.47
757.00,94.41
756.00,94.34
755.00,94.26
754.00,94.20
753.00,94.16
752.00,94.14
751.00,94.13
750.00,94.10
749.00,94.05
748.00,93.98
747.00,93.92
746.00,93.87
745.00,93.82
744.00,93.76
743.00,93.68
742.00,93.58
741.00,93.48
740.00,93.36
739.00,93.24
738.00,93.14
737.00,93.07
736.00,93.02
735.00,92.96
734.00,92.84
733.00,92.70
732.00,92.58
731.00,92.50
730.00,92.39
729.00,92.25
728.00,92.11
727.00,92.01
726.00,91.94
725.00,91.86
724.00,91.75
723.00,91.64
722.00,91.53
721.00,91.42
720.00,91.30
719.00,91.19
718.00,91.10
717.00,91.04
716.00,91.00
715.00,90.99
714.00,90.97
713.00,90.95
712.00,90.92
711.00,90.89
710.00,90.84
709.00,90.77
708.00,90.74
707.00,90.76
706.00,90.81
705.00,90.85
704.00,90.85
703.00,90.85
702.00,90.89
701.00,90.97
700.00,91.05
699.00,91.12
698.00,91.17
697.00,91.18
696.00,91.19
695.00,91.18
694.00,91.16
693.00,91.12
692.00,91.08
691.00,91.07
690.00,91.09
689.00,91.09
688.00,91.03
687.00,90.92
686.00,90.81
685.00,90.71
684.00,90.61
683.00,90.52
682.00,90.40
681.00,90.23
680.00,90.01
679.00,89.80
678.00,89.62
677.00,89.46
676.00,89.28
675.00,89.09
674.00,88.90
673.00,88.72
672.00,88.56
671.00,88.44
670.00,88.34
669.00,88.19
668.00,87.97
667.00,87.72
666.00,87.57
665.00,87.49
664.00,87.38
663.00,87.19
662.00,87.00
661.00,86.81
660.00,86.63
659.00,86.45
658.00,86.31
657.00,86.20
656.00,86.10
655.00,85.99
654.00,85.84
653.00,85.65
652.00,85.45
651.00,85.32
650.00,85.24
649.00,85.19
648.00,85.13
647.00,85.11
646.00,85.18
645.00,85.29
644.00,85.36
643.00,85.37
642.00,85.36
641.00,85.32
640.00,85.26
639.00,85.20
638.00,85.12
637.00,85.05
636.00,85.07
635.00,85.27
634.00,85.60
633.00,85.92
632.00,86.15
631.00,86.27
630.00,86.30
629.00,86.26
628.00,86.21
627.00,86.26
626.00,86.45
625.00,86.69
624.00,86.86
623.00,86.97
622.00,87.04
621.00,87.10
620.00,87.10
619.00,87.05
618.00,86.94
617.00,86.74
616.00,86.50
615.00,86.35
614.00,86.38
613.00,86.50
612.00,86.59
611.00,86.59
610.00,86.53
609.00,86.48
608.00,86.53
607.00,86.76
606.00,87.10
605.00,87.39
604.00,87.66
603.00,88.06
602.00,88.61
601.00,88.97
600.00,88.80
599.00,88.16
598.00,87.52
597.00,87.26
596.00,87.38
595.00,87.70
594.00,88.06
593.00,88.37
592.00,88.55
591.00,88.61
590.00,88.64
589.00,88.71
588.00,88.71
587.00,88.53
586.00,88.27
585.00,88.23
584.00,88.55
583.00,89.08
582.00,89.45
581.00,89.42
580.00,89.06
579.00,88.55
578.00,88.11
577.00,87.79
576.00,87.59
575.00,87.54
574.00,87.70
573.00,88.10
572.00,88.70
571.00,89.29
570.00,89.69
569.00,89.82
568.00,89.79
567.00,89.66
566.00,89.44
565.00,89.22
564.00,89.09
563.00,89.04
562.00,88.93
561.00,88.63
560.00,88.29
559.00,88.20
558.00,88.53
557.00,89.10
556.00,89.59
555.00,89.68
554.00,89.14
553.00,88.15
552.00,87.23
551.00,86.96
550.00,87.48
