Created as New Dataset,60 Lenzing
cm-1,%T
4000.00,98.24
3999.00,98.23
3998.00,98.22
3997.00,98.22
3996.00,98.21
3995.00,98.20
3994.00,98.19
3993.00,98.18
3992.00,98.19
3991.00,98.21
3990.00,98.21
3989.00,98.21
3988.00,98.20
3987.00,98.19
3986.00,98.19
3985.00,98.18
3984.00,98.18
3983.00,98.17
3982.00,98.17
3981.00,98.16
3980.00,98.16
3979.00,98.17
3978.00,98.17
3977.00,98.17
3976.00,98.17
3975.00,98.17
3974.00,98.16
3973.00,98.16
3972.00,98.16
3971.00,98.17
3970.00,98.17
3969.00,98.17
3968.00,98.18
3967.00,98.20
3966.00,98.22
3965.00,98.23
3964.00,98.24
3963.00,98.25
3962.00,98.26
3961.00,98.25
3960.00,98.24
3959.00,98.22
3958.00,98.20
3957.00,98.20
3956.00,98.21
3955.00,98.22
3954.00,98.23
3953.00,98.24
3952.00,98.25
3951.00,98.26
3950.00,98.26
3949.00,98.25
3948.00,98.23
3947.00,98.21
3946.00,98.19
3945.00,98.17
3944.00,98.16
3943.00,98.16
3942.00,98.17
3941.00,98.18
3940.00,98.19
3939.00,98.18
3938.00,98.16
3937.00,98.14
3936.00,98.13
3935.00,98.12
3934.00,98.12
3933.00,98.12
3932.00,98.11
3931.00,98.11
3930.00,98.11
3929.00,98.12
3928.00,98.13
3927.00,98.14
3926.00,98.15
3925.00,98.15
3924.00,98.15
3923.00,98.16
3922.00,98.17
3921.00,98.17
3920.00,98.17
3919.00,98.16
3918.00,98.14
3917.00,98.13
3916.00,98.14
3915.00,98.16
3914.00,98.18
3913.00,98.20
3912.00,98.21
3911.00,98.21
3910.00,98.19
3909.00,98.16
3908.00,98.13
3907.00,98.10
3906.00,98.10
3905.00,98.12
3904.00,98.13
3903.00,98.14
3902.00,98.13
3901.00,98.13
3900.00,98.13
3899.00,98.14
3898.00,98.15
3897.00,98.15
3896.00,98.15
3895.00,98.15
3894.00,98.16
3893.00,98.17
3892.00,98.17
3891.00,98.17
3890.00,98.17
3889.00,98.18
3888.00,98.21
3887.00,98.23
3886.00,98.23
3885.00,98.20
3884.00,98.17
3883.00,98.15
3882.00,98.15
3881.00,98.16
3880.00,98.17
3879.00,98.15
3878.00,98.14
3877.00,98.14
3876.00,98.15
3875.00,98.16
3874.00,98.16
3873.00,98.14
3872.00,98.13
3871.00,98.13
3870.00,98.14
3869.00,98.15
3868.00,98.15
3867.00,98.14
3866.00,98.14
3865.00,98.14
3864.00,98.15
3863.00,98.16
3862.00,98.18
3861.00,98.18
3860.00,98.18
3859.00,98.17
3858.00,98.14
3857.00,98.12
3856.00,98.12
3855.00,98.15
3854.00,98.17
3853.00,98.17
3852.00,98.14
3851.00,98.11
3850.00,98.10
3849.00,98.10
3848.00,98.11
3847.00,98.13
3846.00,98.15
3845.00,98.16
3844.00,98.18
3843.00,98.18
3842.00,98.19
3841.00,98.18
3840.00,98.17
3839.00,98.16
3838.00,98.14
3837.00,98.14
3836.00,98.14
3835.00,98.16
3834.00,98.18
3833.00,98.19
3832.00,98.20
3831.00,98.19
3830.00,98.18
3829.00,98.17
3828.00,98.16
3827.00,98.16
3826.00,98.16
3825.00,98.16
3824.00,98.15
3823.00,98.15
3822.00,98.14
3821.00,98.12
3820.00,98.12
3819.00,98.12
3818.00,98.13
3817.00,98.12
3816.00,98.11
3815.00,98.10
3814.00,98.10
3813.00,98.11
3812.00,98.13
3811.00,98.13
3810.00,98.14
3809.00,98.14
3808.00,98.13
3807.00,98.12
3806.00,98.10
3805.00,98.09
3804.00,98.10
3803.00,98.13
3802.00,98.15
3801.00,98.15
3800.00,98.14
3799.00,98.14
3798.00,98.15
3797.00,98.17
3796.00,98.19
3795.00,98.19
3794.00,98.18
3793.00,98.17
3792.00,98.16
3791.00,98.15
3790.00,98.14
3789.00,98.13
3788.00,98.13
3787.00,98.12
3786.00,98.12
3785.00,98.13
3784.00,98.14
3783.00,98.15
3782.00,98.16
3781.00,98.16
3780.00,98.15
3779.00,98.13
3778.00,98.13
3777.00,98.14
3776.00,98.15
3775.00,98.16
3774.00,98.17
3773.00,98.17
3772.00,98.17
3771.00,98.17
3770.00,98.15
3769.00,98.13
3768.00,98.11
3767.00,98.10
3766.00,98.09
3765.00,98.08
3764.00,98.07
3763.00,98.06
3762.00,98.06
3761.00,98.06
3760.00,98.06
3759.00,98.05
3758.00,98.04
3757.00,98.02
3756.00,98.00
3755.00,97.98
3754.00,97.96
3753.00,97.94
3752.00,97.93
3751.00,97.92
3750.00,97.91
3749.00,97.91
3748.00,97.91
3747.00,97.92
3746.00,97.94
3745.00,97.95
3744.00,97.95
3743.00,97.96
3742.00,97.98
3741.00,97.99
3740.00,97.99
3739.00,97.97
3738.00,97.96
3737.00,97.94
3736.00,97.94
3735.00,97.95
3734.00,97.97
3733.00,97.99
3732.00,98.00
3731.00,98.02
3730.00,98.04
3729.00,98.07
3728.00,98.09
3727.00,98.09
3726.00,98.08
3725.00,98.05
3724.00,98.03
3723.00,98.01
3722.00,97.98
3721.00,97.96
3720.00,97.95
3719.00,97.95
3718.00,97.96
3717.00,97.96
3716.00,97.96
3715.00,97.96
3714.00,97.96
3713.00,97.97
3712.00,97.97
3711.00,97.97
3710.00,97.98
3709.00,97.98
3708.00,98.00
3707.00,98.01
3706.00,98.02
3705.00,98.03
3704.00,98.04
3703.00,98.04
3702.00,98.04
3701.00,98.03
3700.00,98.02
3699.00,98.02
3698.00,98.02
3697.00,98.02
3696.00,98.01
3695.00,98.00
3694.00,97.97
3693.00,97.94
3692.00,97.92
3691.00,97.93
3690.00,97.96
3689.00,97.99
3688.00,98.00
3687.00,98.00
3686.00,98.00
3685.00,98.01
3684.00,98.02
3683.00,98.01
3682.00,97.99
3681.00,97.96
3680.00,97.94
3679.00,97.94
3678.00,97.96
3677.00,97.98
3676.00,97.96
3675.00,97.90
3674.00,97.85
3673.00,97.83
3672.00,97.84
3671.00,97.85
3670.00,97.85
3669.00,97.83
3668.00,97.81
3667.00,97.81
3666.00,97.82
3665.00,97.83
3664.00,97.84
3663.00,97.84
3662.00,97.83
3661.00,97.81
3660.00,97.78
3659.00,97.75
3658.00,97.73
3657.00,97.71
3656.00,97.68
3655.00,97.65
3654.00,97.61
3653.00,97.59
3652.00,97.61
3651.00,97.65
3650.00,97.68
3649.00,97.68
3648.00,97.64
3647.00,97.59
3646.00,97.56
3645.00,97.56
3644.00,97.58
3643.00,97.61
3642.00,97.63
3641.00,97.63
3640.00,97.60
3639.00,97.56
3638.00,97.51
3637.00,97.46
3636.00,97.43
3635.00,97.41
3634.00,97.39
3633.00,97.36
3632.00,97.33
3631.00,97.32
3630.00,97.32
3629.00,97.31
3628.00,97.29
3627.00,97.27
3626.00,97.25
3625.00,97.24
3624.00,97.22
3623.00,97.18
3622.00,97.15
3621.00,97.12
3620.00,97.09
3619.00,97.07
3618.00,97.03
3617.00,96.99
3616.00,96.95
3615.00,96.93
3614.00,96.92
3613.00,96.92
3612.00,96.91
3611.00,96.89
3610.00,96.85
3609.00,96.81
3608.00,96.79
3607.00,96.78
3606.00,96.77
3605.00,96.76
3604.00,96.74
3603.00,96.72
3602.00,96.69
3601.00,96.65
3600.00,96.61
3599.00,96.56
3598.00,96.52
3597.00,96.50
3596.00,96.48
3595.00,96.47
3594.00,96.44
3593.00,96.41
3592.00,96.36
3591.00,96.31
3590.00,96.26
3589.00,96.21
3588.00,96.17
3587.00,96.13
3586.00,96.10
3585.00,96.07
3584.00,96.05
3583.00,96.02
3582.00,95.99
3581.00,95.96
3580.00,95.93
3579.00,95.90
3578.00,95.86
3577.00,95.80
3576.00,95.74
3575.00,95.69
3574.00,95.65
3573.00,95.61
3572.00,95.58
3571.00,95.53
3570.00,95.47
3569.00,95.41
3568.00,95.36
3567.00,95.32
3566.00,95.29
3565.00,95.27
3564.00,95.24
3563.00,95.20
3562.00,95.15
3561.00,95.11
3560.00,95.07
3559.00,95.04
3558.00,95.01
3557.00,94.97
3556.00,94.94
3555.00,94.91
3554.00,94.87
3553.00,94.82
3552.00,94.75
3551.00,94.68
3550.00,94.61
3549.00,94.55
3548.00,94.50
3547.00,94.47
3546.00,94.44
3545.00,94.40
3544.00,94.36
3543.00,94.32
3542.00,94.28
3541.00,94.24
3540.00,94.20
3539.00,94.16
3538.00,94.11
3537.00,94.07
3536.00,94.03
3535.00,93.97
3534.00,93.91
3533.00,93.84
3532.00,93.79
3531.00,93.75
3530.00,93.70
3529.00,93.64
3528.00,93.58
3527.00,93.52
3526.00,93.47
3525.00,93.43
3524.00,93.40
3523.00,93.38
3522.00,93.35
3521.00,93.32
3520.00,93.27
3519.00,93.20
3518.00,93.11
3517.00,93.02
3516.00,92.93
3515.00,92.85
3514.00,92.79
3513.00,92.74
3512.00,92.70
3511.00,92.66
3510.00,92.62
3509.00,92.57
3508.00,92.49
3507.00,92.40
3506.00,92.30
3505.00,92.22
3504.00,92.15
3503.00,92.08
3502.00,92.00
3501.00,91.91
3500.00,91.83
3499.00,91.76
3498.00,91.68
3497.00,91.61
3496.00,91.53
3495.00,91.46
3494.00,91.39
3493.00,91.33
3492.00,91.26
3491.00,91.19
3490.00,91.12
3489.00,91.07
3488.00,91.03
3487.00,90.98
3486.00,90.93
3485.00,90.87
3484.00,90.83
3483.00,90.79
3482.00,90.76
3481.00,90.73
3480.00,90.69
3479.00,90.66
3478.00,90.63
3477.00,90.60
3476.00,90.57
3475.00,90.54
3474.00,90.51
3473.00,90.46
3472.00,90.41
3471.00,90.34
3470.00,90.28
3469.00,90.22
3468.00,90.17
3467.00,90.12
3466.00,90.07
3465.00,90.01
3464.00,89.95
3463.00,89.88
3462.00,89.81
3461.00,89.74
3460.00,89.67
3459.00,89.62
3458.00,89.56
3457.00,89.49
3456.00,89.41
3455.00,89.34
3454.00,89.28
3453.00,89.21
3452.00,89.14
3451.00,89.07
3450.00,88.99
3449.00,88.91
3448.00,88.84
3447.00,88.78
3446.00,88.73
3445.00,88.69
3444.00,88.65
3443.00,88.61
3442.00,88.57
3441.00,88.52
3440.00,88.48
3439.00,88.43
3438.00,88.39
3437.00,88.36
3436.00,88.35
3435.00,88.35
3434.00,88.34
3433.00,88.31
3432.00,88.28
3431.00,88.26
3430.00,88.25
3429.00,88.25
3428.00,88.24
3427.00,88.23
3426.00,88.21
3425.00,88.20
3424.00,88.18
3423.00,88.15
3422.00,88.12
3421.00,88.08
3420.00,88.03
3419.00,88.00
3418.00,87.97
3417.00,87.94
3416.00,87.91
3415.00,87.88
3414.00,87.86
3413.00,87.85
3412.00,87.85
3411.00,87.84
3410.00,87.81
3409.00,87.76
3408.00,87.70
3407.00,87.65
3406.00,87.60
3405.00,87.56
3404.00,87.53
3403.00,87.52
3402.00,87.51
3401.00,87.50
3400.00,87.49
3399.00,87.47
3398.00,87.45
3397.00,87.41
3396.00,87.38
3395.00,87.34
3394.00,87.31
3393.00,87.28
3392.00,87.25
3391.00,87.22
3390.00,87.20
3389.00,87.19
3388.00,87.19
3387.00,87.19
3386.00,87.18
3385.00,87.16
3384.00,87.14
3383.00,87.11
3382.00,87.08
3381.00,87.05
3380.00,87.02
3379.00,86.99
3378.00,86.96
3377.00,86.94
3376.00,86.92
3375.00,86.91
3374.00,86.88
3373.00,86.85
3372.00,86.81
3371.00,86.78
3370.00,86.76
3369.00,86.76
3368.00,86.76
3367.00,86.76
3366.00,86.74
3365.00,86.72
3364.00,86.70
3363.00,86.70
3362.00,86.69
3361.00,86.67
3360.00,86.65
3359.00,86.62
3358.00,86.60
3357.00,86.59
3356.00,86.60
3355.00,86.60
3354.00,86.60
3353.00,86.59
3352.00,86.57
3351.00,86.55
3350.00,86.53
3349.00,86.53
3348.00,86.54
3347.00,86.54
3346.00,86.52
3345.00,86.50
3344.00,86.47
3343.00,86.46
3342.00,86.46
3341.00,86.47
3340.00,86.49
3339.00,86.50
3338.00,86.50
3337.00,86.49
3336.00,86.47
3335.00,86.45
3334.00,86.44
3333.00,86.43
3332.00,86.42
3331.00,86.41
3330.00,86.40
3329.00,86.41
3328.00,86.42
3327.00,86.43
3326.00,86.44
3325.00,86.43
3324.00,86.41
3323.00,86.39
3322.00,86.39
3321.00,86.39
3320.00,86.39
3319.00,86.39
3318.00,86.40
3317.00,86.40
3316.00,86.40
3315.00,86.40
3314.00,86.40
3313.00,86.41
3312.00,86.44
3311.00,86.47
3310.00,86.50
3309.00,86.51
3308.00,86.51
3307.00,86.51
3306.00,86.50
3305.00,86.49
3304.00,86.49
3303.00,86.51
3302.00,86.53
3301.00,86.55
3300.00,86.57
3299.00,86.58
3298.00,86.58
3297.00,86.58
3296.00,86.58
3295.00,86.57
3294.00,86.57
3293.00,86.56
3292.00,86.56
3291.00,86.55
3290.00,86.55
3289.00,86.55
3288.00,86.57
3287.00,86.59
3286.00,86.61
3285.00,86.63
3284.00,86.65
3283.00,86.66
3282.00,86.67
3281.00,86.69
3280.00,86.71
3279.00,86.74
3278.00,86.76
3277.00,86.77
3276.00,86.77
3275.00,86.77
3274.00,86.77
3273.00,86.77
3272.00,86.78
3271.00,86.79
3270.00,86.80
3269.00,86.81
3268.00,86.82
3267.00,86.84
3266.00,86.87
3265.00,86.90
3264.00,86.92
3263.00,86.94
3262.00,86.95
3261.00,86.96
3260.00,86.97
3259.00,86.99
3258.00,87.01
3257.00,87.04
3256.00,87.06
3255.00,87.08
3254.00,87.11
3253.00,87.14
3252.00,87.16
3251.00,87.18
3250.00,87.19
3249.00,87.21
3248.00,87.23
3247.00,87.26
3246.00,87.28
3245.00,87.30
3244.00,87.31
3243.00,87.32
3242.00,87.34
3241.00,87.37
3240.00,87.40
3239.00,87.43
3238.00,87.46
3237.00,87.49
3236.00,87.52
3235.00,87.56
3234.00,87.58
3233.00,87.60
3232.00,87.60
3231.00,87.61
3230.00,87.63
3229.00,87.66
3228.00,87.70
3227.00,87.72
3226.00,87.74
3225.00,87.76
3224.00,87.79
3223.00,87.81
3222.00,87.83
3221.00,87.84
3220.00,87.86
3219.00,87.88
3218.00,87.92
3217.00,87.95
3216.00,87.98
3215.00,88.01
3214.00,88.03
3213.00,88.05
3212.00,88.08
3211.00,88.11
3210.00,88.13
3209.00,88.15
3208.00,88.17
3207.00,88.18
3206.00,88.20
3205.00,88.23
3204.00,88.27
3203.00,88.30
3202.00,88.33
3201.00,88.36
3200.00,88.40
3199.00,88.44
3198.00,88.47
3197.00,88.51
3196.00,88.54
3195.00,88.56
3194.00,88.58
3193.00,88.61
3192.00,88.64
3191.00,88.67
3190.00,88.70
3189.00,88.72
3188.00,88.74
3187.00,88.76
3186.00,88.78
3185.00,88.81
3184.00,88.84
3183.00,88.86
3182.00,88.88
3181.00,88.90
3180.00,88.91
3179.00,88.94
3178.00,88.98
3177.00,89.02
3176.00,89.05
3175.00,89.06
3174.00,89.08
3173.00,89.10
3172.00,89.13
3171.00,89.18
3170.00,89.23
3169.00,89.28
3168.00,89.32
3167.00,89.36
3166.00,89.39
3165.00,89.42
3164.00,89.45
3163.00,89.48
3162.00,89.50
3161.00,89.50
3160.00,89.51
3159.00,89.54
3158.00,89.58
3157.00,89.63
3156.00,89.68
3155.00,89.71
3154.00,89.73
3153.00,89.75
3152.00,89.77
3151.00,89.81
3150.00,89.87
3149.00,89.92
3148.00,89.98
3147.00,90.02
3146.00,90.06
3145.00,90.09
3144.00,90.11
3143.00,90.13
3142.00,90.17
3141.00,90.22
3140.00,90.27
3139.00,90.31
3138.00,90.34
3137.00,90.37
3136.00,90.40
3135.00,90.43
3134.00,90.46
3133.00,90.50
3132.00,90.53
3131.00,90.56
3130.00,90.60
3129.00,90.64
3128.00,90.69
3127.00,90.74
3126.00,90.78
3125.00,90.83
3124.00,90.88
3123.00,90.92
3122.00,90.96
3121.00,91.00
3120.00,91.03
3119.00,91.06
3118.00,91.09
3117.00,91.12
3116.00,91.16
3115.00,91.20
3114.00,91.24
3113.00,91.28
3112.00,91.32
3111.00,91.36
3110.00,91.39
3109.00,91.43
3108.00,91.46
3107.00,91.51
3106.00,91.56
3105.00,91.61
3104.00,91.66
3103.00,91.70
3102.00,91.74
3101.00,91.76
3100.00,91.79
3099.00,91.83
3098.00,91.88
3097.00,91.94
3096.00,91.99
3095.00,92.03
3094.00,92.07
3093.00,92.11
3092.00,92.16
3091.00,92.21
3090.00,92.26
3089.00,92.30
3088.00,92.33
3087.00,92.36
3086.00,92.39
3085.00,92.42
3084.00,92.45
3083.00,92.47
3082.00,92.48
3081.00,92.49
3080.00,92.53
3079.00,92.57
3078.00,92.63
3077.00,92.68
3076.00,92.73
3075.00,92.77
3074.00,92.79
3073.00,92.81
3072.00,92.82
3071.00,92.84
3070.00,92.86
3069.00,92.89
3068.00,92.93
3067.00,92.96
3066.00,93.00
3065.00,93.03
3064.00,93.07
3063.00,93.10
3062.00,93.14
3061.00,93.18
3060.00,93.22
3059.00,93.25
3058.00,93.29
3057.00,93.33
3056.00,93.36
3055.00,93.40
3054.00,93.43
3053.00,93.46
3052.00,93.49
3051.00,93.50
3050.00,93.51
3049.00,93.52
3048.00,93.53
3047.00,93.56
3046.00,93.60
3045.00,93.65
3044.00,93.69
3043.00,93.72
3042.00,93.75
3041.00,93.78
3040.00,93.81
3039.00,93.84
3038.00,93.87
3037.00,93.89
3036.00,93.90
3035.00,93.91
3034.00,93.92
3033.00,93.93
3032.00,93.94
3031.00,93.96
3030.00,93.99
3029.00,94.03
3028.00,94.06
3027.00,94.10
3026.00,94.12
3025.00,94.15
3024.00,94.17
3023.00,94.18
3022.00,94.19
3021.00,94.20
3020.00,94.23
3019.00,94.26
3018.00,94.29
3017.00,94.33
3016.00,94.37
3015.00,94.40
3014.00,94.42
3013.00,94.44
3012.00,94.45
3011.00,94.45
3010.00,94.46
3009.00,94.46
3008.00,94.47
3007.00,94.48
3006.00,94.50
3005.00,94.51
3004.00,94.53
3003.00,94.55
3002.00,94.57
3001.00,94.58
3000.00,94.56
2999.00,94.54
2998.00,94.54
2997.00,94.55
2996.00,94.57
2995.00,94.58
2994.00,94.58
2993.00,94.58
2992.00,94.58
2991.00,94.58
2990.00,94.59
2989.00,94.60
2988.00,94.60
2987.00,94.58
2986.00,94.55
2985.00,94.53
2984.00,94.51
2983.00,94.49
2982.00,94.48
2981.00,94.48
2980.00,94.48
2979.00,94.48
2978.00,94.48
2977.00,94.47
2976.00,94.47
2975.00,94.46
2974.00,94.44
2973.00,94.41
2972.00,94.39
2971.00,94.37
2970.00,94.36
2969.00,94.36
2968.00,94.35
2967.00,94.34
2966.00,94.32
2965.00,94.28
2964.00,94.24
2963.00,94.19
2962.00,94.14
2961.00,94.10
2960.00,94.07
2959.00,94.04
2958.00,94.01
2957.00,93.96
2956.00,93.92
2955.00,93.89
2954.00,93.86
2953.00,93.83
2952.00,93.78
2951.00,93.73
2950.00,93.67
2949.00,93.61
2948.00,93.54
2947.00,93.47
2946.00,93.39
2945.00,93.33
2944.00,93.28
2943.00,93.23
2942.00,93.18
2941.00,93.12
2940.00,93.04
2939.00,92.93
2938.00,92.83
2937.00,92.75
2936.00,92.68
2935.00,92.64
2934.00,92.59
2933.00,92.55
2932.00,92.51
2931.00,92.46
2930.00,92.40
2929.00,92.35
2928.00,92.31
2927.00,92.28
2926.00,92.25
2925.00,92.20
2924.00,92.15
2923.00,92.09
2922.00,92.02
2921.00,91.96
2920.00,91.91
2919.00,91.87
2918.00,91.85
2917.00,91.83
2916.00,91.81
2915.00,91.79
2914.00,91.76
2913.00,91.72
2912.00,91.67
2911.00,91.61
2910.00,91.56
2909.00,91.52
2908.00,91.48
2907.00,91.43
2906.00,91.39
2905.00,91.35
2904.00,91.32
2903.00,91.29
2902.00,91.27
2901.00,91.25
2900.00,91.23
2899.00,91.21
2898.00,91.19
2897.00,91.15
2896.00,91.12
2895.00,91.10
2894.00,91.07
2893.00,91.04
2892.00,91.02
2891.00,91.01
2890.00,91.01
2889.00,91.02
2888.00,91.05
2887.00,91.09
2886.00,91.13
2885.00,91.16
2884.00,91.18
2883.00,91.19
2882.00,91.20
2881.00,91.20
2880.00,91.22
2879.00,91.23
2878.00,91.26
2877.00,91.29
2876.00,91.33
2875.00,91.37
2874.00,91.40
2873.00,91.44
2872.00,91.48
2871.00,91.52
2870.00,91.56
2869.00,91.61
2868.00,91.66
2867.00,91.71
2866.00,91.77
2865.00,91.84
2864.00,91.91
2863.00,91.99
2862.00,92.06
2861.00,92.13
2860.00,92.18
2859.00,92.24
2858.00,92.29
2857.00,92.35
2856.00,92.41
2855.00,92.47
2854.00,92.53
2853.00,92.58
2852.00,92.64
2851.00,92.68
2850.00,92.74
2849.00,92.80
2848.00,92.86
2847.00,92.94
2846.00,93.01
2845.00,93.09
2844.00,93.15
2843.00,93.21
2842.00,93.26
2841.00,93.31
2840.00,93.35
2839.00,93.39
2838.00,93.44
2837.00,93.48
2836.00,93.52
2835.00,93.55
2834.00,93.58
2833.00,93.61
2832.00,93.65
2831.00,93.68
2830.00,93.72
2829.00,93.76
2828.00,93.80
2827.00,93.83
2826.00,93.85
2825.00,93.87
2824.00,93.89
2823.00,93.91
2822.00,93.92
2821.00,93.93
2820.00,93.94
2819.00,93.96
2818.00,93.99
2817.00,94.02
2816.00,94.05
2815.00,94.08
2814.00,94.10
2813.00,94.13
2812.00,94.15
2811.00,94.16
2810.00,94.18
2809.00,94.19
2808.00,94.21
2807.00,94.22
2806.00,94.24
2805.00,94.26
2804.00,94.29
2803.00,94.31
2802.00,94.32
2801.00,94.33
2800.00,94.34
2799.00,94.36
2798.00,94.39
2797.00,94.42
2796.00,94.44
2795.00,94.46
2794.00,94.47
2793.00,94.49
2792.00,94.50
2791.00,94.52
2790.00,94.53
2789.00,94.53
2788.00,94.53
2787.00,94.54
2786.00,94.56
2785.00,94.57
2784.00,94.59
2783.00,94.60
2782.00,94.61
2781.00,94.62
2780.00,94.63
2779.00,94.65
2778.00,94.67
2777.00,94.69
2776.00,94.70
2775.00,94.72
2774.00,94.74
2773.00,94.75
2772.00,94.77
2771.00,94.77
2770.00,94.77
2769.00,94.77
2768.00,94.78
2767.00,94.80
2766.00,94.81
2765.00,94.81
2764.00,94.83
2763.00,94.84
2762.00,94.85
2761.00,94.86
2760.00,94.87
2759.00,94.88
2758.00,94.89
2757.00,94.90
2756.00,94.91
2755.00,94.93
2754.00,94.93
2753.00,94.93
2752.00,94.91
2751.00,94.90
2750.00,94.89
2749.00,94.89
2748.00,94.90
2747.00,94.92
2746.00,94.94
2745.00,94.94
2744.00,94.94
2743.00,94.93
2742.00,94.93
2741.00,94.92
2740.00,94.92
2739.00,94.92
2738.00,94.94
2737.00,94.95
2736.00,94.97
2735.00,94.97
2734.00,94.96
2733.00,94.96
2732.00,94.97
2731.00,94.98
2730.00,95.00
2729.00,95.00
2728.00,95.00
2727.00,94.99
2726.00,94.99
2725.00,94.99
2724.00,94.99
2723.00,94.99
2722.00,95.00
2721.00,95.01
2720.00,95.02
2719.00,95.04
2718.00,95.05
2717.00,95.06
2716.00,95.06
2715.00,95.06
2714.00,95.07
2713.00,95.08
2712.00,95.09
2711.00,95.09
2710.00,95.10
2709.00,95.11
2708.00,95.12
2707.00,95.13
2706.00,95.14
2705.00,95.15
2704.00,95.16
2703.00,95.17
2702.00,95.19
2701.00,95.20
2700.00,95.21
2699.00,95.21
2698.00,95.21
2697.00,95.21
2696.00,95.23
2695.00,95.24
2694.00,95.25
2693.00,95.24
2692.00,95.23
2691.00,95.23
2690.00,95.23
2689.00,95.25
2688.00,95.25
2687.00,95.25
2686.00,95.26
2685.00,95.27
2684.00,95.29
2683.00,95.30
2682.00,95.30
2681.00,95.30
2680.00,95.30
2679.00,95.30
2678.00,95.31
2677.00,95.32
2676.00,95.34
2675.00,95.35
2674.00,95.37
2673.00,95.38
2672.00,95.38
2671.00,95.38
2670.00,95.37
2669.00,95.37
2668.00,95.37
2667.00,95.38
2666.00,95.39
2665.00,95.41
2664.00,95.41
2663.00,95.41
2662.00,95.40
2661.00,95.39
2660.00,95.38
2659.00,95.38
2658.00,95.37
2657.00,95.35
2656.00,95.34
2655.00,95.33
2654.00,95.33
2653.00,95.34
2652.00,95.36
2651.00,95.38
2650.00,95.40
2649.00,95.41
2648.00,95.41
2647.00,95.40
2646.00,95.38
2645.00,95.37
2644.00,95.37
2643.00,95.37
2642.00,95.37
2641.00,95.37
2640.00,95.37
2639.00,95.37
2638.00,95.36
2637.00,95.34
2636.00,95.31
2635.00,95.30
2634.00,95.30
2633.00,95.29
2632.00,95.29
2631.00,95.27
2630.00,95.26
2629.00,95.27
2628.00,95.28
2627.00,95.29
2626.00,95.29
2625.00,95.30
2624.00,95.30
2623.00,95.30
2622.00,95.30
2621.00,95.31
2620.00,95.32
2619.00,95.32
2618.00,95.32
2617.00,95.31
2616.00,95.31
2615.00,95.32
2614.00,95.32
2613.00,95.33
2612.00,95.32
2611.00,95.31
2610.00,95.30
2609.00,95.29
2608.00,95.29
2607.00,95.27
2606.00,95.26
2605.00,95.25
2604.00,95.26
2603.00,95.28
2602.00,95.28
2601.00,95.27
2600.00,95.25
2599.00,95.22
2598.00,95.20
2597.00,95.19
2596.00,95.19
2595.00,95.19
2594.00,95.19
2593.00,95.19
2592.00,95.19
2591.00,95.19
2590.00,95.18
2589.00,95.17
2588.00,95.16
2587.00,95.16
2586.00,95.16
2585.00,95.18
2584.00,95.20
2583.00,95.20
2582.00,95.20
2581.00,95.20
2580.00,95.21
2579.00,95.22
2578.00,95.21
2577.00,95.20
2576.00,95.19
2575.00,95.19
2574.00,95.19
2573.00,95.19
2572.00,95.19
2571.00,95.19
2570.00,95.18
2569.00,95.16
2568.00,95.16
2567.00,95.17
2566.00,95.18
2565.00,95.20
2564.00,95.21
2563.00,95.22
2562.00,95.24
2561.00,95.25
2560.00,95.25
2559.00,95.24
2558.00,95.21
2557.00,95.19
2556.00,95.19
2555.00,95.20
2554.00,95.23
2553.00,95.26
2552.00,95.27
2551.00,95.25
2550.00,95.23
2549.00,95.22
2548.00,95.23
2547.00,95.25
2546.00,95.26
2545.00,95.26
2544.00,95.25
2543.00,95.24
2542.00,95.24
2541.00,95.24
2540.00,95.26
2539.00,95.28
2538.00,95.29
2537.00,95.29
2536.00,95.29
2535.00,95.27
2534.00,95.24
2533.00,95.21
2532.00,95.19
2531.00,95.19
2530.00,95.20
2529.00,95.22
2528.00,95.24
2527.00,95.25
2526.00,95.26
2525.00,95.27
2524.00,95.28
2523.00,95.28
2522.00,95.26
2521.00,95.22
2520.00,95.19
2519.00,95.19
2518.00,95.20
2517.00,95.23
2516.00,95.26
2515.00,95.30
2514.00,95.31
2513.00,95.31
2512.00,95.30
2511.00,95.28
2510.00,95.27
2509.00,95.27
2508.00,95.27
2507.00,95.27
2506.00,95.27
2505.00,95.26
2504.00,95.25
2503.00,95.24
2502.00,95.24
2501.00,95.26
2500.00,95.30
2499.00,95.33
2498.00,95.34
2497.00,95.34
2496.00,95.32
2495.00,95.31
2494.00,95.31
2493.00,95.32
2492.00,95.34
2491.00,95.35
2490.00,95.36
2489.00,95.36
2488.00,95.36
2487.00,95.36
2486.00,95.35
2485.00,95.34
2484.00,95.32
2483.00,95.33
2482.00,95.36
2481.00,95.38
2480.00,95.39
2479.00,95.38
2478.00,95.37
2477.00,95.37
2476.00,95.39
2475.00,95.41
2474.00,95.40
2473.00,95.38
2472.00,95.34
2471.00,95.31
2470.00,95.31
2469.00,95.32
2468.00,95.35
2467.00,95.39
2466.00,95.42
2465.00,95.43
2464.00,95.42
2463.00,95.39
2462.00,95.36
2461.00,95.34
2460.00,95.34
2459.00,95.35
2458.00,95.36
2457.00,95.37
2456.00,95.38
2455.00,95.38
2454.00,95.40
2453.00,95.42
2452.00,95.45
2451.00,95.47
2450.00,95.49
2449.00,95.49
2448.00,95.47
2447.00,95.46
2446.00,95.47
2445.00,95.48
2444.00,95.50
2443.00,95.51
2442.00,95.50
2441.00,95.48
2440.00,95.46
2439.00,95.46
2438.00,95.47
2437.00,95.50
2436.00,95.53
2435.00,95.56
2434.00,95.57
2433.00,95.57
2432.00,95.56
2431.00,95.56
2430.00,95.57
2429.00,95.59
2428.00,95.59
2427.00,95.59
2426.00,95.58
2425.00,95.59
2424.00,95.59
2423.00,95.59
2422.00,95.59
2421.00,95.59
2420.00,95.59
2419.00,95.60
2418.00,95.60
2417.00,95.60
2416.00,95.60
2415.00,95.60
2414.00,95.61
2413.00,95.63
2412.00,95.64
2411.00,95.65
2410.00,95.65
2409.00,95.65
2408.00,95.67
2407.00,95.69
2406.00,95.71
2405.00,95.72
2404.00,95.73
2403.00,95.74
2402.00,95.76
2401.00,95.77
2400.00,95.77
2399.00,95.78
2398.00,95.80
2397.00,95.82
2396.00,95.83
2395.00,95.82
2394.00,95.81
2393.00,95.79
2392.00,95.78
2391.00,95.78
2390.00,95.79
2389.00,95.80
2388.00,95.81
2387.00,95.82
2386.00,95.82
2385.00,95.82
2384.00,95.84
2383.00,95.87
2382.00,95.90
2381.00,95.92
2380.00,95.92
2379.00,95.92
2378.00,95.90
2377.00,95.90
2376.00,95.91
2375.00,95.92
2374.00,95.93
2373.00,95.94
2372.00,95.97
2371.00,96.01
2370.00,96.04
2369.00,96.02
2368.00,95.96
2367.00,95.90
2366.00,95.88
2365.00,95.91
2364.00,95.97
2363.00,96.03
2362.00,96.07
2361.00,96.04
2360.00,95.97
2359.00,95.88
2358.00,95.83
2357.00,95.83
2356.00,95.87
2355.00,95.92
2354.00,95.98
2353.00,96.02
2352.00,96.01
2351.00,95.99
2350.00,95.99
2349.00,96.03
2348.00,96.08
2347.00,96.10
2346.00,96.07
2345.00,96.02
2344.00,95.97
2343.00,95.94
2342.00,95.92
2341.00,95.94
2340.00,95.98
2339.00,96.03
2338.00,96.04
2337.00,96.01
2336.00,95.97
2335.00,95.95
2334.00,95.94
2333.00,95.95
2332.00,95.94
2331.00,95.93
2330.00,95.91
2329.00,95.89
2328.00,95.88
2327.00,95.89
2326.00,95.88
2325.00,95.83
2324.00,95.77
2323.00,95.75
2322.00,95.77
2321.00,95.81
2320.00,95.83
2319.00,95.82
2318.00,95.78
2317.00,95.75
2316.00,95.73
2315.00,95.73
2314.00,95.74
2313.00,95.76
2312.00,95.78
2311.00,95.78
2310.00,95.75
2309.00,95.71
2308.00,95.67
2307.00,95.64
2306.00,95.63
2305.00,95.63
2304.00,95.64
2303.00,95.64
2302.00,95.64
2301.00,95.63
2300.00,95.60
2299.00,95.56
2298.00,95.54
2297.00,95.53
2296.00,95.53
2295.00,95.53
2294.00,95.50
2293.00,95.46
2292.00,95.44
2291.00,95.43
2290.00,95.43
2289.00,95.40
2288.00,95.36
2287.00,95.32
2286.00,95.27
2285.00,95.21
2284.00,95.16
2283.00,95.14
2282.00,95.15
2281.00,95.18
2280.00,95.20
2279.00,95.18
2278.00,95.13
2277.00,95.07
2276.00,95.02
2275.00,94.99
2274.00,95.00
2273.00,95.03
2272.00,95.05
2271.00,95.05
2270.00,95.01
2269.00,94.97
2268.00,94.95
2267.00,94.96
2266.00,94.97
2265.00,94.97
2264.00,94.96
2263.00,94.94
2262.00,94.92
2261.00,94.92
2260.00,94.93
2259.00,94.92
2258.00,94.91
2257.00,94.88
2256.00,94.84
2255.00,94.78
2254.00,94.72
2253.00,94.65
2252.00,94.60
2251.00,94.59
2250.00,94.63
2249.00,94.69
2248.00,94.76
2247.00,94.80
2246.00,94.80
2245.00,94.75
2244.00,94.69
2243.00,94.64
2242.00,94.61
2241.00,94.60
2240.00,94.60
2239.00,94.60
2238.00,94.59
2237.00,94.57
2236.00,94.55
2235.00,94.54
2234.00,94.55
2233.00,94.57
2232.00,94.59
2231.00,94.56
2230.00,94.51
2229.00,94.45
2228.00,94.41
2227.00,94.40
2226.00,94.40
2225.00,94.39
2224.00,94.36
2223.00,94.32
2222.00,94.28
2221.00,94.25
2220.00,94.24
2219.00,94.25
2218.00,94.27
2217.00,94.26
2216.00,94.24
2215.00,94.22
2214.00,94.23
2213.00,94.25
2212.00,94.25
2211.00,94.23
2210.00,94.19
2209.00,94.13
2208.00,94.06
2207.00,94.00
2206.00,93.98
2205.00,93.99
2204.00,94.04
2203.00,94.09
2202.00,94.12
2201.00,94.12
2200.00,94.09
2199.00,94.05
2198.00,94.04
2197.00,94.05
2196.00,94.06
2195.00,94.03
2194.00,93.95
2193.00,93.86
2192.00,93.80
2191.00,93.79
2190.00,93.80
2189.00,93.81
2188.00,93.77
2187.00,93.71
2186.00,93.65
2185.00,93.61
2184.00,93.59
2183.00,93.59
2182.00,93.59
2181.00,93.59
2180.00,93.60
2179.00,93.60
2178.00,93.60
2177.00,93.58
2176.00,93.56
2175.00,93.53
2174.00,93.51
2173.00,93.50
2172.00,93.49
2171.00,93.49
2170.00,93.48
2169.00,93.44
2168.00,93.37
2167.00,93.27
2166.00,93.15
2165.00,93.03
2164.00,92.91
2163.00,92.81
2162.00,92.76
2161.00,92.80
2160.00,92.93
2159.00,93.15
2158.00,93.38
2157.00,93.58
2156.00,93.68
2155.00,93.71
2154.00,93.71
2153.00,93.73
2152.00,93.78
2151.00,93.85
2150.00,93.90
2149.00,93.94
2148.00,93.96
2147.00,93.97
2146.00,93.98
2145.00,93.99
2144.00,94.00
2143.00,94.03
2142.00,94.07
2141.00,94.11
2140.00,94.17
2139.00,94.23
2138.00,94.30
2137.00,94.39
2136.00,94.49
2135.00,94.58
2134.00,94.66
2133.00,94.73
2132.00,94.78
2131.00,94.83
2130.00,94.87
2129.00,94.90
2128.00,94.89
2127.00,94.87
2126.00,94.84
2125.00,94.84
2124.00,94.85
2123.00,94.86
2122.00,94.86
2121.00,94.85
2120.00,94.84
2119.00,94.85
2118.00,94.86
2117.00,94.86
2116.00,94.84
2115.00,94.80
2114.00,94.77
2113.00,94.77
2112.00,94.77
2111.00,94.76
2110.00,94.75
2109.00,94.73
2108.00,94.71
2107.00,94.70
2106.00,94.70
2105.00,94.70
2104.00,94.71
2103.00,94.72
2102.00,94.73
2101.00,94.74
2100.00,94.74
2099.00,94.73
2098.00,94.71
2097.00,94.71
2096.00,94.73
2095.00,94.76
2094.00,94.80
2093.00,94.83
2092.00,94.84
2091.00,94.83
2090.00,94.82
2089.00,94.81
2088.00,94.79
2087.00,94.77
2086.00,94.75
2085.00,94.73
2084.00,94.71
2083.00,94.70
2082.00,94.70
2081.00,94.71
2080.00,94.72
2079.00,94.70
2078.00,94.66
2077.00,94.62
2076.00,94.59
2075.00,94.58
2074.00,94.58
2073.00,94.58
2072.00,94.58
2071.00,94.59
2070.00,94.60
2069.00,94.61
2068.00,94.61
2067.00,94.61
2066.00,94.58
2065.00,94.54
2064.00,94.48
2063.00,94.42
2062.00,94.37
2061.00,94.34
2060.00,94.33
2059.00,94.34
2058.00,94.34
2057.00,94.33
2056.00,94.31
2055.00,94.29
2054.00,94.27
2053.00,94.22
2052.00,94.14
2051.00,94.06
2050.00,94.03
2049.00,94.05
2048.00,94.04
2047.00,93.99
2046.00,93.91
2045.00,93.86
2044.00,93.83
2043.00,93.81
2042.00,93.77
2041.00,93.73
2040.00,93.70
2039.00,93.70
2038.00,93.70
2037.00,93.70
2036.00,93.69
2035.00,93.66
2034.00,93.63
2033.00,93.62
2032.00,93.66
2031.00,93.72
2030.00,93.78
2029.00,93.84
2028.00,93.85
2027.00,93.83
2026.00,93.79
2025.00,93.76
2024.00,93.74
2023.00,93.75
2022.00,93.79
2021.00,93.83
2020.00,93.84
2019.00,93.82
2018.00,93.78
2017.00,93.76
2016.00,93.79
2015.00,93.85
2014.00,93.89
2013.00,93.86
2012.00,93.79
2011.00,93.72
2010.00,93.71
2009.00,93.78
2008.00,93.89
2007.00,94.00
2006.00,94.07
2005.00,94.09
2004.00,94.08
2003.00,94.05
2002.00,94.00
2001.00,93.97
2000.00,93.94
1999.00,93.92
1998.00,93.92
1997.00,93.92
1996.00,93.94
1995.00,93.97
1994.00,94.02
1993.00,94.09
1992.00,94.15
1991.00,94.17
1990.00,94.14
1989.00,94.10
1988.00,94.07
1987.00,94.08
1986.00,94.10
1985.00,94.12
1984.00,94.11
1983.00,94.06
1982.00,93.97
1981.00,93.87
1980.00,93.79
1979.00,93.78
1978.00,93.83
1977.00,93.92
1976.00,93.98
1975.00,94.02
1974.00,94.04
1973.00,94.10
1972.00,94.17
1971.00,94.21
1970.00,94.21
1969.00,94.17
1968.00,94.14
1967.00,94.16
1966.00,94.22
1965.00,94.29
1964.00,94.36
1963.00,94.42
1962.00,94.47
1961.00,94.50
1960.00,94.52
1959.00,94.53
1958.00,94.55
1957.00,94.58
1956.00,94.62
1955.00,94.67
1954.00,94.74
1953.00,94.80
1952.00,94.84
1951.00,94.87
1950.00,94.90
1949.00,94.94
1948.00,94.99
1947.00,95.04
1946.00,95.06
1945.00,95.06
1944.00,95.04
1943.00,95.02
1942.00,95.02
1941.00,95.02
1940.00,95.03
1939.00,95.05
1938.00,95.08
1937.00,95.10
1936.00,95.12
1935.00,95.15
1934.00,95.19
1933.00,95.24
1932.00,95.27
1931.00,95.26
1930.00,95.24
1929.00,95.24
1928.00,95.28
1927.00,95.33
1926.00,95.37
1925.00,95.39
1924.00,95.40
1923.00,95.39
1922.00,95.38
1921.00,95.37
1920.00,95.37
1919.00,95.40
1918.00,95.45
1917.00,95.48
1916.00,95.50
1915.00,95.51
1914.00,95.51
1913.00,95.51
1912.00,95.52
1911.00,95.54
1910.00,95.57
1909.00,95.60
1908.00,95.60
1907.00,95.59
1906.00,95.55
1905.00,95.52
1904.00,95.51
1903.00,95.55
1902.00,95.59
1901.00,95.61
1900.00,95.61
1899.00,95.61
1898.00,95.62
1897.00,95.62
1896.00,95.61
1895.00,95.61
1894.00,95.63
1893.00,95.67
1892.00,95.71
1891.00,95.75
1890.00,95.79
1889.00,95.80
1888.00,95.79
1887.00,95.78
1886.00,95.76
1885.00,95.75
1884.00,95.75
1883.00,95.77
1882.00,95.79
1881.00,95.82
1880.00,95.84
1879.00,95.83
1878.00,95.82
1877.00,95.82
1876.00,95.83
1875.00,95.85
1874.00,95.86
1873.00,95.86
1872.00,95.84
1871.00,95.82
1870.00,95.82
1869.00,95.85
1868.00,95.88
1867.00,95.91
1866.00,95.91
1865.00,95.90
1864.00,95.89
1863.00,95.89
1862.00,95.90
1861.00,95.91
1860.00,95.92
1859.00,95.93
1858.00,95.94
1857.00,95.96
1856.00,95.97
1855.00,95.98
1854.00,95.98
1853.00,95.97
1852.00,95.97
1851.00,95.97
1850.00,95.98
1849.00,95.98
1848.00,95.99
1847.00,96.01
1846.00,96.03
1845.00,96.05
1844.00,96.06
1843.00,96.07
1842.00,96.07
1841.00,96.07
1840.00,96.06
1839.00,96.06
1838.00,96.07
1837.00,96.07
1836.00,96.07
1835.00,96.06
1834.00,96.05
1833.00,96.05
1832.00,96.06
1831.00,96.06
1830.00,96.07
1829.00,96.07
1828.00,96.08
1827.00,96.07
1826.00,96.07
1825.00,96.07
1824.00,96.07
1823.00,96.09
1822.00,96.12
1821.00,96.14
1820.00,96.16
1819.00,96.18
1818.00,96.19
1817.00,96.20
1816.00,96.19
1815.00,96.18
1814.00,96.17
1813.00,96.16
1812.00,96.15
1811.00,96.16
1810.00,96.19
1809.00,96.21
1808.00,96.22
1807.00,96.22
1806.00,96.23
1805.00,96.24
1804.00,96.25
1803.00,96.24
1802.00,96.24
1801.00,96.22
1800.00,96.21
1799.00,96.20
1798.00,96.20
1797.00,96.21
1796.00,96.22
1795.00,96.24
1794.00,96.26
1793.00,96.27
1792.00,96.26
1791.00,96.24
1790.00,96.23
1789.00,96.23
1788.00,96.23
1787.00,96.24
1786.00,96.24
1785.00,96.24
1784.00,96.24
1783.00,96.24
1782.00,96.24
1781.00,96.25
1780.00,96.25
1779.00,96.24
1778.00,96.25
1777.00,96.26
1776.00,96.28
1775.00,96.29
1774.00,96.27
1773.00,96.25
1772.00,96.23
1771.00,96.23
1770.00,96.23
1769.00,96.24
1768.00,96.24
1767.00,96.25
1766.00,96.25
1765.00,96.25
1764.00,96.25
1763.00,96.26
1762.00,96.26
1761.00,96.25
1760.00,96.25
1759.00,96.24
1758.00,96.24
1757.00,96.24
1756.00,96.24
1755.00,96.23
1754.00,96.23
1753.00,96.23
1752.00,96.23
1751.00,96.23
1750.00,96.24
1749.00,96.24
1748.00,96.23
1747.00,96.22
1746.00,96.22
1745.00,96.22
1744.00,96.23
1743.00,96.24
1742.00,96.25
1741.00,96.24
1740.00,96.22
1739.00,96.20
1738.00,96.19
1737.00,96.19
1736.00,96.20
1735.00,96.20
1734.00,96.21
1733.00,96.21
1732.00,96.20
1731.00,96.20
1730.00,96.19
1729.00,96.18
1728.00,96.16
1727.00,96.15
1726.00,96.15
1725.00,96.15
1724.00,96.17
1723.00,96.18
1722.00,96.19
1721.00,96.19
1720.00,96.18
1719.00,96.15
1718.00,96.12
1717.00,96.09
1716.00,96.07
1715.00,96.07
1714.00,96.08
1713.00,96.09
1712.00,96.09
1711.00,96.09
1710.00,96.08
1709.00,96.06
1708.00,96.03
1707.00,96.00
1706.00,95.97
1705.00,95.96
1704.00,95.96
1703.00,95.96
1702.00,95.95
1701.00,95.93
1700.00,95.93
1699.00,95.94
1698.00,95.93
1697.00,95.92
1696.00,95.89
1695.00,95.85
1694.00,95.80
1693.00,95.77
1692.00,95.73
1691.00,95.70
1690.00,95.68
1689.00,95.67
1688.00,95.67
1687.00,95.67
1686.00,95.64
1685.00,95.59
1684.00,95.51
1683.00,95.43
1682.00,95.38
1681.00,95.34
1680.00,95.33
1679.00,95.31
1678.00,95.28
1677.00,95.23
1676.00,95.17
1675.00,95.12
1674.00,95.09
1673.00,95.07
1672.00,95.04
1671.00,94.99
1670.00,94.93
1669.00,94.86
1668.00,94.80
1667.00,94.75
1666.00,94.71
1665.00,94.67
1664.00,94.62
1663.00,94.59
1662.00,94.56
1661.00,94.54
1660.00,94.50
1659.00,94.46
1658.00,94.43
1657.00,94.43
1656.00,94.44
1655.00,94.43
1654.00,94.40
1653.00,94.34
1652.00,94.27
1651.00,94.21
1650.00,94.18
1649.00,94.16
1648.00,94.13
1647.00,94.11
1646.00,94.07
1645.00,94.04
1644.00,94.02
1643.00,94.01
1642.00,94.01
1641.00,94.03
1640.00,94.05
1639.00,94.07
1638.00,94.08
1637.00,94.08
1636.00,94.08
1635.00,94.08
1634.00,94.09
1633.00,94.10
1632.00,94.12
1631.00,94.14
1630.00,94.16
1629.00,94.19
1628.00,94.21
1627.00,94.25
1626.00,94.28
1625.00,94.32
1624.00,94.35
1623.00,94.39
1622.00,94.42
1621.00,94.46
1620.00,94.50
1619.00,94.56
1618.00,94.63
1617.00,94.68
1616.00,94.71
1615.00,94.72
1614.00,94.73
1613.00,94.75
1612.00,94.78
1611.00,94.82
1610.00,94.85
1609.00,94.88
1608.00,94.92
1607.00,94.96
1606.00,95.00
1605.00,95.03
1604.00,95.05
1603.00,95.07
1602.00,95.08
1601.00,95.10
1600.00,95.13
1599.00,95.16
1598.00,95.18
1597.00,95.21
1596.00,95.23
1595.00,95.26
1594.00,95.28
1593.00,95.31
1592.00,95.33
1591.00,95.36
1590.00,95.38
1589.00,95.40
1588.00,95.41
1587.00,95.44
1586.00,95.46
1585.00,95.48
1584.00,95.50
1583.00,95.51
1582.00,95.53
1581.00,95.55
1580.00,95.58
1579.00,95.62
1578.00,95.66
1577.00,95.69
1576.00,95.71
1575.00,95.70
1574.00,95.70
1573.00,95.70
1572.00,95.71
1571.00,95.72
1570.00,95.73
1569.00,95.74
1568.00,95.75
1567.00,95.76
1566.00,95.77
1565.00,95.79
1564.00,95.82
1563.00,95.86
1562.00,95.90
1561.00,95.92
1560.00,95.90
1559.00,95.87
1558.00,95.87
1557.00,95.87
1556.00,95.87
1555.00,95.88
1554.00,95.88
1553.00,95.88
1552.00,95.87
1551.00,95.85
1550.00,95.84
1549.00,95.84
1548.00,95.85
1547.00,95.85
1546.00,95.85
1545.00,95.86
1544.00,95.86
1543.00,95.85
1542.00,95.85
1541.00,95.84
1540.00,95.85
1539.00,95.85
1538.00,95.85
1537.00,95.85
1536.00,95.85
1535.00,95.85
1534.00,95.87
1533.00,95.88
1532.00,95.89
1531.00,95.89
1530.00,95.90
1529.00,95.90
1528.00,95.91
1527.00,95.93
1526.00,95.95
1525.00,95.97
1524.00,95.98
1523.00,95.98
1522.00,95.96
1521.00,95.94
1520.00,95.92
1519.00,95.90
1518.00,95.89
1517.00,95.89
1516.00,95.88
1515.00,95.87
1514.00,95.87
1513.00,95.86
1512.00,95.86
1511.00,95.85
1510.00,95.85
1509.00,95.84
1508.00,95.84
1507.00,95.84
1506.00,95.83
1505.00,95.80
1504.00,95.77
1503.00,95.76
1502.00,95.75
1501.00,95.74
1500.00,95.71
1499.00,95.68
1498.00,95.65
1497.00,95.62
1496.00,95.59
1495.00,95.56
1494.00,95.53
1493.00,95.49
1492.00,95.43
1491.00,95.36
1490.00,95.29
1489.00,95.21
1488.00,95.15
1487.00,95.09
1486.00,95.03
1485.00,94.97
1484.00,94.90
1483.00,94.83
1482.00,94.75
1481.00,94.66
1480.00,94.57
1479.00,94.48
1478.00,94.38
1477.00,94.27
1476.00,94.17
1475.00,94.07
1474.00,93.97
1473.00,93.86
1472.00,93.73
1471.00,93.63
1470.00,93.54
1469.00,93.47
1468.00,93.40
1467.00,93.33
1466.00,93.26
1465.00,93.20
1464.00,93.14
1463.00,93.08
1462.00,93.03
1461.00,92.98
1460.00,92.94
1459.00,92.90
1458.00,92.86
1457.00,92.79
1456.00,92.71
1455.00,92.65
1454.00,92.60
1453.00,92.55
1452.00,92.51
1451.00,92.47
1450.00,92.42
1449.00,92.36
1448.00,92.29
1447.00,92.21
1446.00,92.14
1445.00,92.08
1444.00,92.03
1443.00,91.99
1442.00,91.96
1441.00,91.93
1440.00,91.91
1439.00,91.89
1438.00,91.86
1437.00,91.81
1436.00,91.75
1435.00,91.71
1434.00,91.69
1433.00,91.67
1432.00,91.65
1431.00,91.64
1430.00,91.63
1429.00,91.63
1428.00,91.63
1427.00,91.63
1426.00,91.63
1425.00,91.62
1424.00,91.61
1423.00,91.61
1422.00,91.62
1421.00,91.62
1420.00,91.61
1419.00,91.59
1418.00,91.57
1417.00,91.56
1416.00,91.57
1415.00,91.58
1414.00,91.60
1413.00,91.61
1412.00,91.62
1411.00,91.64
1410.00,91.66
1409.00,91.68
1408.00,91.69
1407.00,91.69
1406.00,91.69
1405.00,91.69
1404.00,91.69
1403.00,91.69
1402.00,91.69
1401.00,91.69
1400.00,91.67
1399.00,91.65
1398.00,91.63
1397.00,91.62
1396.00,91.62
1395.00,91.62
1394.00,91.61
1393.00,91.60
1392.00,91.57
1391.00,91.54
1390.00,91.50
1389.00,91.44
1388.00,91.37
1387.00,91.29
1386.00,91.19
1385.00,91.09
1384.00,90.96
1383.00,90.82
1382.00,90.66
1381.00,90.49
1380.00,90.32
1379.00,90.16
1378.00,90.01
1377.00,89.88
1376.00,89.76
1375.00,89.66
1374.00,89.57
1373.00,89.49
1372.00,89.43
1371.00,89.37
1370.00,89.31
1369.00,89.27
1368.00,89.23
1367.00,89.21
1366.00,89.21
1365.00,89.22
1364.00,89.24
1363.00,89.27
1362.00,89.31
1361.00,89.37
1360.00,89.42
1359.00,89.49
1358.00,89.56
1357.00,89.64
1356.00,89.72
1355.00,89.79
1354.00,89.84
1353.00,89.88
1352.00,89.92
1351.00,89.96
1350.00,89.99
1349.00,90.01
1348.00,90.03
1347.00,90.03
1346.00,90.02
1345.00,90.01
1344.00,90.00
1343.00,89.99
1342.00,89.96
1341.00,89.92
1340.00,89.87
1339.00,89.82
1338.00,89.77
1337.00,89.74
1336.00,89.71
1335.00,89.71
1334.00,89.71
1333.00,89.73
1332.00,89.74
1331.00,89.74
1330.00,89.73
1329.00,89.73
1328.00,89.74
1327.00,89.76
1326.00,89.77
1325.00,89.76
1324.00,89.73
1323.00,89.68
1322.00,89.61
1321.00,89.53
1320.00,89.44
1319.00,89.35
1318.00,89.25
1317.00,89.17
1316.00,89.11
1315.00,89.08
1314.00,89.07
1313.00,89.08
1312.00,89.12
1311.00,89.19
1310.00,89.27
1309.00,89.37
1308.00,89.49
1307.00,89.62
1306.00,89.75
1305.00,89.88
1304.00,90.00
1303.00,90.12
1302.00,90.22
1301.00,90.32
1300.00,90.41
1299.00,90.52
1298.00,90.62
1297.00,90.73
1296.00,90.83
1295.00,90.94
1294.00,91.04
1293.00,91.14
1292.00,91.26
1291.00,91.38
1290.00,91.50
1289.00,91.60
1288.00,91.67
1287.00,91.73
1286.00,91.77
1285.00,91.79
1284.00,91.81
1283.00,91.82
1282.00,91.80
1281.00,91.77
1280.00,91.73
1279.00,91.68
1278.00,91.64
1277.00,91.61
1276.00,91.58
1275.00,91.56
1274.00,91.54
1273.00,91.51
1272.00,91.49
1271.00,91.46
1270.00,91.43
1269.00,91.38
1268.00,91.33
1267.00,91.28
1266.00,91.25
1265.00,91.22
1264.00,91.19
1263.00,91.17
1262.00,91.15
1261.00,91.16
1260.00,91.19
1259.00,91.23
1258.00,91.29
1257.00,91.35
1256.00,91.41
1255.00,91.47
1254.00,91.55
1253.00,91.63
1252.00,91.70
1251.00,91.75
1250.00,91.79
1249.00,91.82
1248.00,91.85
1247.00,91.88
1246.00,91.90
1245.00,91.91
1244.00,91.91
1243.00,91.91
1242.00,91.93
1241.00,91.96
1240.00,91.97
1239.00,91.97
1238.00,91.95
1237.00,91.92
1236.00,91.89
1235.00,91.89
1234.00,91.91
1233.00,91.93
1232.00,91.95
1231.00,91.97
1230.00,91.99
1229.00,92.02
1228.00,92.06
1227.00,92.11
1226.00,92.17
1225.00,92.25
1224.00,92.35
1223.00,92.47
1222.00,92.60
1221.00,92.73
1220.00,92.86
1219.00,92.98
1218.00,93.08
1217.00,93.16
1216.00,93.23
1215.00,93.30
1214.00,93.34
1213.00,93.37
1212.00,93.36
1211.00,93.33
1210.00,93.26
1209.00,93.17
1208.00,93.07
1207.00,92.97
1206.00,92.85
1205.00,92.71
1204.00,92.57
1203.00,92.45
1202.00,92.35
1201.00,92.28
1200.00,92.23
1199.00,92.20
1198.00,92.22
1197.00,92.30
1196.00,92.42
1195.00,92.57
1194.00,92.73
1193.00,92.90
1192.00,93.08
1191.00,93.26
1190.00,93.41
1189.00,93.54
1188.00,93.64
1187.00,93.72
1186.00,93.79
1185.00,93.83
1184.00,93.84
1183.00,93.80
1182.00,93.71
1181.00,93.59
1180.00,93.46
1179.00,93.34
1178.00,93.20
1177.00,93.05
1176.00,92.87
1175.00,92.67
1174.00,92.44
1173.00,92.20
1172.00,91.94
1171.00,91.66
1170.00,91.34
1169.00,90.98
1168.00,90.59
1167.00,90.17
1166.00,89.76
1165.00,89.35
1164.00,88.95
1163.00,88.57
1162.00,88.24
1161.00,87.94
1160.00,87.68
1159.00,87.49
1158.00,87.37
1157.00,87.31
1156.00,87.31
1155.00,87.35
1154.00,87.44
1153.00,87.57
1152.00,87.72
1151.00,87.89
1150.00,88.06
1149.00,88.23
1148.00,88.41
1147.00,88.58
1146.00,88.73
1145.00,88.85
1144.00,88.92
1143.00,88.96
1142.00,88.98
1141.00,88.98
1140.00,88.96
1139.00,88.91
1138.00,88.81
1137.00,88.66
1136.00,88.46
1135.00,88.25
1134.00,88.03
1133.00,87.80
1132.00,87.55
1131.00,87.29
1130.00,87.03
1129.00,86.77
1128.00,86.49
1127.00,86.21
1126.00,85.93
1125.00,85.64
1124.00,85.34
1123.00,85.04
1122.00,84.75
1121.00,84.46
1120.00,84.18
1119.00,83.91
1118.00,83.68
1117.00,83.47
1116.00,83.30
1115.00,83.15
1114.00,83.01
1113.00,82.86
1112.00,82.72
1111.00,82.59
1110.00,82.49
1109.00,82.39
1108.00,82.28
1107.00,82.16
1106.00,82.03
1105.00,81.86
1104.00,81.65
1103.00,81.40
1102.00,81.14
1101.00,80.86
1100.00,80.57
1099.00,80.28
1098.00,80.01
1097.00,79.75
1096.00,79.50
1095.00,79.30
1094.00,79.11
1093.00,78.91
1092.00,78.69
1091.00,78.49
1090.00,78.32
1089.00,78.17
1088.00,78.02
1087.00,77.85
1086.00,77.66
1085.00,77.47
1084.00,77.28
1083.00,77.12
1082.00,76.96
1081.00,76.79
1080.00,76.60
1079.00,76.40
1078.00,76.20
1077.00,75.98
1076.00,75.73
1075.00,75.46
1074.00,75.20
1073.00,74.95
1072.00,74.73
1071.00,74.55
1070.00,74.37
1069.00,74.18
1068.00,73.97
1067.00,73.75
1066.00,73.53
1065.00,73.28
1064.00,73.00
1063.00,72.72
1062.00,72.46
1061.00,72.23
1060.00,72.01
1059.00,71.81
1058.00,71.63
1057.00,71.45
1056.00,71.28
1055.00,71.13
1054.00,70.99
1053.00,70.85
1052.00,70.72
1051.00,70.61
1050.00,70.53
1049.00,70.45
1048.00,70.34
1047.00,70.23
1046.00,70.12
1045.00,70.00
1044.00,69.87
1043.00,69.76
1042.00,69.66
1041.00,69.57
1040.00,69.46
1039.00,69.35
1038.00,69.23
1037.00,69.06
1036.00,68.86
1035.00,68.63
1034.00,68.41
1033.00,68.18
1032.00,67.94
1031.00,67.69
1030.00,67.44
1029.00,67.18
1028.00,66.92
1027.00,66.68
1026.00,66.48
1025.00,66.30
1024.00,66.12
1023.00,65.98
1022.00,65.88
1021.00,65.80
1020.00,65.73
1019.00,65.69
1018.00,65.69
1017.00,65.73
1016.00,65.82
1015.00,65.94
1014.00,66.10
1013.00,66.28
1012.00,66.46
1011.00,66.65
1010.00,66.85
1009.00,67.05
1008.00,67.24
1007.00,67.42
1006.00,67.59
1005.00,67.74
1004.00,67.85
1003.00,67.94
1002.00,68.00
1001.00,68.03
1000.00,68.03
999.00,68.01
998.00,67.99
997.00,67.98
996.00,68.00
995.00,68.06
994.00,68.16
993.00,68.29
992.00,68.45
991.00,68.67
990.00,68.95
989.00,69.27
988.00,69.62
987.00,70.02
986.00,70.48
985.00,70.98
984.00,71.50
983.00,72.04
982.00,72.60
981.00,73.14
980.00,73.66
979.00,74.17
978.00,74.66
977.00,75.12
976.00,75.54
975.00,75.92
974.00,76.27
973.00,76.59
972.00,76.90
971.00,77.19
970.00,77.47
969.00,77.74
968.00,77.99
967.00,78.22
966.00,78.44
965.00,78.66
964.00,78.88
963.00,79.11
962.00,79.34
961.00,79.56
960.00,79.77
959.00,79.99
958.00,80.23
957.00,80.48
956.00,80.74
955.00,81.01
954.00,81.29
953.00,81.55
952.00,81.77
951.00,81.97
950.00,82.16
949.00,82.38
948.00,82.59
947.00,82.81
946.00,83.02
945.00,83.22
944.00,83.40
943.00,83.56
942.00,83.71
941.00,83.85
940.00,83.98
939.00,84.11
938.00,84.22
937.00,84.31
936.00,84.40
935.00,84.50
934.00,84.61
933.00,84.73
932.00,84.84
931.00,84.94
930.00,85.02
929.00,85.10
928.00,85.17
927.00,85.23
926.00,85.31
925.00,85.39
924.00,85.48
923.00,85.57
922.00,85.65
921.00,85.74
920.00,85.83
919.00,85.90
918.00,85.96
917.00,85.99
916.00,86.00
915.00,85.97
914.00,85.93
913.00,85.87
912.00,85.80
911.00,85.70
910.00,85.59
909.00,85.46
908.00,85.31
907.00,85.15
906.00,84.98
905.00,84.80
904.00,84.61
903.00,84.41
902.00,84.20
901.00,84.00
900.00,83.81
899.00,83.63
898.00,83.47
897.00,83.30
896.00,83.16
895.00,83.06
894.00,83.03
893.00,83.09
892.00,83.21
891.00,83.37
890.00,83.55
889.00,83.78
888.00,84.05
887.00,84.36
886.00,84.67
885.00,84.96
884.00,85.23
883.00,85.47
882.00,85.69
881.00,85.89
880.00,86.09
879.00,86.30
878.00,86.50
877.00,86.69
876.00,86.84
875.00,86.97
874.00,87.07
873.00,87.16
872.00,87.27
871.00,87.39
870.00,87.52
869.00,87.65
868.00,87.76
867.00,87.85
866.00,87.92
865.00,87.96
864.00,87.99
863.00,88.03
862.00,88.08
861.00,88.13
860.00,88.17
859.00,88.22
858.00,88.25
857.00,88.28
856.00,88.31
855.00,88.34
854.00,88.38
853.00,88.42
852.00,88.44
851.00,88.44
850.00,88.44
849.00,88.45
848.00,88.46
847.00,88.48
846.00,88.49
845.00,88.49
844.00,88.48
843.00,88.48
842.00,88.49
841.00,88.50
840.00,88.51
839.00,88.51
838.00,88.50
837.00,88.48
836.00,88.44
835.00,88.41
834.00,88.37
833.00,88.36
832.00,88.36
831.00,88.38
830.00,88.39
829.00,88.40
828.00,88.41
827.00,88.41
826.00,88.39
825.00,88.35
824.00,88.31
823.00,88.28
822.00,88.26
821.00,88.26
820.00,88.26
819.00,88.27
818.00,88.29
817.00,88.28
816.00,88.26
815.00,88.23
814.00,88.21
813.00,88.21
812.00,88.21
811.00,88.22
810.00,88.22
809.00,88.19
808.00,88.16
807.00,88.12
806.00,88.09
805.00,88.05
804.00,88.02
803.00,88.00
802.00,88.01
801.00,88.01
800.00,87.99
799.00,87.94
798.00,87.89
797.00,87.85
796.00,87.84
795.00,87.87
794.00,87.91
793.00,87.91
792.00,87.87
791.00,87.81
790.00,87.75
789.00,87.70
788.00,87.65
787.00,87.61
786.00,87.58
785.00,87.56
784.00,87.56
783.00,87.55
782.00,87.54
781.00,87.51
780.00,87.47
779.00,87.43
778.00,87.38
777.00,87.33
776.00,87.27
775.00,87.21
774.00,87.16
773.00,87.12
772.00,87.08
771.00,87.04
770.00,87.02
769.00,86.99
768.00,86.98
767.00,86.99
766.00,86.99
765.00,86.98
764.00,86.96
763.00,86.93
762.00,86.89
761.00,86.83
760.00,86.73
759.00,86.63
758.00,86.54
757.00,86.46
756.00,86.39
755.00,86.34
754.00,86.31
753.00,86.29
752.00,86.25
751.00,86.23
750.00,86.21
749.00,86.17
748.00,86.11
747.00,86.03
746.00,85.95
745.00,85.89
744.00,85.83
743.00,85.80
742.00,85.79
741.00,85.79
740.00,85.78
739.00,85.75
738.00,85.70
737.00,85.63
736.00,85.56
735.00,85.50
734.00,85.42
733.00,85.31
732.00,85.19
731.00,85.10
730.00,85.06
729.00,85.04
728.00,85.02
727.00,84.98
726.00,84.94
725.00,84.88
724.00,84.80
723.00,84.72
722.00,84.65
721.00,84.59
720.00,84.52
719.00,84.45
718.00,84.39
717.00,84.33
716.00,84.28
715.00,84.23
714.00,84.18
713.00,84.12
712.00,84.04
711.00,83.96
710.00,83.92
709.00,83.91
708.00,83.92
707.00,83.94
706.00,83.97
705.00,83.96
704.00,83.91
703.00,83.85
702.00,83.81
701.00,83.80
700.00,83.79
699.00,83.76
698.00,83.72
697.00,83.68
696.00,83.65
695.00,83.63
694.00,83.64
693.00,83.66
692.00,83.67
691.00,83.66
690.00,83.63
689.00,83.58
688.00,83.55
687.00,83.52
686.00,83.49
685.00,83.44
684.00,83.37
683.00,83.28
682.00,83.14
681.00,82.88
680.00,82.53
679.00,82.18
678.00,81.85
677.00,81.48
676.00,81.01
675.00,80.47
674.00,79.92
673.00,79.42
672.00,79.01
671.00,78.70
670.00,78.51
669.00,78.36
668.00,78.13
667.00,77.88
666.00,77.74
665.00,77.70
664.00,77.70
663.00,77.72
662.00,77.75
661.00,77.75
660.00,77.73
659.00,77.70
658.00,77.69
657.00,77.70
656.00,77.70
655.00,77.71
654.00,77.73
653.00,77.76
652.00,77.79
651.00,77.83
650.00,77.85
649.00,77.82
648.00,77.76
647.00,77.75
646.00,77.81
645.00,77.87
644.00,77.86
643.00,77.79
642.00,77.72
641.00,77.62
640.00,77.48
639.00,77.30
638.00,77.15
637.00,77.05
636.00,77.00
635.00,76.99
634.00,77.04
633.00,77.11
632.00,77.12
631.00,77.08
630.00,77.00
629.00,76.89
628.00,76.82
627.00,76.84
626.00,76.96
625.00,77.12
624.00,77.21
623.00,77.21
622.00,77.04
621.00,76.65
620.00,76.16
619.00,75.80
618.00,75.70
617.00,75.68
616.00,75.55
615.00,75.34
614.00,75.12
613.00,74.89
612.00,74.68
611.00,74.64
610.00,74.78
609.00,74.90
608.00,74.80
607.00,74.55
606.00,74.33
605.00,74.19
604.00,74.17
603.00,74.37
602.00,74.76
601.00,75.11
600.00,75.18
599.00,74.95
598.00,74.60
597.00,74.28
596.00,74.06
595.00,74.00
594.00,74.09
593.00,74.18
592.00,74.13
591.00,74.06
590.00,74.18
589.00,74.45
588.00,74.63
587.00,74.60
586.00,74.48
585.00,74.38
584.00,74.26
583.00,74.07
582.00,73.89
581.00,73.77
580.00,73.70
579.00,73.66
578.00,73.62
577.00,73.54
576.00,73.43
575.00,73.37
574.00,73.38
573.00,73.38
572.00,73.42
571.00,73.69
570.00,74.15
569.00,74.45
568.00,74.30
567.00,73.81
566.00,73.30
565.00,72.86
564.00,72.39
563.00,71.94
562.00,71.67
561.00,71.65
560.00,71.76
559.00,71.88
558.00,71.99
557.00,72.15
556.00,72.52
555.00,73.11
554.00,73.64
553.00,73.75
552.00,73.35
551.00,72.64
550.00,71.91
