Created as New Dataset,63. Modacrylic Solutia Dyed
cm-1,%T
4000.00,98.07
3999.00,98.07
3998.00,98.07
3997.00,98.06
3996.00,98.04
3995.00,98.02
3994.00,98.01
3993.00,98.01
3992.00,98.03
3991.00,98.04
3990.00,98.05
3989.00,98.06
3988.00,98.07
3987.00,98.07
3986.00,98.07
3985.00,98.06
3984.00,98.05
3983.00,98.05
3982.00,98.05
3981.00,98.07
3980.00,98.09
3979.00,98.10
3978.00,98.11
3977.00,98.10
3976.00,98.08
3975.00,98.06
3974.00,98.05
3973.00,98.05
3972.00,98.06
3971.00,98.07
3970.00,98.07
3969.00,98.06
3968.00,98.05
3967.00,98.05
3966.00,98.07
3965.00,98.08
3964.00,98.09
3963.00,98.08
3962.00,98.07
3961.00,98.06
3960.00,98.06
3959.00,98.07
3958.00,98.07
3957.00,98.07
3956.00,98.07
3955.00,98.06
3954.00,98.06
3953.00,98.06
3952.00,98.05
3951.00,98.04
3950.00,98.02
3949.00,98.02
3948.00,98.02
3947.00,98.03
3946.00,98.04
3945.00,98.05
3944.00,98.05
3943.00,98.06
3942.00,98.06
3941.00,98.06
3940.00,98.07
3939.00,98.06
3938.00,98.06
3937.00,98.06
3936.00,98.06
3935.00,98.05
3934.00,98.04
3933.00,98.03
3932.00,98.03
3931.00,98.03
3930.00,98.03
3929.00,98.02
3928.00,98.01
3927.00,98.00
3926.00,97.99
3925.00,98.00
3924.00,98.02
3923.00,98.04
3922.00,98.05
3921.00,98.05
3920.00,98.04
3919.00,98.04
3918.00,98.04
3917.00,98.05
3916.00,98.06
3915.00,98.06
3914.00,98.07
3913.00,98.06
3912.00,98.05
3911.00,98.04
3910.00,98.04
3909.00,98.04
3908.00,98.06
3907.00,98.09
3906.00,98.11
3905.00,98.13
3904.00,98.13
3903.00,98.12
3902.00,98.11
3901.00,98.08
3900.00,98.04
3899.00,98.02
3898.00,98.00
3897.00,98.01
3896.00,98.01
3895.00,98.01
3894.00,98.03
3893.00,98.04
3892.00,98.05
3891.00,98.05
3890.00,98.05
3889.00,98.05
3888.00,98.04
3887.00,98.02
3886.00,98.00
3885.00,98.00
3884.00,98.03
3883.00,98.04
3882.00,98.03
3881.00,97.99
3880.00,97.97
3879.00,97.97
3878.00,97.98
3877.00,97.98
3876.00,97.97
3875.00,97.96
3874.00,97.97
3873.00,98.00
3872.00,98.02
3871.00,98.02
3870.00,98.01
3869.00,98.02
3868.00,98.05
3867.00,98.06
3866.00,98.04
3865.00,98.02
3864.00,98.01
3863.00,98.03
3862.00,98.04
3861.00,98.03
3860.00,98.01
3859.00,98.01
3858.00,98.03
3857.00,98.05
3856.00,98.08
3855.00,98.08
3854.00,98.04
3853.00,97.99
3852.00,97.98
3851.00,97.98
3850.00,97.94
3849.00,97.89
3848.00,97.87
3847.00,97.88
3846.00,97.90
3845.00,97.92
3844.00,97.94
3843.00,97.98
3842.00,98.02
3841.00,98.06
3840.00,98.08
3839.00,98.06
3838.00,98.03
3837.00,97.98
3836.00,97.95
3835.00,97.94
3834.00,97.94
3833.00,97.94
3832.00,97.94
3831.00,97.94
3830.00,97.95
3829.00,97.95
3828.00,97.95
3827.00,97.95
3826.00,97.95
3825.00,97.96
3824.00,97.97
3823.00,97.97
3822.00,97.95
3821.00,97.93
3820.00,97.94
3819.00,97.98
3818.00,98.00
3817.00,97.98
3816.00,97.93
3815.00,97.90
3814.00,97.90
3813.00,97.91
3812.00,97.91
3811.00,97.91
3810.00,97.93
3809.00,97.94
3808.00,97.94
3807.00,97.92
3806.00,97.90
3805.00,97.90
3804.00,97.92
3803.00,97.92
3802.00,97.90
3801.00,97.88
3800.00,97.89
3799.00,97.90
3798.00,97.89
3797.00,97.87
3796.00,97.86
3795.00,97.88
3794.00,97.91
3793.00,97.94
3792.00,97.95
3791.00,97.96
3790.00,97.97
3789.00,97.98
3788.00,97.97
3787.00,97.96
3786.00,97.93
3785.00,97.91
3784.00,97.89
3783.00,97.88
3782.00,97.87
3781.00,97.87
3780.00,97.86
3779.00,97.86
3778.00,97.85
3777.00,97.85
3776.00,97.84
3775.00,97.83
3774.00,97.84
3773.00,97.86
3772.00,97.88
3771.00,97.89
3770.00,97.88
3769.00,97.88
3768.00,97.89
3767.00,97.90
3766.00,97.89
3765.00,97.87
3764.00,97.86
3763.00,97.86
3762.00,97.85
3761.00,97.85
3760.00,97.85
3759.00,97.85
3758.00,97.85
3757.00,97.84
3756.00,97.83
3755.00,97.83
3754.00,97.84
3753.00,97.84
3752.00,97.84
3751.00,97.83
3750.00,97.82
3749.00,97.81
3748.00,97.81
3747.00,97.80
3746.00,97.76
3745.00,97.70
3744.00,97.68
3743.00,97.72
3742.00,97.79
3741.00,97.82
3740.00,97.82
3739.00,97.83
3738.00,97.85
3737.00,97.85
3736.00,97.83
3735.00,97.81
3734.00,97.80
3733.00,97.81
3732.00,97.80
3731.00,97.80
3730.00,97.80
3729.00,97.81
3728.00,97.80
3727.00,97.80
3726.00,97.81
3725.00,97.82
3724.00,97.82
3723.00,97.81
3722.00,97.80
3721.00,97.80
3720.00,97.80
3719.00,97.79
3718.00,97.78
3717.00,97.76
3716.00,97.75
3715.00,97.74
3714.00,97.74
3713.00,97.75
3712.00,97.76
3711.00,97.76
3710.00,97.76
3709.00,97.75
3708.00,97.75
3707.00,97.76
3706.00,97.76
3705.00,97.77
3704.00,97.76
3703.00,97.75
3702.00,97.73
3701.00,97.73
3700.00,97.73
3699.00,97.73
3698.00,97.73
3697.00,97.73
3696.00,97.74
3695.00,97.75
3694.00,97.75
3693.00,97.73
3692.00,97.70
3691.00,97.69
3690.00,97.68
3689.00,97.68
3688.00,97.68
3687.00,97.68
3686.00,97.67
3685.00,97.65
3684.00,97.62
3683.00,97.62
3682.00,97.64
3681.00,97.67
3680.00,97.69
3679.00,97.71
3678.00,97.73
3677.00,97.74
3676.00,97.74
3675.00,97.73
3674.00,97.73
3673.00,97.73
3672.00,97.69
3671.00,97.62
3670.00,97.57
3669.00,97.55
3668.00,97.56
3667.00,97.56
3666.00,97.56
3665.00,97.55
3664.00,97.56
3663.00,97.56
3662.00,97.57
3661.00,97.57
3660.00,97.58
3659.00,97.58
3658.00,97.58
3657.00,97.57
3656.00,97.56
3655.00,97.57
3654.00,97.59
3653.00,97.62
3652.00,97.64
3651.00,97.66
3650.00,97.67
3649.00,97.64
3648.00,97.59
3647.00,97.53
3646.00,97.49
3645.00,97.47
3644.00,97.47
3643.00,97.47
3642.00,97.48
3641.00,97.48
3640.00,97.48
3639.00,97.47
3638.00,97.46
3637.00,97.45
3636.00,97.45
3635.00,97.45
3634.00,97.47
3633.00,97.48
3632.00,97.51
3631.00,97.53
3630.00,97.54
3629.00,97.53
3628.00,97.53
3627.00,97.53
3626.00,97.53
3625.00,97.50
3624.00,97.47
3623.00,97.45
3622.00,97.45
3621.00,97.45
3620.00,97.44
3619.00,97.43
3618.00,97.44
3617.00,97.45
3616.00,97.48
3615.00,97.49
3614.00,97.49
3613.00,97.48
3612.00,97.46
3611.00,97.45
3610.00,97.44
3609.00,97.44
3608.00,97.45
3607.00,97.46
3606.00,97.45
3605.00,97.45
3604.00,97.45
3603.00,97.45
3602.00,97.45
3601.00,97.43
3600.00,97.42
3599.00,97.41
3598.00,97.42
3597.00,97.44
3596.00,97.45
3595.00,97.45
3594.00,97.44
3593.00,97.41
3592.00,97.40
3591.00,97.41
3590.00,97.42
3589.00,97.44
3588.00,97.45
3587.00,97.46
3586.00,97.47
3585.00,97.48
3584.00,97.46
3583.00,97.45
3582.00,97.44
3581.00,97.44
3580.00,97.46
3579.00,97.48
3578.00,97.50
3577.00,97.51
3576.00,97.51
3575.00,97.51
3574.00,97.51
3573.00,97.50
3572.00,97.49
3571.00,97.48
3570.00,97.48
3569.00,97.48
3568.00,97.50
3567.00,97.49
3566.00,97.48
3565.00,97.45
3564.00,97.41
3563.00,97.38
3562.00,97.37
3561.00,97.37
3560.00,97.39
3559.00,97.41
3558.00,97.43
3557.00,97.44
3556.00,97.43
3555.00,97.43
3554.00,97.43
3553.00,97.44
3552.00,97.45
3551.00,97.44
3550.00,97.42
3549.00,97.39
3548.00,97.36
3547.00,97.35
3546.00,97.36
3545.00,97.37
3544.00,97.36
3543.00,97.35
3542.00,97.34
3541.00,97.34
3540.00,97.35
3539.00,97.37
3538.00,97.39
3537.00,97.40
3536.00,97.40
3535.00,97.40
3534.00,97.41
3533.00,97.43
3532.00,97.44
3531.00,97.44
3530.00,97.43
3529.00,97.42
3528.00,97.41
3527.00,97.41
3526.00,97.40
3525.00,97.38
3524.00,97.36
3523.00,97.35
3522.00,97.35
3521.00,97.36
3520.00,97.37
3519.00,97.37
3518.00,97.38
3517.00,97.40
3516.00,97.41
3515.00,97.42
3514.00,97.42
3513.00,97.41
3512.00,97.40
3511.00,97.38
3510.00,97.36
3509.00,97.34
3508.00,97.33
3507.00,97.32
3506.00,97.32
3505.00,97.32
3504.00,97.34
3503.00,97.35
3502.00,97.37
3501.00,97.39
3500.00,97.39
3499.00,97.38
3498.00,97.36
3497.00,97.33
3496.00,97.32
3495.00,97.32
3494.00,97.33
3493.00,97.34
3492.00,97.33
3491.00,97.33
3490.00,97.33
3489.00,97.34
3488.00,97.36
3487.00,97.37
3486.00,97.37
3485.00,97.38
3484.00,97.38
3483.00,97.38
3482.00,97.38
3481.00,97.36
3480.00,97.35
3479.00,97.35
3478.00,97.37
3477.00,97.39
3476.00,97.42
3475.00,97.43
3474.00,97.43
3473.00,97.42
3472.00,97.41
3471.00,97.39
3470.00,97.37
3469.00,97.35
3468.00,97.34
3467.00,97.33
3466.00,97.33
3465.00,97.35
3464.00,97.37
3463.00,97.39
3462.00,97.40
3461.00,97.41
3460.00,97.40
3459.00,97.39
3458.00,97.37
3457.00,97.35
3456.00,97.34
3455.00,97.34
3454.00,97.35
3453.00,97.36
3452.00,97.37
3451.00,97.35
3450.00,97.32
3449.00,97.29
3448.00,97.28
3447.00,97.28
3446.00,97.29
3445.00,97.31
3444.00,97.32
3443.00,97.32
3442.00,97.30
3441.00,97.29
3440.00,97.28
3439.00,97.29
3438.00,97.31
3437.00,97.34
3436.00,97.37
3435.00,97.38
3434.00,97.38
3433.00,97.37
3432.00,97.36
3431.00,97.37
3430.00,97.38
3429.00,97.38
3428.00,97.37
3427.00,97.36
3426.00,97.35
3425.00,97.35
3424.00,97.35
3423.00,97.35
3422.00,97.34
3421.00,97.34
3420.00,97.34
3419.00,97.34
3418.00,97.33
3417.00,97.31
3416.00,97.29
3415.00,97.28
3414.00,97.29
3413.00,97.30
3412.00,97.31
3411.00,97.31
3410.00,97.29
3409.00,97.29
3408.00,97.29
3407.00,97.31
3406.00,97.31
3405.00,97.31
3404.00,97.29
3403.00,97.28
3402.00,97.29
3401.00,97.30
3400.00,97.32
3399.00,97.33
3398.00,97.34
3397.00,97.34
3396.00,97.34
3395.00,97.32
3394.00,97.31
3393.00,97.30
3392.00,97.31
3391.00,97.33
3390.00,97.35
3389.00,97.35
3388.00,97.35
3387.00,97.35
3386.00,97.34
3385.00,97.34
3384.00,97.34
3383.00,97.33
3382.00,97.32
3381.00,97.33
3380.00,97.33
3379.00,97.33
3378.00,97.32
3377.00,97.30
3376.00,97.28
3375.00,97.27
3374.00,97.27
3373.00,97.29
3372.00,97.30
3371.00,97.30
3370.00,97.29
3369.00,97.26
3368.00,97.25
3367.00,97.24
3366.00,97.26
3365.00,97.28
3364.00,97.30
3363.00,97.32
3362.00,97.32
3361.00,97.32
3360.00,97.30
3359.00,97.27
3358.00,97.25
3357.00,97.23
3356.00,97.22
3355.00,97.22
3354.00,97.22
3353.00,97.23
3352.00,97.23
3351.00,97.23
3350.00,97.24
3349.00,97.24
3348.00,97.26
3347.00,97.26
3346.00,97.27
3345.00,97.27
3344.00,97.27
3343.00,97.27
3342.00,97.27
3341.00,97.25
3340.00,97.23
3339.00,97.22
3338.00,97.22
3337.00,97.23
3336.00,97.23
3335.00,97.23
3334.00,97.23
3333.00,97.23
3332.00,97.25
3331.00,97.27
3330.00,97.28
3329.00,97.28
3328.00,97.26
3327.00,97.23
3326.00,97.21
3325.00,97.20
3324.00,97.22
3323.00,97.25
3322.00,97.26
3321.00,97.25
3320.00,97.23
3319.00,97.21
3318.00,97.22
3317.00,97.22
3316.00,97.22
3315.00,97.22
3314.00,97.22
3313.00,97.23
3312.00,97.24
3311.00,97.24
3310.00,97.24
3309.00,97.23
3308.00,97.22
3307.00,97.23
3306.00,97.24
3305.00,97.25
3304.00,97.25
3303.00,97.23
3302.00,97.22
3301.00,97.22
3300.00,97.22
3299.00,97.24
3298.00,97.25
3297.00,97.25
3296.00,97.25
3295.00,97.23
3294.00,97.21
3293.00,97.19
3292.00,97.18
3291.00,97.20
3290.00,97.22
3289.00,97.24
3288.00,97.25
3287.00,97.25
3286.00,97.24
3285.00,97.21
3284.00,97.20
3283.00,97.19
3282.00,97.20
3281.00,97.22
3280.00,97.23
3279.00,97.25
3278.00,97.27
3277.00,97.28
3276.00,97.30
3275.00,97.29
3274.00,97.28
3273.00,97.26
3272.00,97.24
3271.00,97.23
3270.00,97.21
3269.00,97.19
3268.00,97.18
3267.00,97.17
3266.00,97.17
3265.00,97.17
3264.00,97.18
3263.00,97.19
3262.00,97.19
3261.00,97.19
3260.00,97.19
3259.00,97.19
3258.00,97.19
3257.00,97.19
3256.00,97.19
3255.00,97.19
3254.00,97.20
3253.00,97.21
3252.00,97.22
3251.00,97.22
3250.00,97.21
3249.00,97.20
3248.00,97.19
3247.00,97.18
3246.00,97.17
3245.00,97.17
3244.00,97.17
3243.00,97.19
3242.00,97.21
3241.00,97.23
3240.00,97.23
3239.00,97.22
3238.00,97.19
3237.00,97.17
3236.00,97.16
3235.00,97.16
3234.00,97.18
3233.00,97.20
3232.00,97.22
3231.00,97.23
3230.00,97.21
3229.00,97.19
3228.00,97.18
3227.00,97.18
3226.00,97.18
3225.00,97.18
3224.00,97.17
3223.00,97.15
3222.00,97.14
3221.00,97.13
3220.00,97.14
3219.00,97.15
3218.00,97.15
3217.00,97.16
3216.00,97.16
3215.00,97.18
3214.00,97.19
3213.00,97.19
3212.00,97.19
3211.00,97.18
3210.00,97.19
3209.00,97.20
3208.00,97.20
3207.00,97.20
3206.00,97.18
3205.00,97.16
3204.00,97.16
3203.00,97.15
3202.00,97.16
3201.00,97.18
3200.00,97.21
3199.00,97.23
3198.00,97.24
3197.00,97.23
3196.00,97.21
3195.00,97.20
3194.00,97.19
3193.00,97.19
3192.00,97.18
3191.00,97.17
3190.00,97.17
3189.00,97.16
3188.00,97.17
3187.00,97.16
3186.00,97.16
3185.00,97.15
3184.00,97.14
3183.00,97.14
3182.00,97.14
3181.00,97.15
3180.00,97.15
3179.00,97.17
3178.00,97.19
3177.00,97.20
3176.00,97.20
3175.00,97.20
3174.00,97.20
3173.00,97.20
3172.00,97.21
3171.00,97.23
3170.00,97.24
3169.00,97.24
3168.00,97.23
3167.00,97.20
3166.00,97.18
3165.00,97.16
3164.00,97.15
3163.00,97.14
3162.00,97.15
3161.00,97.16
3160.00,97.18
3159.00,97.20
3158.00,97.21
3157.00,97.21
3156.00,97.21
3155.00,97.20
3154.00,97.19
3153.00,97.20
3152.00,97.21
3151.00,97.22
3150.00,97.23
3149.00,97.22
3148.00,97.21
3147.00,97.21
3146.00,97.22
3145.00,97.23
3144.00,97.23
3143.00,97.22
3142.00,97.20
3141.00,97.17
3140.00,97.16
3139.00,97.15
3138.00,97.17
3137.00,97.19
3136.00,97.21
3135.00,97.21
3134.00,97.21
3133.00,97.20
3132.00,97.18
3131.00,97.17
3130.00,97.17
3129.00,97.19
3128.00,97.22
3127.00,97.25
3126.00,97.25
3125.00,97.24
3124.00,97.22
3123.00,97.21
3122.00,97.21
3121.00,97.22
3120.00,97.22
3119.00,97.22
3118.00,97.22
3117.00,97.22
3116.00,97.23
3115.00,97.23
3114.00,97.22
3113.00,97.22
3112.00,97.22
3111.00,97.23
3110.00,97.24
3109.00,97.25
3108.00,97.25
3107.00,97.25
3106.00,97.24
3105.00,97.23
3104.00,97.22
3103.00,97.21
3102.00,97.20
3101.00,97.18
3100.00,97.18
3099.00,97.19
3098.00,97.20
3097.00,97.22
3096.00,97.23
3095.00,97.23
3094.00,97.21
3093.00,97.19
3092.00,97.18
3091.00,97.17
3090.00,97.17
3089.00,97.17
3088.00,97.17
3087.00,97.17
3086.00,97.17
3085.00,97.18
3084.00,97.19
3083.00,97.19
3082.00,97.17
3081.00,97.15
3080.00,97.14
3079.00,97.14
3078.00,97.14
3077.00,97.14
3076.00,97.15
3075.00,97.17
3074.00,97.19
3073.00,97.21
3072.00,97.21
3071.00,97.20
3070.00,97.18
3069.00,97.17
3068.00,97.16
3067.00,97.16
3066.00,97.16
3065.00,97.17
3064.00,97.17
3063.00,97.18
3062.00,97.18
3061.00,97.18
3060.00,97.19
3059.00,97.19
3058.00,97.20
3057.00,97.20
3056.00,97.20
3055.00,97.19
3054.00,97.18
3053.00,97.18
3052.00,97.19
3051.00,97.19
3050.00,97.19
3049.00,97.18
3048.00,97.17
3047.00,97.17
3046.00,97.18
3045.00,97.19
3044.00,97.19
3043.00,97.20
3042.00,97.20
3041.00,97.19
3040.00,97.17
3039.00,97.15
3038.00,97.15
3037.00,97.15
3036.00,97.17
3035.00,97.17
3034.00,97.18
3033.00,97.17
3032.00,97.16
3031.00,97.15
3030.00,97.15
3029.00,97.16
3028.00,97.16
3027.00,97.16
3026.00,97.16
3025.00,97.16
3024.00,97.15
3023.00,97.14
3022.00,97.13
3021.00,97.13
3020.00,97.13
3019.00,97.14
3018.00,97.16
3017.00,97.17
3016.00,97.18
3015.00,97.18
3014.00,97.17
3013.00,97.16
3012.00,97.15
3011.00,97.15
3010.00,97.15
3009.00,97.14
3008.00,97.13
3007.00,97.12
3006.00,97.11
3005.00,97.11
3004.00,97.11
3003.00,97.11
3002.00,97.09
3001.00,97.07
3000.00,97.05
2999.00,97.03
2998.00,97.01
2997.00,96.99
2996.00,96.97
2995.00,96.96
2994.00,96.95
2993.00,96.95
2992.00,96.94
2991.00,96.93
2990.00,96.92
2989.00,96.92
2988.00,96.92
2987.00,96.92
2986.00,96.92
2985.00,96.90
2984.00,96.89
2983.00,96.88
2982.00,96.87
2981.00,96.85
2980.00,96.83
2979.00,96.81
2978.00,96.80
2977.00,96.81
2976.00,96.81
2975.00,96.80
2974.00,96.79
2973.00,96.78
2972.00,96.78
2971.00,96.79
2970.00,96.78
2969.00,96.76
2968.00,96.74
2967.00,96.74
2966.00,96.74
2965.00,96.74
2964.00,96.74
2963.00,96.73
2962.00,96.73
2961.00,96.72
2960.00,96.71
2959.00,96.70
2958.00,96.69
2957.00,96.67
2956.00,96.65
2955.00,96.62
2954.00,96.61
2953.00,96.59
2952.00,96.57
2951.00,96.55
2950.00,96.52
2949.00,96.49
2948.00,96.46
2947.00,96.43
2946.00,96.40
2945.00,96.37
2944.00,96.33
2943.00,96.30
2942.00,96.27
2941.00,96.25
2940.00,96.23
2939.00,96.20
2938.00,96.18
2937.00,96.15
2936.00,96.13
2935.00,96.11
2934.00,96.09
2933.00,96.06
2932.00,96.04
2931.00,96.02
2930.00,96.00
2929.00,95.98
2928.00,95.95
2927.00,95.92
2926.00,95.88
2925.00,95.85
2924.00,95.83
2923.00,95.81
2922.00,95.79
2921.00,95.77
2920.00,95.76
2919.00,95.75
2918.00,95.77
2917.00,95.81
2916.00,95.87
2915.00,95.93
2914.00,96.01
2913.00,96.08
2912.00,96.15
2911.00,96.21
2910.00,96.27
2909.00,96.32
2908.00,96.36
2907.00,96.38
2906.00,96.41
2905.00,96.44
2904.00,96.47
2903.00,96.50
2902.00,96.53
2901.00,96.55
2900.00,96.58
2899.00,96.60
2898.00,96.62
2897.00,96.63
2896.00,96.64
2895.00,96.65
2894.00,96.67
2893.00,96.69
2892.00,96.70
2891.00,96.71
2890.00,96.72
2889.00,96.73
2888.00,96.76
2887.00,96.78
2886.00,96.80
2885.00,96.80
2884.00,96.80
2883.00,96.79
2882.00,96.79
2881.00,96.79
2880.00,96.79
2879.00,96.81
2878.00,96.82
2877.00,96.83
2876.00,96.83
2875.00,96.81
2874.00,96.79
2873.00,96.77
2872.00,96.76
2871.00,96.76
2870.00,96.75
2869.00,96.74
2868.00,96.74
2867.00,96.75
2866.00,96.76
2865.00,96.77
2864.00,96.76
2863.00,96.75
2862.00,96.74
2861.00,96.74
2860.00,96.74
2859.00,96.73
2858.00,96.71
2857.00,96.69
2856.00,96.66
2855.00,96.63
2854.00,96.60
2853.00,96.58
2852.00,96.56
2851.00,96.56
2850.00,96.58
2849.00,96.61
2848.00,96.65
2847.00,96.70
2846.00,96.76
2845.00,96.82
2844.00,96.87
2843.00,96.89
2842.00,96.91
2841.00,96.92
2840.00,96.94
2839.00,96.96
2838.00,96.98
2837.00,96.99
2836.00,96.99
2835.00,97.00
2834.00,97.00
2833.00,97.00
2832.00,97.01
2831.00,97.02
2830.00,97.04
2829.00,97.06
2828.00,97.07
2827.00,97.08
2826.00,97.08
2825.00,97.10
2824.00,97.11
2823.00,97.11
2822.00,97.10
2821.00,97.09
2820.00,97.08
2819.00,97.08
2818.00,97.08
2817.00,97.10
2816.00,97.12
2815.00,97.13
2814.00,97.12
2813.00,97.11
2812.00,97.10
2811.00,97.09
2810.00,97.10
2809.00,97.10
2808.00,97.10
2807.00,97.10
2806.00,97.11
2805.00,97.13
2804.00,97.13
2803.00,97.14
2802.00,97.14
2801.00,97.14
2800.00,97.13
2799.00,97.13
2798.00,97.13
2797.00,97.12
2796.00,97.12
2795.00,97.13
2794.00,97.13
2793.00,97.13
2792.00,97.12
2791.00,97.11
2790.00,97.10
2789.00,97.10
2788.00,97.11
2787.00,97.12
2786.00,97.13
2785.00,97.13
2784.00,97.13
2783.00,97.12
2782.00,97.12
2781.00,97.12
2780.00,97.14
2779.00,97.15
2778.00,97.16
2777.00,97.18
2776.00,97.18
2775.00,97.18
2774.00,97.17
2773.00,97.18
2772.00,97.18
2771.00,97.18
2770.00,97.18
2769.00,97.19
2768.00,97.20
2767.00,97.21
2766.00,97.22
2765.00,97.22
2764.00,97.21
2763.00,97.19
2762.00,97.18
2761.00,97.17
2760.00,97.17
2759.00,97.18
2758.00,97.19
2757.00,97.20
2756.00,97.21
2755.00,97.22
2754.00,97.21
2753.00,97.20
2752.00,97.19
2751.00,97.17
2750.00,97.15
2749.00,97.14
2748.00,97.14
2747.00,97.14
2746.00,97.16
2745.00,97.16
2744.00,97.16
2743.00,97.15
2742.00,97.15
2741.00,97.15
2740.00,97.15
2739.00,97.15
2738.00,97.14
2737.00,97.13
2736.00,97.13
2735.00,97.14
2734.00,97.14
2733.00,97.14
2732.00,97.15
2731.00,97.15
2730.00,97.14
2729.00,97.13
2728.00,97.12
2727.00,97.12
2726.00,97.12
2725.00,97.13
2724.00,97.13
2723.00,97.14
2722.00,97.15
2721.00,97.16
2720.00,97.16
2719.00,97.15
2718.00,97.14
2717.00,97.14
2716.00,97.15
2715.00,97.17
2714.00,97.17
2713.00,97.16
2712.00,97.14
2711.00,97.13
2710.00,97.13
2709.00,97.14
2708.00,97.16
2707.00,97.16
2706.00,97.16
2705.00,97.16
2704.00,97.17
2703.00,97.18
2702.00,97.19
2701.00,97.19
2700.00,97.18
2699.00,97.16
2698.00,97.15
2697.00,97.14
2696.00,97.14
2695.00,97.14
2694.00,97.14
2693.00,97.15
2692.00,97.15
2691.00,97.15
2690.00,97.15
2689.00,97.15
2688.00,97.15
2687.00,97.15
2686.00,97.15
2685.00,97.15
2684.00,97.15
2683.00,97.14
2682.00,97.13
2681.00,97.13
2680.00,97.14
2679.00,97.15
2678.00,97.16
2677.00,97.16
2676.00,97.16
2675.00,97.15
2674.00,97.14
2673.00,97.14
2672.00,97.16
2671.00,97.17
2670.00,97.18
2669.00,97.18
2668.00,97.18
2667.00,97.18
2666.00,97.16
2665.00,97.15
2664.00,97.14
2663.00,97.13
2662.00,97.12
2661.00,97.10
2660.00,97.08
2659.00,97.07
2658.00,97.06
2657.00,97.06
2656.00,97.05
2655.00,97.06
2654.00,97.07
2653.00,97.08
2652.00,97.07
2651.00,97.05
2650.00,97.03
2649.00,97.01
2648.00,97.00
2647.00,96.99
2646.00,96.98
2645.00,96.98
2644.00,96.98
2643.00,96.98
2642.00,96.97
2641.00,96.97
2640.00,96.95
2639.00,96.94
2638.00,96.93
2637.00,96.92
2636.00,96.92
2635.00,96.92
2634.00,96.92
2633.00,96.91
2632.00,96.91
2631.00,96.91
2630.00,96.92
2629.00,96.94
2628.00,96.94
2627.00,96.93
2626.00,96.90
2625.00,96.87
2624.00,96.85
2623.00,96.85
2622.00,96.86
2621.00,96.86
2620.00,96.85
2619.00,96.83
2618.00,96.82
2617.00,96.82
2616.00,96.83
2615.00,96.84
2614.00,96.85
2613.00,96.86
2612.00,96.86
2611.00,96.87
2610.00,96.86
2609.00,96.86
2608.00,96.86
2607.00,96.85
2606.00,96.84
2605.00,96.84
2604.00,96.83
2603.00,96.83
2602.00,96.83
2601.00,96.81
2600.00,96.78
2599.00,96.76
2598.00,96.75
2597.00,96.74
2596.00,96.73
2595.00,96.72
2594.00,96.71
2593.00,96.70
2592.00,96.69
2591.00,96.68
2590.00,96.67
2589.00,96.67
2588.00,96.68
2587.00,96.71
2586.00,96.73
2585.00,96.74
2584.00,96.74
2583.00,96.73
2582.00,96.72
2581.00,96.70
2580.00,96.69
2579.00,96.68
2578.00,96.69
2577.00,96.69
2576.00,96.68
2575.00,96.66
2574.00,96.65
2573.00,96.65
2572.00,96.66
2571.00,96.67
2570.00,96.66
2569.00,96.64
2568.00,96.63
2567.00,96.63
2566.00,96.63
2565.00,96.64
2564.00,96.65
2563.00,96.66
2562.00,96.66
2561.00,96.65
2560.00,96.63
2559.00,96.61
2558.00,96.61
2557.00,96.62
2556.00,96.62
2555.00,96.61
2554.00,96.59
2553.00,96.58
2552.00,96.59
2551.00,96.60
2550.00,96.61
2549.00,96.61
2548.00,96.62
2547.00,96.62
2546.00,96.62
2545.00,96.62
2544.00,96.61
2543.00,96.61
2542.00,96.62
2541.00,96.62
2540.00,96.62
2539.00,96.60
2538.00,96.58
2537.00,96.57
2536.00,96.57
2535.00,96.59
2534.00,96.61
2533.00,96.61
2532.00,96.61
2531.00,96.60
2530.00,96.60
2529.00,96.61
2528.00,96.62
2527.00,96.62
2526.00,96.60
2525.00,96.59
2524.00,96.58
2523.00,96.58
2522.00,96.58
2521.00,96.58
2520.00,96.58
2519.00,96.58
2518.00,96.57
2517.00,96.57
2516.00,96.58
2515.00,96.60
2514.00,96.62
2513.00,96.62
2512.00,96.60
2511.00,96.57
2510.00,96.53
2509.00,96.51
2508.00,96.51
2507.00,96.53
2506.00,96.56
2505.00,96.59
2504.00,96.60
2503.00,96.59
2502.00,96.59
2501.00,96.58
2500.00,96.58
2499.00,96.58
2498.00,96.58
2497.00,96.57
2496.00,96.57
2495.00,96.56
2494.00,96.55
2493.00,96.56
2492.00,96.56
2491.00,96.56
2490.00,96.55
2489.00,96.54
2488.00,96.53
2487.00,96.53
2486.00,96.54
2485.00,96.55
2484.00,96.54
2483.00,96.54
2482.00,96.55
2481.00,96.57
2480.00,96.59
2479.00,96.60
2478.00,96.61
2477.00,96.61
2476.00,96.60
2475.00,96.58
2474.00,96.56
2473.00,96.55
2472.00,96.56
2471.00,96.57
2470.00,96.58
2469.00,96.59
2468.00,96.60
2467.00,96.60
2466.00,96.59
2465.00,96.58
2464.00,96.56
2463.00,96.56
2462.00,96.57
2461.00,96.59
2460.00,96.61
2459.00,96.62
2458.00,96.63
2457.00,96.61
2456.00,96.58
2455.00,96.55
2454.00,96.52
2453.00,96.52
2452.00,96.53
2451.00,96.55
2450.00,96.58
2449.00,96.59
2448.00,96.60
2447.00,96.61
2446.00,96.60
2445.00,96.61
2444.00,96.62
2443.00,96.64
2442.00,96.64
2441.00,96.63
2440.00,96.61
2439.00,96.60
2438.00,96.60
2437.00,96.59
2436.00,96.57
2435.00,96.55
2434.00,96.53
2433.00,96.52
2432.00,96.51
2431.00,96.52
2430.00,96.54
2429.00,96.56
2428.00,96.58
2427.00,96.59
2426.00,96.60
2425.00,96.60
2424.00,96.61
2423.00,96.61
2422.00,96.61
2421.00,96.60
2420.00,96.59
2419.00,96.57
2418.00,96.58
2417.00,96.60
2416.00,96.63
2415.00,96.65
2414.00,96.64
2413.00,96.63
2412.00,96.64
2411.00,96.65
2410.00,96.66
2409.00,96.65
2408.00,96.63
2407.00,96.62
2406.00,96.61
2405.00,96.61
2404.00,96.63
2403.00,96.65
2402.00,96.67
2401.00,96.68
2400.00,96.69
2399.00,96.69
2398.00,96.70
2397.00,96.71
2396.00,96.71
2395.00,96.72
2394.00,96.72
2393.00,96.72
2392.00,96.71
2391.00,96.70
2390.00,96.69
2389.00,96.69
2388.00,96.70
2387.00,96.70
2386.00,96.70
2385.00,96.70
2384.00,96.70
2383.00,96.70
2382.00,96.69
2381.00,96.70
2380.00,96.72
2379.00,96.74
2378.00,96.78
2377.00,96.81
2376.00,96.85
2375.00,96.88
2374.00,96.92
2373.00,96.95
2372.00,96.99
2371.00,97.00
2370.00,96.96
2369.00,96.87
2368.00,96.81
2367.00,96.81
2366.00,96.86
2365.00,96.89
2364.00,96.91
2363.00,96.91
2362.00,96.90
2361.00,96.85
2360.00,96.77
2359.00,96.70
2358.00,96.69
2357.00,96.72
2356.00,96.79
2355.00,96.85
2354.00,96.89
2353.00,96.91
2352.00,96.92
2351.00,96.94
2350.00,96.94
2349.00,96.92
2348.00,96.89
2347.00,96.87
2346.00,96.87
2345.00,96.87
2344.00,96.87
2343.00,96.87
2342.00,96.87
2341.00,96.86
2340.00,96.87
2339.00,96.88
2338.00,96.88
2337.00,96.86
2336.00,96.84
2335.00,96.85
2334.00,96.88
2333.00,96.89
2332.00,96.86
2331.00,96.81
2330.00,96.79
2329.00,96.80
2328.00,96.80
2327.00,96.79
2326.00,96.76
2325.00,96.71
2324.00,96.67
2323.00,96.64
2322.00,96.62
2321.00,96.61
2320.00,96.61
2319.00,96.62
2318.00,96.65
2317.00,96.66
2316.00,96.67
2315.00,96.66
2314.00,96.66
2313.00,96.66
2312.00,96.65
2311.00,96.64
2310.00,96.62
2309.00,96.60
2308.00,96.58
2307.00,96.57
2306.00,96.56
2305.00,96.55
2304.00,96.55
2303.00,96.55
2302.00,96.54
2301.00,96.53
2300.00,96.50
2299.00,96.47
2298.00,96.45
2297.00,96.44
2296.00,96.42
2295.00,96.39
2294.00,96.35
2293.00,96.31
2292.00,96.28
2291.00,96.27
2290.00,96.27
2289.00,96.28
2288.00,96.27
2287.00,96.25
2286.00,96.22
2285.00,96.17
2284.00,96.14
2283.00,96.12
2282.00,96.13
2281.00,96.15
2280.00,96.16
2279.00,96.15
2278.00,96.13
2277.00,96.11
2276.00,96.10
2275.00,96.10
2274.00,96.11
2273.00,96.12
2272.00,96.13
2271.00,96.12
2270.00,96.10
2269.00,96.05
2268.00,95.99
2267.00,95.96
2266.00,95.96
2265.00,95.98
2264.00,95.99
2263.00,95.96
2262.00,95.90
2261.00,95.84
2260.00,95.78
2259.00,95.71
2258.00,95.62
2257.00,95.51
2256.00,95.40
2255.00,95.30
2254.00,95.19
2253.00,95.07
2252.00,94.93
2251.00,94.75
2250.00,94.56
2249.00,94.38
2248.00,94.21
2247.00,94.05
2246.00,93.90
2245.00,93.75
2244.00,93.62
2243.00,93.54
2242.00,93.52
2241.00,93.58
2240.00,93.70
2239.00,93.87
2238.00,94.08
2237.00,94.30
2236.00,94.53
2235.00,94.74
2234.00,94.91
2233.00,95.04
2232.00,95.14
2231.00,95.24
2230.00,95.32
2229.00,95.37
2228.00,95.40
2227.00,95.41
2226.00,95.41
2225.00,95.39
2224.00,95.38
2223.00,95.38
2222.00,95.40
2221.00,95.42
2220.00,95.44
2219.00,95.45
2218.00,95.44
2217.00,95.42
2216.00,95.38
2215.00,95.33
2214.00,95.31
2213.00,95.31
2212.00,95.35
2211.00,95.44
2210.00,95.53
2209.00,95.58
2208.00,95.56
2207.00,95.48
2206.00,95.39
2205.00,95.34
2204.00,95.31
2203.00,95.30
2202.00,95.28
2201.00,95.27
2200.00,95.25
2199.00,95.24
2198.00,95.23
2197.00,95.22
2196.00,95.22
2195.00,95.24
2194.00,95.27
2193.00,95.28
2192.00,95.26
2191.00,95.20
2190.00,95.13
2189.00,95.09
2188.00,95.10
2187.00,95.14
2186.00,95.17
2185.00,95.15
2184.00,95.10
2183.00,95.06
2182.00,95.05
2181.00,95.08
2180.00,95.12
2179.00,95.16
2178.00,95.17
2177.00,95.17
2176.00,95.17
2175.00,95.17
2174.00,95.18
2173.00,95.16
2172.00,95.11
2171.00,95.05
2170.00,94.99
2169.00,94.95
2168.00,94.92
2167.00,94.89
2166.00,94.84
2165.00,94.76
2164.00,94.68
2163.00,94.63
2162.00,94.60
2161.00,94.62
2160.00,94.69
2159.00,94.79
2158.00,94.92
2157.00,95.07
2156.00,95.20
2155.00,95.31
2154.00,95.35
2153.00,95.32
2152.00,95.27
2151.00,95.22
2150.00,95.21
2149.00,95.23
2148.00,95.28
2147.00,95.34
2146.00,95.39
2145.00,95.42
2144.00,95.46
2143.00,95.51
2142.00,95.59
2141.00,95.67
2140.00,95.74
2139.00,95.76
2138.00,95.74
2137.00,95.71
2136.00,95.71
2135.00,95.75
2134.00,95.82
2133.00,95.87
2132.00,95.91
2131.00,95.92
2130.00,95.93
2129.00,95.91
2128.00,95.88
2127.00,95.86
2126.00,95.87
2125.00,95.89
2124.00,95.92
2123.00,95.94
2122.00,95.95
2121.00,95.95
2120.00,95.93
2119.00,95.91
2118.00,95.88
2117.00,95.86
2116.00,95.85
2115.00,95.84
2114.00,95.83
2113.00,95.83
2112.00,95.82
2111.00,95.81
2110.00,95.80
2109.00,95.79
2108.00,95.79
2107.00,95.79
2106.00,95.79
2105.00,95.78
2104.00,95.75
2103.00,95.70
2102.00,95.68
2101.00,95.68
2100.00,95.70
2099.00,95.73
2098.00,95.76
2097.00,95.80
2096.00,95.83
2095.00,95.86
2094.00,95.88
2093.00,95.87
2092.00,95.86
2091.00,95.85
2090.00,95.86
2089.00,95.88
2088.00,95.90
2087.00,95.90
2086.00,95.87
2085.00,95.82
2084.00,95.77
2083.00,95.74
2082.00,95.72
2081.00,95.72
2080.00,95.70
2079.00,95.68
2078.00,95.67
2077.00,95.69
2076.00,95.71
2075.00,95.70
2074.00,95.67
2073.00,95.65
2072.00,95.66
2071.00,95.67
2070.00,95.66
2069.00,95.63
2068.00,95.62
2067.00,95.62
2066.00,95.63
2065.00,95.65
2064.00,95.67
2063.00,95.68
2062.00,95.69
2061.00,95.69
2060.00,95.70
2059.00,95.69
2058.00,95.68
2057.00,95.67
2056.00,95.64
2055.00,95.60
2054.00,95.55
2053.00,95.48
2052.00,95.41
2051.00,95.32
2050.00,95.27
2049.00,95.26
2048.00,95.27
2047.00,95.29
2046.00,95.29
2045.00,95.28
2044.00,95.28
2043.00,95.28
2042.00,95.26
2041.00,95.24
2040.00,95.22
2039.00,95.20
2038.00,95.16
2037.00,95.10
2036.00,95.04
2035.00,94.98
2034.00,94.95
2033.00,94.94
2032.00,94.95
2031.00,94.95
2030.00,94.94
2029.00,94.94
2028.00,94.96
2027.00,95.01
2026.00,95.07
2025.00,95.10
2024.00,95.09
2023.00,95.07
2022.00,95.03
2021.00,95.00
2020.00,94.99
2019.00,94.98
2018.00,94.98
2017.00,94.98
2016.00,94.99
2015.00,95.01
2014.00,95.03
2013.00,95.03
2012.00,95.02
2011.00,95.01
2010.00,95.02
2009.00,95.07
2008.00,95.12
2007.00,95.15
2006.00,95.17
2005.00,95.18
2004.00,95.20
2003.00,95.23
2002.00,95.26
2001.00,95.28
2000.00,95.30
1999.00,95.33
1998.00,95.36
1997.00,95.39
1996.00,95.40
1995.00,95.41
1994.00,95.41
1993.00,95.41
1992.00,95.37
1991.00,95.31
1990.00,95.23
1989.00,95.17
1988.00,95.13
1987.00,95.12
1986.00,95.11
1985.00,95.09
1984.00,95.04
1983.00,94.99
1982.00,94.97
1981.00,95.00
1980.00,95.05
1979.00,95.07
1978.00,95.08
1977.00,95.08
1976.00,95.10
1975.00,95.12
1974.00,95.12
1973.00,95.11
1972.00,95.12
1971.00,95.15
1970.00,95.21
1969.00,95.26
1968.00,95.30
1967.00,95.32
1966.00,95.32
1965.00,95.31
1964.00,95.28
1963.00,95.25
1962.00,95.26
1961.00,95.30
1960.00,95.37
1959.00,95.42
1958.00,95.44
1957.00,95.46
1956.00,95.49
1955.00,95.53
1954.00,95.57
1953.00,95.63
1952.00,95.68
1951.00,95.71
1950.00,95.71
1949.00,95.69
1948.00,95.67
1947.00,95.64
1946.00,95.63
1945.00,95.64
1944.00,95.70
1943.00,95.75
1942.00,95.75
1941.00,95.72
1940.00,95.70
1939.00,95.71
1938.00,95.74
1937.00,95.76
1936.00,95.75
1935.00,95.73
1934.00,95.75
1933.00,95.79
1932.00,95.85
1931.00,95.89
1930.00,95.90
1929.00,95.89
1928.00,95.88
1927.00,95.89
1926.00,95.90
1925.00,95.92
1924.00,95.92
1923.00,95.92
1922.00,95.92
1921.00,95.95
1920.00,95.98
1919.00,96.00
1918.00,95.99
1917.00,95.96
1916.00,95.95
1915.00,95.94
1914.00,95.93
1913.00,95.93
1912.00,95.94
1911.00,95.96
1910.00,95.99
1909.00,96.02
1908.00,96.05
1907.00,96.06
1906.00,96.07
1905.00,96.08
1904.00,96.08
1903.00,96.07
1902.00,96.05
1901.00,96.05
1900.00,96.07
1899.00,96.10
1898.00,96.11
1897.00,96.11
1896.00,96.11
1895.00,96.10
1894.00,96.08
1893.00,96.04
1892.00,96.00
1891.00,95.99
1890.00,96.00
1889.00,96.01
1888.00,96.03
1887.00,96.04
1886.00,96.07
1885.00,96.12
1884.00,96.16
1883.00,96.18
1882.00,96.17
1881.00,96.15
1880.00,96.14
1879.00,96.14
1878.00,96.13
1877.00,96.11
1876.00,96.10
1875.00,96.09
1874.00,96.08
1873.00,96.09
1872.00,96.10
1871.00,96.13
1870.00,96.16
1869.00,96.19
1868.00,96.21
1867.00,96.22
1866.00,96.22
1865.00,96.21
1864.00,96.19
1863.00,96.19
1862.00,96.20
1861.00,96.20
1860.00,96.21
1859.00,96.22
1858.00,96.23
1857.00,96.23
1856.00,96.22
1855.00,96.22
1854.00,96.21
1853.00,96.21
1852.00,96.22
1851.00,96.25
1850.00,96.27
1849.00,96.29
1848.00,96.28
1847.00,96.26
1846.00,96.24
1845.00,96.22
1844.00,96.21
1843.00,96.22
1842.00,96.24
1841.00,96.26
1840.00,96.26
1839.00,96.26
1838.00,96.26
1837.00,96.27
1836.00,96.29
1835.00,96.32
1834.00,96.34
1833.00,96.34
1832.00,96.32
1831.00,96.32
1830.00,96.33
1829.00,96.34
1828.00,96.35
1827.00,96.35
1826.00,96.34
1825.00,96.33
1824.00,96.33
1823.00,96.34
1822.00,96.37
1821.00,96.39
1820.00,96.39
1819.00,96.38
1818.00,96.36
1817.00,96.36
1816.00,96.37
1815.00,96.38
1814.00,96.40
1813.00,96.40
1812.00,96.40
1811.00,96.40
1810.00,96.41
1809.00,96.41
1808.00,96.41
1807.00,96.41
1806.00,96.41
1805.00,96.40
1804.00,96.40
1803.00,96.41
1802.00,96.42
1801.00,96.42
1800.00,96.42
1799.00,96.42
1798.00,96.42
1797.00,96.43
1796.00,96.44
1795.00,96.45
1794.00,96.46
1793.00,96.45
1792.00,96.44
1791.00,96.42
1790.00,96.41
1789.00,96.40
1788.00,96.41
1787.00,96.41
1786.00,96.42
1785.00,96.42
1784.00,96.43
1783.00,96.44
1782.00,96.44
1781.00,96.45
1780.00,96.45
1779.00,96.45
1778.00,96.45
1777.00,96.43
1776.00,96.42
1775.00,96.41
1774.00,96.40
1773.00,96.40
1772.00,96.40
1771.00,96.41
1770.00,96.41
1769.00,96.41
1768.00,96.40
1767.00,96.40
1766.00,96.40
1765.00,96.40
1764.00,96.39
1763.00,96.38
1762.00,96.36
1761.00,96.36
1760.00,96.35
1759.00,96.35
1758.00,96.34
1757.00,96.34
1756.00,96.35
1755.00,96.35
1754.00,96.36
1753.00,96.36
1752.00,96.35
1751.00,96.32
1750.00,96.29
1749.00,96.24
1748.00,96.20
1747.00,96.16
1746.00,96.14
1745.00,96.13
1744.00,96.13
1743.00,96.11
1742.00,96.09
1741.00,96.06
1740.00,96.02
1739.00,95.99
1738.00,95.96
1737.00,95.94
1736.00,95.94
1735.00,95.94
1734.00,95.95
1733.00,95.96
1732.00,95.96
1731.00,95.97
1730.00,95.98
1729.00,96.00
1728.00,96.01
1727.00,96.03
1726.00,96.06
1725.00,96.08
1724.00,96.10
1723.00,96.12
1722.00,96.14
1721.00,96.16
1720.00,96.17
1719.00,96.17
1718.00,96.17
1717.00,96.17
1716.00,96.17
1715.00,96.17
1714.00,96.18
1713.00,96.19
1712.00,96.20
1711.00,96.22
1710.00,96.23
1709.00,96.24
1708.00,96.24
1707.00,96.24
1706.00,96.25
1705.00,96.25
1704.00,96.26
1703.00,96.25
1702.00,96.25
1701.00,96.25
1700.00,96.25
1699.00,96.25
1698.00,96.24
1697.00,96.23
1696.00,96.23
1695.00,96.24
1694.00,96.23
1693.00,96.22
1692.00,96.21
1691.00,96.20
1690.00,96.19
1689.00,96.19
1688.00,96.20
1687.00,96.20
1686.00,96.20
1685.00,96.20
1684.00,96.19
1683.00,96.18
1682.00,96.17
1681.00,96.17
1680.00,96.18
1679.00,96.19
1678.00,96.20
1677.00,96.20
1676.00,96.19
1675.00,96.19
1674.00,96.19
1673.00,96.19
1672.00,96.19
1671.00,96.19
1670.00,96.18
1669.00,96.17
1668.00,96.17
1667.00,96.15
1666.00,96.14
1665.00,96.12
1664.00,96.11
1663.00,96.12
1662.00,96.13
1661.00,96.15
1660.00,96.15
1659.00,96.16
1658.00,96.16
1657.00,96.16
1656.00,96.16
1655.00,96.17
1654.00,96.16
1653.00,96.15
1652.00,96.15
1651.00,96.15
1650.00,96.15
1649.00,96.15
1648.00,96.14
1647.00,96.12
1646.00,96.10
1645.00,96.09
1644.00,96.08
1643.00,96.07
1642.00,96.07
1641.00,96.06
1640.00,96.05
1639.00,96.04
1638.00,96.03
1637.00,96.03
1636.00,96.03
1635.00,96.04
1634.00,96.04
1633.00,96.02
1632.00,96.00
1631.00,95.99
1630.00,95.99
1629.00,95.99
1628.00,95.98
1627.00,95.97
1626.00,95.96
1625.00,95.95
1624.00,95.94
1623.00,95.94
1622.00,95.94
1621.00,95.94
1620.00,95.94
1619.00,95.95
1618.00,95.96
1617.00,95.97
1616.00,95.99
1615.00,96.00
1614.00,96.00
1613.00,96.00
1612.00,96.01
1611.00,96.01
1610.00,96.01
1609.00,96.00
1608.00,96.00
1607.00,96.01
1606.00,96.02
1605.00,96.05
1604.00,96.06
1603.00,96.05
1602.00,96.03
1601.00,96.01
1600.00,96.00
1599.00,96.00
1598.00,96.00
1597.00,96.01
1596.00,96.03
1595.00,96.05
1594.00,96.08
1593.00,96.11
1592.00,96.14
1591.00,96.16
1590.00,96.17
1589.00,96.18
1588.00,96.19
1587.00,96.20
1586.00,96.20
1585.00,96.20
1584.00,96.20
1583.00,96.22
1582.00,96.25
1581.00,96.27
1580.00,96.27
1579.00,96.27
1578.00,96.27
1577.00,96.28
1576.00,96.30
1575.00,96.31
1574.00,96.31
1573.00,96.31
1572.00,96.32
1571.00,96.34
1570.00,96.35
1569.00,96.36
1568.00,96.36
1567.00,96.35
1566.00,96.35
1565.00,96.34
1564.00,96.34
1563.00,96.34
1562.00,96.35
1561.00,96.36
1560.00,96.39
1559.00,96.43
1558.00,96.45
1557.00,96.43
1556.00,96.39
1555.00,96.36
1554.00,96.34
1553.00,96.34
1552.00,96.34
1551.00,96.33
1550.00,96.32
1549.00,96.31
1548.00,96.30
1547.00,96.30
1546.00,96.29
1545.00,96.28
1544.00,96.26
1543.00,96.25
1542.00,96.25
1541.00,96.24
1540.00,96.22
1539.00,96.22
1538.00,96.23
1537.00,96.23
1536.00,96.23
1535.00,96.23
1534.00,96.23
1533.00,96.23
1532.00,96.22
1531.00,96.22
1530.00,96.23
1529.00,96.23
1528.00,96.23
1527.00,96.22
1526.00,96.22
1525.00,96.22
1524.00,96.24
1523.00,96.24
1522.00,96.25
1521.00,96.25
1520.00,96.25
1519.00,96.25
1518.00,96.26
1517.00,96.27
1516.00,96.27
1515.00,96.27
1514.00,96.27
1513.00,96.27
1512.00,96.27
1511.00,96.27
1510.00,96.28
1509.00,96.30
1508.00,96.32
1507.00,96.32
1506.00,96.30
1505.00,96.28
1504.00,96.25
1503.00,96.23
1502.00,96.21
1501.00,96.19
1500.00,96.17
1499.00,96.15
1498.00,96.13
1497.00,96.12
1496.00,96.13
1495.00,96.14
1494.00,96.17
1493.00,96.20
1492.00,96.22
1491.00,96.24
1490.00,96.23
1489.00,96.22
1488.00,96.21
1487.00,96.21
1486.00,96.22
1485.00,96.22
1484.00,96.21
1483.00,96.22
1482.00,96.23
1481.00,96.23
1480.00,96.23
1479.00,96.22
1478.00,96.20
1477.00,96.17
1476.00,96.14
1475.00,96.11
1474.00,96.11
1473.00,96.11
1472.00,96.10
1471.00,96.07
1470.00,96.04
1469.00,96.01
1468.00,95.98
1467.00,95.95
1466.00,95.89
1465.00,95.81
1464.00,95.72
1463.00,95.63
1462.00,95.53
1461.00,95.41
1460.00,95.25
1459.00,95.06
1458.00,94.80
1457.00,94.49
1456.00,94.22
1455.00,94.03
1454.00,93.89
1453.00,93.76
1452.00,93.65
1451.00,93.55
1450.00,93.49
1449.00,93.45
1448.00,93.44
1447.00,93.45
1446.00,93.46
1445.00,93.48
1444.00,93.49
1443.00,93.51
1442.00,93.53
1441.00,93.55
1440.00,93.57
1439.00,93.58
1438.00,93.61
1437.00,93.65
1436.00,93.70
1435.00,93.77
1434.00,93.83
1433.00,93.88
1432.00,93.94
1431.00,94.03
1430.00,94.13
1429.00,94.24
1428.00,94.34
1427.00,94.45
1426.00,94.55
1425.00,94.65
1424.00,94.75
1423.00,94.84
1422.00,94.92
1421.00,94.99
1420.00,95.07
1419.00,95.15
1418.00,95.22
1417.00,95.28
1416.00,95.32
1415.00,95.36
1414.00,95.41
1413.00,95.46
1412.00,95.50
1411.00,95.53
1410.00,95.56
1409.00,95.58
1408.00,95.59
1407.00,95.60
1406.00,95.61
1405.00,95.62
1404.00,95.65
1403.00,95.66
1402.00,95.67
1401.00,95.66
1400.00,95.65
1399.00,95.65
1398.00,95.65
1397.00,95.66
1396.00,95.67
1395.00,95.69
1394.00,95.71
1393.00,95.73
1392.00,95.74
1391.00,95.74
1390.00,95.73
1389.00,95.71
1388.00,95.68
1387.00,95.65
1386.00,95.62
1385.00,95.60
1384.00,95.58
1383.00,95.56
1382.00,95.54
1381.00,95.52
1380.00,95.49
1379.00,95.46
1378.00,95.43
1377.00,95.40
1376.00,95.37
1375.00,95.33
1374.00,95.29
1373.00,95.25
1372.00,95.23
1371.00,95.20
1370.00,95.19
1369.00,95.17
1368.00,95.15
1367.00,95.12
1366.00,95.08
1365.00,95.05
1364.00,95.01
1363.00,94.97
1362.00,94.95
1361.00,94.93
1360.00,94.92
1359.00,94.91
1358.00,94.90
1357.00,94.90
1356.00,94.90
1355.00,94.90
1354.00,94.90
1353.00,94.89
1352.00,94.90
1351.00,94.91
1350.00,94.93
1349.00,94.96
1348.00,94.98
1347.00,95.01
1346.00,95.03
1345.00,95.06
1344.00,95.09
1343.00,95.12
1342.00,95.16
1341.00,95.19
1340.00,95.22
1339.00,95.24
1338.00,95.27
1337.00,95.29
1336.00,95.31
1335.00,95.31
1334.00,95.30
1333.00,95.30
1332.00,95.32
1331.00,95.34
1330.00,95.36
1329.00,95.38
1328.00,95.39
1327.00,95.38
1326.00,95.38
1325.00,95.37
1324.00,95.37
1323.00,95.37
1322.00,95.38
1321.00,95.39
1320.00,95.39
1319.00,95.38
1318.00,95.37
1317.00,95.36
1316.00,95.36
1315.00,95.36
1314.00,95.37
1313.00,95.37
1312.00,95.36
1311.00,95.35
1310.00,95.34
1309.00,95.33
1308.00,95.33
1307.00,95.33
1306.00,95.33
1305.00,95.32
1304.00,95.30
1303.00,95.27
1302.00,95.25
1301.00,95.25
1300.00,95.25
1299.00,95.26
1298.00,95.27
1297.00,95.28
1296.00,95.28
1295.00,95.28
1294.00,95.28
1293.00,95.27
1292.00,95.27
1291.00,95.28
1290.00,95.27
1289.00,95.27
1288.00,95.25
1287.00,95.24
1286.00,95.24
1285.00,95.23
1284.00,95.23
1283.00,95.22
1282.00,95.22
1281.00,95.22
1280.00,95.21
1279.00,95.19
1278.00,95.16
1277.00,95.14
1276.00,95.13
1275.00,95.12
1274.00,95.11
1273.00,95.09
1272.00,95.07
1271.00,95.03
1270.00,95.00
1269.00,94.96
1268.00,94.92
1267.00,94.89
1266.00,94.85
1265.00,94.82
1264.00,94.79
1263.00,94.77
1262.00,94.74
1261.00,94.71
1260.00,94.68
1259.00,94.64
1258.00,94.62
1257.00,94.59
1256.00,94.55
1255.00,94.50
1254.00,94.46
1253.00,94.43
1252.00,94.40
1251.00,94.37
1250.00,94.34
1249.00,94.30
1248.00,94.27
1247.00,94.24
1246.00,94.22
1245.00,94.19
1244.00,94.17
1243.00,94.17
1242.00,94.18
1241.00,94.20
1240.00,94.21
1239.00,94.22
1238.00,94.24
1237.00,94.25
1236.00,94.27
1235.00,94.29
1234.00,94.31
1233.00,94.32
1232.00,94.34
1231.00,94.36
1230.00,94.38
1229.00,94.41
1228.00,94.42
1227.00,94.43
1226.00,94.43
1225.00,94.43
1224.00,94.42
1223.00,94.42
1222.00,94.43
1221.00,94.44
1220.00,94.47
1219.00,94.50
1218.00,94.54
1217.00,94.56
1216.00,94.58
1215.00,94.59
1214.00,94.60
1213.00,94.63
1212.00,94.67
1211.00,94.71
1210.00,94.74
1209.00,94.76
1208.00,94.77
1207.00,94.78
1206.00,94.79
1205.00,94.78
1204.00,94.77
1203.00,94.75
1202.00,94.74
1201.00,94.73
1200.00,94.73
1199.00,94.73
1198.00,94.73
1197.00,94.74
1196.00,94.76
1195.00,94.78
1194.00,94.80
1193.00,94.81
1192.00,94.81
1191.00,94.81
1190.00,94.80
1189.00,94.80
1188.00,94.80
1187.00,94.79
1186.00,94.77
1185.00,94.74
1184.00,94.71
1183.00,94.70
1182.00,94.69
1181.00,94.70
1180.00,94.71
1179.00,94.71
1178.00,94.71
1177.00,94.70
1176.00,94.70
1175.00,94.69
1174.00,94.69
1173.00,94.69
1172.00,94.71
1171.00,94.73
1170.00,94.75
1169.00,94.76
1168.00,94.76
1167.00,94.76
1166.00,94.75
1165.00,94.74
1164.00,94.74
1163.00,94.75
1162.00,94.77
1161.00,94.79
1160.00,94.80
1159.00,94.80
1158.00,94.81
1157.00,94.83
1156.00,94.88
1155.00,94.92
1154.00,94.96
1153.00,94.99
1152.00,95.01
1151.00,95.03
1150.00,95.04
1149.00,95.04
1148.00,95.04
1147.00,95.05
1146.00,95.07
1145.00,95.10
1144.00,95.13
1143.00,95.15
1142.00,95.15
1141.00,95.16
1140.00,95.17
1139.00,95.18
1138.00,95.19
1137.00,95.18
1136.00,95.16
1135.00,95.13
1134.00,95.10
1133.00,95.06
1132.00,95.02
1131.00,94.99
1130.00,94.96
1129.00,94.93
1128.00,94.88
1127.00,94.82
1126.00,94.76
1125.00,94.69
1124.00,94.63
1123.00,94.58
1122.00,94.56
1121.00,94.55
1120.00,94.53
1119.00,94.51
1118.00,94.48
1117.00,94.45
1116.00,94.43
1115.00,94.42
1114.00,94.43
1113.00,94.43
1112.00,94.41
1111.00,94.36
1110.00,94.29
1109.00,94.23
1108.00,94.17
1107.00,94.11
1106.00,94.04
1105.00,93.96
1104.00,93.91
1103.00,93.89
1102.00,93.88
1101.00,93.88
1100.00,93.88
1099.00,93.87
1098.00,93.84
1097.00,93.80
1096.00,93.76
1095.00,93.73
1094.00,93.69
1093.00,93.65
1092.00,93.62
1091.00,93.62
1090.00,93.62
1089.00,93.60
1088.00,93.55
1087.00,93.51
1086.00,93.48
1085.00,93.46
1084.00,93.44
1083.00,93.40
1082.00,93.35
1081.00,93.29
1080.00,93.23
1079.00,93.19
1078.00,93.17
1077.00,93.16
1076.00,93.14
1075.00,93.11
1074.00,93.05
1073.00,92.98
1072.00,92.93
1071.00,92.91
1070.00,92.90
1069.00,92.91
1068.00,92.92
1067.00,92.92
1066.00,92.92
1065.00,92.90
1064.00,92.89
1063.00,92.89
1062.00,92.92
1061.00,92.95
1060.00,93.00
1059.00,93.04
1058.00,93.09
1057.00,93.13
1056.00,93.14
1055.00,93.14
1054.00,93.14
1053.00,93.16
1052.00,93.20
1051.00,93.25
1050.00,93.31
1049.00,93.37
1048.00,93.41
1047.00,93.43
1046.00,93.45
1045.00,93.46
1044.00,93.47
1043.00,93.49
1042.00,93.53
1041.00,93.57
1040.00,93.58
1039.00,93.57
1038.00,93.55
1037.00,93.55
1036.00,93.56
1035.00,93.56
1034.00,93.56
1033.00,93.53
1032.00,93.50
1031.00,93.46
1030.00,93.43
1029.00,93.43
1028.00,93.45
1027.00,93.50
1026.00,93.55
1025.00,93.60
1024.00,93.65
1023.00,93.73
1022.00,93.83
1021.00,93.92
1020.00,93.99
1019.00,94.03
1018.00,94.07
1017.00,94.10
1016.00,94.13
1015.00,94.14
1014.00,94.16
1013.00,94.19
1012.00,94.21
1011.00,94.23
1010.00,94.22
1009.00,94.19
1008.00,94.15
1007.00,94.10
1006.00,94.07
1005.00,94.04
1004.00,94.05
1003.00,94.08
1002.00,94.13
1001.00,94.20
1000.00,94.26
999.00,94.31
998.00,94.35
997.00,94.39
996.00,94.42
995.00,94.44
994.00,94.45
993.00,94.46
992.00,94.47
991.00,94.47
990.00,94.47
989.00,94.47
988.00,94.47
987.00,94.49
986.00,94.52
985.00,94.54
984.00,94.56
983.00,94.56
982.00,94.56
981.00,94.56
980.00,94.57
979.00,94.58
978.00,94.59
977.00,94.60
976.00,94.60
975.00,94.59
974.00,94.57
973.00,94.57
972.00,94.57
971.00,94.57
970.00,94.57
969.00,94.58
968.00,94.59
967.00,94.59
966.00,94.57
965.00,94.56
964.00,94.55
963.00,94.56
962.00,94.58
961.00,94.59
960.00,94.60
959.00,94.60
958.00,94.59
957.00,94.58
956.00,94.57
955.00,94.56
954.00,94.56
953.00,94.57
952.00,94.58
951.00,94.59
950.00,94.60
949.00,94.60
948.00,94.60
947.00,94.59
946.00,94.57
945.00,94.55
944.00,94.53
943.00,94.53
942.00,94.54
941.00,94.57
940.00,94.61
939.00,94.62
938.00,94.62
937.00,94.60
936.00,94.58
935.00,94.58
934.00,94.61
933.00,94.64
932.00,94.66
931.00,94.65
930.00,94.63
929.00,94.63
928.00,94.65
927.00,94.67
926.00,94.67
925.00,94.67
924.00,94.67
923.00,94.67
922.00,94.67
921.00,94.67
920.00,94.68
919.00,94.70
918.00,94.72
917.00,94.75
916.00,94.75
915.00,94.74
914.00,94.72
913.00,94.72
912.00,94.73
911.00,94.74
910.00,94.75
909.00,94.75
908.00,94.76
907.00,94.76
906.00,94.76
905.00,94.75
904.00,94.76
903.00,94.77
902.00,94.79
901.00,94.80
900.00,94.80
899.00,94.80
898.00,94.79
897.00,94.80
896.00,94.82
895.00,94.84
894.00,94.87
893.00,94.87
892.00,94.86
891.00,94.85
890.00,94.85
889.00,94.87
888.00,94.90
887.00,94.93
886.00,94.95
885.00,94.95
884.00,94.93
883.00,94.90
882.00,94.87
881.00,94.86
880.00,94.88
879.00,94.91
878.00,94.95
877.00,95.00
876.00,95.04
875.00,95.06
874.00,95.05
873.00,95.00
872.00,94.97
871.00,94.97
870.00,94.98
869.00,95.00
868.00,95.02
867.00,95.04
866.00,95.04
865.00,95.04
864.00,95.04
863.00,95.04
862.00,95.04
861.00,95.02
860.00,95.00
859.00,94.97
858.00,94.98
857.00,95.02
856.00,95.07
855.00,95.09
854.00,95.07
853.00,95.03
852.00,95.00
851.00,94.99
850.00,94.98
849.00,94.96
848.00,94.93
847.00,94.92
846.00,94.93
845.00,94.95
844.00,94.98
843.00,94.99
842.00,94.98
841.00,94.96
840.00,94.95
839.00,94.95
838.00,94.96
837.00,94.97
836.00,94.99
835.00,95.01
834.00,95.01
833.00,94.97
832.00,94.92
831.00,94.89
830.00,94.90
829.00,94.94
828.00,94.98
827.00,95.02
826.00,95.04
825.00,95.06
824.00,95.08
823.00,95.11
822.00,95.11
821.00,95.09
820.00,95.06
819.00,95.05
818.00,95.06
817.00,95.08
816.00,95.09
815.00,95.07
814.00,95.03
813.00,95.00
812.00,94.99
811.00,94.99
810.00,95.01
809.00,95.04
808.00,95.06
807.00,95.08
806.00,95.10
805.00,95.10
804.00,95.09
803.00,95.08
802.00,95.07
801.00,95.07
800.00,95.07
799.00,95.07
798.00,95.07
797.00,95.07
796.00,95.06
795.00,95.06
794.00,95.06
793.00,95.05
792.00,95.05
791.00,95.06
790.00,95.06
789.00,95.06
788.00,95.04
787.00,94.98
786.00,94.92
785.00,94.85
784.00,94.79
783.00,94.75
782.00,94.72
781.00,94.68
780.00,94.65
779.00,94.60
778.00,94.56
777.00,94.51
776.00,94.47
775.00,94.44
774.00,94.42
773.00,94.38
772.00,94.32
771.00,94.25
770.00,94.20
769.00,94.17
768.00,94.14
767.00,94.09
766.00,94.02
765.00,93.94
764.00,93.90
763.00,93.90
762.00,93.91
761.00,93.91
760.00,93.88
759.00,93.83
758.00,93.76
757.00,93.66
756.00,93.56
755.00,93.47
754.00,93.40
753.00,93.33
752.00,93.22
751.00,93.10
750.00,92.99
749.00,92.92
748.00,92.89
747.00,92.85
746.00,92.79
745.00,92.71
744.00,92.60
743.00,92.50
742.00,92.43
741.00,92.39
740.00,92.39
739.00,92.40
738.00,92.42
737.00,92.45
736.00,92.47
735.00,92.49
734.00,92.50
733.00,92.49
732.00,92.46
731.00,92.44
730.00,92.44
729.00,92.48
728.00,92.54
727.00,92.60
726.00,92.65
725.00,92.67
724.00,92.67
723.00,92.68
722.00,92.71
721.00,92.77
720.00,92.84
719.00,92.89
718.00,92.89
717.00,92.87
716.00,92.84
715.00,92.82
714.00,92.80
713.00,92.79
712.00,92.79
711.00,92.80
710.00,92.82
709.00,92.80
708.00,92.75
707.00,92.68
706.00,92.64
705.00,92.64
704.00,92.68
703.00,92.70
702.00,92.72
701.00,92.76
700.00,92.83
699.00,92.93
698.00,93.00
697.00,93.05
696.00,93.08
695.00,93.12
694.00,93.15
693.00,93.16
692.00,93.18
691.00,93.22
690.00,93.29
689.00,93.33
688.00,93.33
687.00,93.30
686.00,93.25
685.00,93.20
684.00,93.16
683.00,93.12
682.00,93.06
681.00,92.99
680.00,92.93
679.00,92.88
678.00,92.86
677.00,92.83
676.00,92.79
675.00,92.74
674.00,92.68
673.00,92.63
672.00,92.60
671.00,92.58
670.00,92.56
669.00,92.49
668.00,92.37
667.00,92.29
666.00,92.26
665.00,92.26
664.00,92.25
663.00,92.21
662.00,92.16
661.00,92.14
660.00,92.14
659.00,92.13
658.00,92.07
657.00,91.98
656.00,91.89
655.00,91.85
654.00,91.83
653.00,91.80
652.00,91.80
651.00,91.83
650.00,91.85
649.00,91.78
648.00,91.64
647.00,91.53
646.00,91.51
645.00,91.57
644.00,91.64
643.00,91.68
642.00,91.68
641.00,91.66
640.00,91.67
639.00,91.71
638.00,91.74
637.00,91.67
636.00,91.51
635.00,91.37
634.00,91.33
633.00,91.38
632.00,91.39
631.00,91.33
630.00,91.26
629.00,91.28
628.00,91.40
627.00,91.57
626.00,91.68
625.00,91.73
624.00,91.81
623.00,92.00
622.00,92.25
621.00,92.39
620.00,92.39
619.00,92.32
618.00,92.26
617.00,92.15
616.00,92.01
615.00,91.91
614.00,91.91
613.00,91.92
612.00,91.89
611.00,91.91
610.00,91.99
609.00,92.09
608.00,92.16
607.00,92.20
606.00,92.12
605.00,91.93
604.00,91.98
603.00,92.83
602.00,94.49
601.00,96.09
600.00,96.52
599.00,95.50
598.00,93.88
597.00,92.70
596.00,92.27
595.00,92.23
594.00,92.23
593.00,92.20
592.00,92.22
591.00,92.28
590.00,92.38
589.00,92.51
588.00,92.56
587.00,92.39
586.00,91.96
585.00,91.43
584.00,91.01
583.00,90.90
582.00,91.22
581.00,91.90
580.00,92.69
579.00,93.12
578.00,92.90
577.00,92.12
576.00,91.25
575.00,90.83
574.00,91.00
573.00,91.39
572.00,91.54
571.00,91.45
570.00,91.54
569.00,92.06
568.00,92.68
567.00,92.76
566.00,92.04
565.00,90.90
564.00,90.00
563.00,89.78
562.00,90.21
561.00,90.83
560.00,91.22
559.00,91.21
558.00,90.92
557.00,90.52
556.00,90.13
555.00,89.91
554.00,90.03
553.00,90.42
552.00,90.83
551.00,91.13
550.00,91.42
