Created as New Dataset,67. Modacrylic Waxman Dyed
cm-1,%T
4000.00,99.56
3999.00,99.54
3998.00,99.52
3997.00,99.51
3996.00,99.51
3995.00,99.51
3994.00,99.52
3993.00,99.53
3992.00,99.54
3991.00,99.55
3990.00,99.55
3989.00,99.56
3988.00,99.57
3987.00,99.57
3986.00,99.57
3985.00,99.57
3984.00,99.56
3983.00,99.56
3982.00,99.56
3981.00,99.56
3980.00,99.55
3979.00,99.54
3978.00,99.53
3977.00,99.51
3976.00,99.49
3975.00,99.49
3974.00,99.50
3973.00,99.52
3972.00,99.53
3971.00,99.54
3970.00,99.54
3969.00,99.55
3968.00,99.56
3967.00,99.57
3966.00,99.57
3965.00,99.56
3964.00,99.55
3963.00,99.55
3962.00,99.55
3961.00,99.57
3960.00,99.58
3959.00,99.59
3958.00,99.58
3957.00,99.57
3956.00,99.56
3955.00,99.56
3954.00,99.56
3953.00,99.57
3952.00,99.57
3951.00,99.56
3950.00,99.55
3949.00,99.54
3948.00,99.53
3947.00,99.52
3946.00,99.51
3945.00,99.50
3944.00,99.51
3943.00,99.52
3942.00,99.53
3941.00,99.54
3940.00,99.54
3939.00,99.54
3938.00,99.53
3937.00,99.53
3936.00,99.53
3935.00,99.53
3934.00,99.52
3933.00,99.51
3932.00,99.50
3931.00,99.50
3930.00,99.51
3929.00,99.52
3928.00,99.54
3927.00,99.55
3926.00,99.55
3925.00,99.55
3924.00,99.54
3923.00,99.53
3922.00,99.53
3921.00,99.53
3920.00,99.53
3919.00,99.53
3918.00,99.52
3917.00,99.51
3916.00,99.51
3915.00,99.51
3914.00,99.51
3913.00,99.51
3912.00,99.52
3911.00,99.53
3910.00,99.55
3909.00,99.56
3908.00,99.57
3907.00,99.57
3906.00,99.55
3905.00,99.53
3904.00,99.50
3903.00,99.48
3902.00,99.46
3901.00,99.46
3900.00,99.47
3899.00,99.48
3898.00,99.49
3897.00,99.50
3896.00,99.51
3895.00,99.52
3894.00,99.53
3893.00,99.54
3892.00,99.55
3891.00,99.56
3890.00,99.55
3889.00,99.52
3888.00,99.50
3887.00,99.49
3886.00,99.48
3885.00,99.48
3884.00,99.49
3883.00,99.50
3882.00,99.52
3881.00,99.54
3880.00,99.56
3879.00,99.57
3878.00,99.56
3877.00,99.53
3876.00,99.51
3875.00,99.49
3874.00,99.47
3873.00,99.48
3872.00,99.49
3871.00,99.51
3870.00,99.52
3869.00,99.54
3868.00,99.56
3867.00,99.59
3866.00,99.60
3865.00,99.59
3864.00,99.58
3863.00,99.56
3862.00,99.56
3861.00,99.57
3860.00,99.57
3859.00,99.57
3858.00,99.56
3857.00,99.56
3856.00,99.57
3855.00,99.60
3854.00,99.62
3853.00,99.64
3852.00,99.65
3851.00,99.65
3850.00,99.64
3849.00,99.62
3848.00,99.59
3847.00,99.57
3846.00,99.55
3845.00,99.54
3844.00,99.54
3843.00,99.54
3842.00,99.55
3841.00,99.56
3840.00,99.59
3839.00,99.62
3838.00,99.65
3837.00,99.66
3836.00,99.66
3835.00,99.64
3834.00,99.62
3833.00,99.60
3832.00,99.59
3831.00,99.58
3830.00,99.57
3829.00,99.55
3828.00,99.54
3827.00,99.54
3826.00,99.53
3825.00,99.53
3824.00,99.53
3823.00,99.54
3822.00,99.55
3821.00,99.57
3820.00,99.58
3819.00,99.59
3818.00,99.61
3817.00,99.62
3816.00,99.63
3815.00,99.63
3814.00,99.63
3813.00,99.63
3812.00,99.62
3811.00,99.61
3810.00,99.60
3809.00,99.58
3808.00,99.56
3807.00,99.55
3806.00,99.56
3805.00,99.57
3804.00,99.58
3803.00,99.59
3802.00,99.61
3801.00,99.64
3800.00,99.66
3799.00,99.68
3798.00,99.69
3797.00,99.68
3796.00,99.65
3795.00,99.61
3794.00,99.56
3793.00,99.51
3792.00,99.46
3791.00,99.44
3790.00,99.44
3789.00,99.46
3788.00,99.49
3787.00,99.53
3786.00,99.56
3785.00,99.58
3784.00,99.59
3783.00,99.59
3782.00,99.56
3781.00,99.53
3780.00,99.51
3779.00,99.51
3778.00,99.54
3777.00,99.56
3776.00,99.58
3775.00,99.57
3774.00,99.55
3773.00,99.53
3772.00,99.51
3771.00,99.50
3770.00,99.49
3769.00,99.50
3768.00,99.52
3767.00,99.54
3766.00,99.56
3765.00,99.56
3764.00,99.56
3763.00,99.54
3762.00,99.52
3761.00,99.50
3760.00,99.48
3759.00,99.48
3758.00,99.49
3757.00,99.51
3756.00,99.52
3755.00,99.54
3754.00,99.57
3753.00,99.60
3752.00,99.61
3751.00,99.62
3750.00,99.62
3749.00,99.62
3748.00,99.61
3747.00,99.60
3746.00,99.59
3745.00,99.59
3744.00,99.57
3743.00,99.54
3742.00,99.50
3741.00,99.49
3740.00,99.49
3739.00,99.51
3738.00,99.52
3737.00,99.54
3736.00,99.56
3735.00,99.57
3734.00,99.57
3733.00,99.56
3732.00,99.53
3731.00,99.52
3730.00,99.53
3729.00,99.56
3728.00,99.58
3727.00,99.59
3726.00,99.57
3725.00,99.56
3724.00,99.57
3723.00,99.59
3722.00,99.60
3721.00,99.59
3720.00,99.56
3719.00,99.53
3718.00,99.51
3717.00,99.51
3716.00,99.52
3715.00,99.53
3714.00,99.55
3713.00,99.57
3712.00,99.59
3711.00,99.60
3710.00,99.59
3709.00,99.57
3708.00,99.53
3707.00,99.49
3706.00,99.47
3705.00,99.48
3704.00,99.51
3703.00,99.54
3702.00,99.56
3701.00,99.55
3700.00,99.53
3699.00,99.51
3698.00,99.52
3697.00,99.53
3696.00,99.53
3695.00,99.52
3694.00,99.51
3693.00,99.50
3692.00,99.50
3691.00,99.51
3690.00,99.52
3689.00,99.53
3688.00,99.53
3687.00,99.52
3686.00,99.50
3685.00,99.49
3684.00,99.50
3683.00,99.51
3682.00,99.53
3681.00,99.53
3680.00,99.52
3679.00,99.50
3678.00,99.49
3677.00,99.48
3676.00,99.46
3675.00,99.45
3674.00,99.46
3673.00,99.46
3672.00,99.48
3671.00,99.50
3670.00,99.52
3669.00,99.52
3668.00,99.49
3667.00,99.45
3666.00,99.41
3665.00,99.39
3664.00,99.37
3663.00,99.36
3662.00,99.35
3661.00,99.34
3660.00,99.34
3659.00,99.35
3658.00,99.36
3657.00,99.36
3656.00,99.36
3655.00,99.37
3654.00,99.38
3653.00,99.42
3652.00,99.44
3651.00,99.44
3650.00,99.41
3649.00,99.38
3648.00,99.38
3647.00,99.39
3646.00,99.40
3645.00,99.38
3644.00,99.37
3643.00,99.35
3642.00,99.35
3641.00,99.34
3640.00,99.34
3639.00,99.33
3638.00,99.31
3637.00,99.29
3636.00,99.28
3635.00,99.29
3634.00,99.31
3633.00,99.33
3632.00,99.33
3631.00,99.32
3630.00,99.31
3629.00,99.29
3628.00,99.28
3627.00,99.28
3626.00,99.30
3625.00,99.32
3624.00,99.33
3623.00,99.33
3622.00,99.32
3621.00,99.31
3620.00,99.32
3619.00,99.34
3618.00,99.34
3617.00,99.34
3616.00,99.34
3615.00,99.34
3614.00,99.35
3613.00,99.35
3612.00,99.33
3611.00,99.31
3610.00,99.30
3609.00,99.31
3608.00,99.33
3607.00,99.34
3606.00,99.35
3605.00,99.34
3604.00,99.35
3603.00,99.35
3602.00,99.36
3601.00,99.37
3600.00,99.38
3599.00,99.38
3598.00,99.39
3597.00,99.39
3596.00,99.39
3595.00,99.39
3594.00,99.39
3593.00,99.39
3592.00,99.38
3591.00,99.36
3590.00,99.34
3589.00,99.32
3588.00,99.31
3587.00,99.30
3586.00,99.31
3585.00,99.31
3584.00,99.31
3583.00,99.31
3582.00,99.32
3581.00,99.33
3580.00,99.33
3579.00,99.33
3578.00,99.32
3577.00,99.30
3576.00,99.27
3575.00,99.24
3574.00,99.21
3573.00,99.20
3572.00,99.20
3571.00,99.21
3570.00,99.22
3569.00,99.22
3568.00,99.25
3567.00,99.29
3566.00,99.32
3565.00,99.34
3564.00,99.34
3563.00,99.33
3562.00,99.32
3561.00,99.30
3560.00,99.28
3559.00,99.27
3558.00,99.28
3557.00,99.30
3556.00,99.31
3555.00,99.30
3554.00,99.26
3553.00,99.21
3552.00,99.19
3551.00,99.19
3550.00,99.22
3549.00,99.24
3548.00,99.24
3547.00,99.22
3546.00,99.20
3545.00,99.19
3544.00,99.21
3543.00,99.23
3542.00,99.25
3541.00,99.26
3540.00,99.25
3539.00,99.24
3538.00,99.23
3537.00,99.23
3536.00,99.22
3535.00,99.20
3534.00,99.19
3533.00,99.19
3532.00,99.21
3531.00,99.23
3530.00,99.26
3529.00,99.28
3528.00,99.28
3527.00,99.27
3526.00,99.24
3525.00,99.21
3524.00,99.20
3523.00,99.21
3522.00,99.24
3521.00,99.27
3520.00,99.28
3519.00,99.26
3518.00,99.21
3517.00,99.16
3516.00,99.14
3515.00,99.15
3514.00,99.17
3513.00,99.20
3512.00,99.22
3511.00,99.24
3510.00,99.25
3509.00,99.25
3508.00,99.23
3507.00,99.21
3506.00,99.18
3505.00,99.17
3504.00,99.17
3503.00,99.18
3502.00,99.21
3501.00,99.23
3500.00,99.23
3499.00,99.23
3498.00,99.23
3497.00,99.22
3496.00,99.22
3495.00,99.22
3494.00,99.21
3493.00,99.20
3492.00,99.19
3491.00,99.19
3490.00,99.20
3489.00,99.21
3488.00,99.21
3487.00,99.19
3486.00,99.17
3485.00,99.15
3484.00,99.14
3483.00,99.14
3482.00,99.16
3481.00,99.19
3480.00,99.23
3479.00,99.27
3478.00,99.28
3477.00,99.28
3476.00,99.27
3475.00,99.26
3474.00,99.25
3473.00,99.24
3472.00,99.23
3471.00,99.23
3470.00,99.23
3469.00,99.23
3468.00,99.24
3467.00,99.24
3466.00,99.23
3465.00,99.22
3464.00,99.22
3463.00,99.22
3462.00,99.23
3461.00,99.22
3460.00,99.21
3459.00,99.20
3458.00,99.20
3457.00,99.20
3456.00,99.21
3455.00,99.22
3454.00,99.22
3453.00,99.21
3452.00,99.19
3451.00,99.17
3450.00,99.17
3449.00,99.17
3448.00,99.19
3447.00,99.20
3446.00,99.20
3445.00,99.20
3444.00,99.21
3443.00,99.23
3442.00,99.25
3441.00,99.25
3440.00,99.22
3439.00,99.20
3438.00,99.18
3437.00,99.18
3436.00,99.20
3435.00,99.22
3434.00,99.24
3433.00,99.24
3432.00,99.24
3431.00,99.25
3430.00,99.27
3429.00,99.28
3428.00,99.28
3427.00,99.27
3426.00,99.25
3425.00,99.25
3424.00,99.25
3423.00,99.26
3422.00,99.26
3421.00,99.25
3420.00,99.25
3419.00,99.25
3418.00,99.25
3417.00,99.25
3416.00,99.24
3415.00,99.23
3414.00,99.22
3413.00,99.22
3412.00,99.21
3411.00,99.20
3410.00,99.19
3409.00,99.18
3408.00,99.18
3407.00,99.20
3406.00,99.22
3405.00,99.23
3404.00,99.24
3403.00,99.25
3402.00,99.26
3401.00,99.26
3400.00,99.25
3399.00,99.23
3398.00,99.21
3397.00,99.20
3396.00,99.20
3395.00,99.21
3394.00,99.21
3393.00,99.20
3392.00,99.18
3391.00,99.17
3390.00,99.17
3389.00,99.18
3388.00,99.21
3387.00,99.24
3386.00,99.27
3385.00,99.29
3384.00,99.31
3383.00,99.30
3382.00,99.28
3381.00,99.24
3380.00,99.20
3379.00,99.17
3378.00,99.15
3377.00,99.14
3376.00,99.16
3375.00,99.17
3374.00,99.18
3373.00,99.19
3372.00,99.19
3371.00,99.19
3370.00,99.19
3369.00,99.19
3368.00,99.19
3367.00,99.19
3366.00,99.20
3365.00,99.22
3364.00,99.24
3363.00,99.25
3362.00,99.25
3361.00,99.25
3360.00,99.24
3359.00,99.23
3358.00,99.22
3357.00,99.22
3356.00,99.21
3355.00,99.21
3354.00,99.21
3353.00,99.21
3352.00,99.21
3351.00,99.20
3350.00,99.18
3349.00,99.17
3348.00,99.18
3347.00,99.19
3346.00,99.21
3345.00,99.22
3344.00,99.22
3343.00,99.22
3342.00,99.20
3341.00,99.20
3340.00,99.19
3339.00,99.20
3338.00,99.21
3337.00,99.21
3336.00,99.20
3335.00,99.20
3334.00,99.19
3333.00,99.18
3332.00,99.17
3331.00,99.16
3330.00,99.16
3329.00,99.15
3328.00,99.16
3327.00,99.17
3326.00,99.19
3325.00,99.21
3324.00,99.21
3323.00,99.22
3322.00,99.22
3321.00,99.23
3320.00,99.23
3319.00,99.21
3318.00,99.19
3317.00,99.17
3316.00,99.16
3315.00,99.17
3314.00,99.20
3313.00,99.22
3312.00,99.23
3311.00,99.24
3310.00,99.23
3309.00,99.23
3308.00,99.23
3307.00,99.23
3306.00,99.24
3305.00,99.25
3304.00,99.25
3303.00,99.25
3302.00,99.25
3301.00,99.25
3300.00,99.24
3299.00,99.22
3298.00,99.21
3297.00,99.21
3296.00,99.21
3295.00,99.21
3294.00,99.21
3293.00,99.22
3292.00,99.22
3291.00,99.23
3290.00,99.23
3289.00,99.22
3288.00,99.20
3287.00,99.19
3286.00,99.19
3285.00,99.19
3284.00,99.18
3283.00,99.17
3282.00,99.18
3281.00,99.20
3280.00,99.23
3279.00,99.25
3278.00,99.27
3277.00,99.26
3276.00,99.23
3275.00,99.20
3274.00,99.17
3273.00,99.16
3272.00,99.16
3271.00,99.18
3270.00,99.19
3269.00,99.19
3268.00,99.18
3267.00,99.17
3266.00,99.16
3265.00,99.17
3264.00,99.17
3263.00,99.18
3262.00,99.20
3261.00,99.21
3260.00,99.23
3259.00,99.23
3258.00,99.22
3257.00,99.21
3256.00,99.19
3255.00,99.18
3254.00,99.17
3253.00,99.17
3252.00,99.17
3251.00,99.18
3250.00,99.20
3249.00,99.22
3248.00,99.23
3247.00,99.24
3246.00,99.24
3245.00,99.23
3244.00,99.22
3243.00,99.20
3242.00,99.19
3241.00,99.18
3240.00,99.17
3239.00,99.16
3238.00,99.17
3237.00,99.18
3236.00,99.20
3235.00,99.21
3234.00,99.22
3233.00,99.21
3232.00,99.21
3231.00,99.22
3230.00,99.22
3229.00,99.23
3228.00,99.23
3227.00,99.22
3226.00,99.21
3225.00,99.20
3224.00,99.17
3223.00,99.16
3222.00,99.16
3221.00,99.18
3220.00,99.19
3219.00,99.20
3218.00,99.19
3217.00,99.19
3216.00,99.20
3215.00,99.22
3214.00,99.24
3213.00,99.25
3212.00,99.24
3211.00,99.22
3210.00,99.20
3209.00,99.19
3208.00,99.19
3207.00,99.20
3206.00,99.21
3205.00,99.21
3204.00,99.20
3203.00,99.18
3202.00,99.16
3201.00,99.16
3200.00,99.17
3199.00,99.19
3198.00,99.21
3197.00,99.21
3196.00,99.20
3195.00,99.18
3194.00,99.16
3193.00,99.15
3192.00,99.15
3191.00,99.15
3190.00,99.15
3189.00,99.14
3188.00,99.14
3187.00,99.15
3186.00,99.16
3185.00,99.18
3184.00,99.20
3183.00,99.21
3182.00,99.21
3181.00,99.20
3180.00,99.19
3179.00,99.19
3178.00,99.20
3177.00,99.22
3176.00,99.23
3175.00,99.22
3174.00,99.22
3173.00,99.22
3172.00,99.22
3171.00,99.24
3170.00,99.25
3169.00,99.27
3168.00,99.27
3167.00,99.27
3166.00,99.25
3165.00,99.23
3164.00,99.21
3163.00,99.19
3162.00,99.18
3161.00,99.18
3160.00,99.18
3159.00,99.19
3158.00,99.20
3157.00,99.21
3156.00,99.20
3155.00,99.20
3154.00,99.20
3153.00,99.21
3152.00,99.21
3151.00,99.21
3150.00,99.20
3149.00,99.19
3148.00,99.19
3147.00,99.19
3146.00,99.20
3145.00,99.20
3144.00,99.20
3143.00,99.21
3142.00,99.21
3141.00,99.20
3140.00,99.20
3139.00,99.21
3138.00,99.21
3137.00,99.21
3136.00,99.21
3135.00,99.22
3134.00,99.22
3133.00,99.22
3132.00,99.22
3131.00,99.21
3130.00,99.19
3129.00,99.17
3128.00,99.17
3127.00,99.19
3126.00,99.21
3125.00,99.23
3124.00,99.22
3123.00,99.21
3122.00,99.19
3121.00,99.19
3120.00,99.19
3119.00,99.19
3118.00,99.20
3117.00,99.21
3116.00,99.21
3115.00,99.21
3114.00,99.21
3113.00,99.21
3112.00,99.20
3111.00,99.19
3110.00,99.19
3109.00,99.19
3108.00,99.20
3107.00,99.21
3106.00,99.20
3105.00,99.20
3104.00,99.19
3103.00,99.18
3102.00,99.17
3101.00,99.16
3100.00,99.16
3099.00,99.16
3098.00,99.17
3097.00,99.17
3096.00,99.19
3095.00,99.21
3094.00,99.22
3093.00,99.22
3092.00,99.20
3091.00,99.18
3090.00,99.17
3089.00,99.16
3088.00,99.16
3087.00,99.17
3086.00,99.18
3085.00,99.19
3084.00,99.20
3083.00,99.20
3082.00,99.20
3081.00,99.20
3080.00,99.19
3079.00,99.18
3078.00,99.16
3077.00,99.15
3076.00,99.15
3075.00,99.16
3074.00,99.18
3073.00,99.19
3072.00,99.19
3071.00,99.17
3070.00,99.16
3069.00,99.15
3068.00,99.15
3067.00,99.17
3066.00,99.19
3065.00,99.21
3064.00,99.22
3063.00,99.21
3062.00,99.18
3061.00,99.16
3060.00,99.15
3059.00,99.15
3058.00,99.14
3057.00,99.14
3056.00,99.15
3055.00,99.15
3054.00,99.16
3053.00,99.16
3052.00,99.15
3051.00,99.14
3050.00,99.12
3049.00,99.11
3048.00,99.10
3047.00,99.09
3046.00,99.09
3045.00,99.10
3044.00,99.11
3043.00,99.12
3042.00,99.13
3041.00,99.14
3040.00,99.14
3039.00,99.14
3038.00,99.13
3037.00,99.12
3036.00,99.11
3035.00,99.11
3034.00,99.11
3033.00,99.12
3032.00,99.13
3031.00,99.13
3030.00,99.11
3029.00,99.09
3028.00,99.08
3027.00,99.07
3026.00,99.07
3025.00,99.08
3024.00,99.08
3023.00,99.07
3022.00,99.07
3021.00,99.07
3020.00,99.07
3019.00,99.08
3018.00,99.08
3017.00,99.07
3016.00,99.07
3015.00,99.07
3014.00,99.06
3013.00,99.06
3012.00,99.06
3011.00,99.06
3010.00,99.06
3009.00,99.04
3008.00,99.02
3007.00,99.01
3006.00,99.01
3005.00,99.01
3004.00,99.02
3003.00,99.03
3002.00,99.03
3001.00,99.03
3000.00,99.03
2999.00,99.03
2998.00,99.03
2997.00,99.03
2996.00,99.03
2995.00,99.03
2994.00,99.02
2993.00,99.00
2992.00,98.99
2991.00,98.98
2990.00,98.99
2989.00,98.99
2988.00,98.98
2987.00,98.96
2986.00,98.94
2985.00,98.93
2984.00,98.93
2983.00,98.92
2982.00,98.89
2981.00,98.85
2980.00,98.81
2979.00,98.78
2978.00,98.77
2977.00,98.76
2976.00,98.76
2975.00,98.75
2974.00,98.74
2973.00,98.72
2972.00,98.70
2971.00,98.68
2970.00,98.66
2969.00,98.63
2968.00,98.60
2967.00,98.57
2966.00,98.55
2965.00,98.52
2964.00,98.51
2963.00,98.49
2962.00,98.48
2961.00,98.46
2960.00,98.45
2959.00,98.44
2958.00,98.43
2957.00,98.43
2956.00,98.42
2955.00,98.42
2954.00,98.42
2953.00,98.41
2952.00,98.41
2951.00,98.40
2950.00,98.38
2949.00,98.36
2948.00,98.33
2947.00,98.29
2946.00,98.26
2945.00,98.24
2944.00,98.23
2943.00,98.22
2942.00,98.21
2941.00,98.19
2940.00,98.17
2939.00,98.15
2938.00,98.13
2937.00,98.12
2936.00,98.11
2935.00,98.11
2934.00,98.09
2933.00,98.07
2932.00,98.05
2931.00,98.03
2930.00,98.02
2929.00,98.02
2928.00,98.01
2927.00,98.00
2926.00,97.99
2925.00,97.99
2924.00,97.99
2923.00,98.00
2922.00,98.01
2921.00,98.04
2920.00,98.06
2919.00,98.08
2918.00,98.09
2917.00,98.11
2916.00,98.13
2915.00,98.14
2914.00,98.15
2913.00,98.17
2912.00,98.19
2911.00,98.22
2910.00,98.27
2909.00,98.32
2908.00,98.36
2907.00,98.39
2906.00,98.42
2905.00,98.46
2904.00,98.51
2903.00,98.56
2902.00,98.60
2901.00,98.63
2900.00,98.65
2899.00,98.66
2898.00,98.67
2897.00,98.69
2896.00,98.71
2895.00,98.72
2894.00,98.73
2893.00,98.74
2892.00,98.74
2891.00,98.75
2890.00,98.76
2889.00,98.77
2888.00,98.80
2887.00,98.83
2886.00,98.86
2885.00,98.87
2884.00,98.86
2883.00,98.85
2882.00,98.84
2881.00,98.83
2880.00,98.82
2879.00,98.81
2878.00,98.80
2877.00,98.79
2876.00,98.80
2875.00,98.82
2874.00,98.83
2873.00,98.83
2872.00,98.82
2871.00,98.80
2870.00,98.78
2869.00,98.76
2868.00,98.75
2867.00,98.74
2866.00,98.74
2865.00,98.74
2864.00,98.75
2863.00,98.75
2862.00,98.75
2861.00,98.75
2860.00,98.76
2859.00,98.76
2858.00,98.75
2857.00,98.75
2856.00,98.73
2855.00,98.72
2854.00,98.72
2853.00,98.73
2852.00,98.75
2851.00,98.78
2850.00,98.80
2849.00,98.82
2848.00,98.82
2847.00,98.82
2846.00,98.83
2845.00,98.84
2844.00,98.85
2843.00,98.87
2842.00,98.88
2841.00,98.89
2840.00,98.91
2839.00,98.91
2838.00,98.92
2837.00,98.91
2836.00,98.90
2835.00,98.89
2834.00,98.88
2833.00,98.88
2832.00,98.89
2831.00,98.91
2830.00,98.92
2829.00,98.94
2828.00,98.94
2827.00,98.94
2826.00,98.92
2825.00,98.91
2824.00,98.90
2823.00,98.90
2822.00,98.91
2821.00,98.93
2820.00,98.95
2819.00,98.97
2818.00,98.98
2817.00,98.98
2816.00,98.98
2815.00,98.98
2814.00,98.98
2813.00,98.99
2812.00,98.99
2811.00,98.99
2810.00,98.98
2809.00,98.98
2808.00,98.98
2807.00,98.99
2806.00,99.01
2805.00,99.02
2804.00,99.02
2803.00,99.02
2802.00,99.01
2801.00,99.01
2800.00,99.00
2799.00,99.00
2798.00,99.00
2797.00,99.01
2796.00,99.01
2795.00,99.01
2794.00,99.01
2793.00,99.02
2792.00,99.02
2791.00,99.02
2790.00,99.00
2789.00,99.00
2788.00,99.00
2787.00,99.01
2786.00,99.02
2785.00,99.03
2784.00,99.03
2783.00,99.03
2782.00,99.03
2781.00,99.03
2780.00,99.03
2779.00,99.03
2778.00,99.02
2777.00,99.01
2776.00,99.01
2775.00,99.00
2774.00,98.99
2773.00,98.99
2772.00,98.99
2771.00,99.00
2770.00,99.00
2769.00,99.00
2768.00,99.01
2767.00,99.01
2766.00,99.01
2765.00,99.00
2764.00,98.99
2763.00,98.98
2762.00,98.97
2761.00,98.98
2760.00,98.99
2759.00,99.01
2758.00,99.02
2757.00,99.02
2756.00,99.01
2755.00,99.01
2754.00,99.00
2753.00,98.98
2752.00,98.97
2751.00,98.96
2750.00,98.96
2749.00,98.97
2748.00,98.98
2747.00,98.99
2746.00,98.98
2745.00,98.98
2744.00,98.97
2743.00,98.97
2742.00,98.98
2741.00,98.99
2740.00,99.00
2739.00,99.00
2738.00,99.01
2737.00,99.01
2736.00,99.01
2735.00,99.01
2734.00,99.01
2733.00,99.00
2732.00,99.00
2731.00,98.99
2730.00,98.98
2729.00,98.97
2728.00,98.97
2727.00,98.98
2726.00,98.99
2725.00,99.00
2724.00,99.01
2723.00,99.01
2722.00,99.02
2721.00,99.02
2720.00,99.03
2719.00,99.02
2718.00,99.01
2717.00,98.99
2716.00,98.99
2715.00,98.99
2714.00,99.00
2713.00,99.00
2712.00,99.00
2711.00,99.01
2710.00,99.02
2709.00,99.03
2708.00,99.03
2707.00,99.03
2706.00,99.02
2705.00,99.01
2704.00,99.00
2703.00,98.99
2702.00,98.99
2701.00,98.99
2700.00,98.98
2699.00,98.98
2698.00,98.97
2697.00,98.96
2696.00,98.95
2695.00,98.95
2694.00,98.96
2693.00,98.96
2692.00,98.98
2691.00,98.99
2690.00,99.00
2689.00,99.00
2688.00,99.00
2687.00,98.99
2686.00,98.99
2685.00,98.99
2684.00,98.99
2683.00,98.98
2682.00,98.97
2681.00,98.97
2680.00,98.97
2679.00,98.97
2678.00,98.97
2677.00,98.96
2676.00,98.96
2675.00,98.96
2674.00,98.96
2673.00,98.97
2672.00,98.97
2671.00,98.98
2670.00,98.98
2669.00,98.98
2668.00,98.98
2667.00,98.99
2666.00,98.99
2665.00,98.99
2664.00,98.98
2663.00,98.97
2662.00,98.96
2661.00,98.95
2660.00,98.94
2659.00,98.94
2658.00,98.94
2657.00,98.94
2656.00,98.94
2655.00,98.95
2654.00,98.95
2653.00,98.95
2652.00,98.94
2651.00,98.93
2650.00,98.92
2649.00,98.91
2648.00,98.91
2647.00,98.90
2646.00,98.89
2645.00,98.89
2644.00,98.89
2643.00,98.90
2642.00,98.90
2641.00,98.91
2640.00,98.91
2639.00,98.91
2638.00,98.91
2637.00,98.90
2636.00,98.89
2635.00,98.88
2634.00,98.89
2633.00,98.90
2632.00,98.91
2631.00,98.91
2630.00,98.90
2629.00,98.89
2628.00,98.90
2627.00,98.90
2626.00,98.90
2625.00,98.89
2624.00,98.90
2623.00,98.91
2622.00,98.93
2621.00,98.94
2620.00,98.94
2619.00,98.95
2618.00,98.95
2617.00,98.95
2616.00,98.96
2615.00,98.96
2614.00,98.97
2613.00,98.96
2612.00,98.96
2611.00,98.96
2610.00,98.97
2609.00,98.98
2608.00,98.97
2607.00,98.95
2606.00,98.93
2605.00,98.93
2604.00,98.93
2603.00,98.94
2602.00,98.95
2601.00,98.94
2600.00,98.95
2599.00,98.95
2598.00,98.96
2597.00,98.96
2596.00,98.96
2595.00,98.96
2594.00,98.96
2593.00,98.96
2592.00,98.96
2591.00,98.96
2590.00,98.96
2589.00,98.95
2588.00,98.94
2587.00,98.93
2586.00,98.92
2585.00,98.91
2584.00,98.91
2583.00,98.90
2582.00,98.90
2581.00,98.90
2580.00,98.90
2579.00,98.91
2578.00,98.92
2577.00,98.94
2576.00,98.95
2575.00,98.95
2574.00,98.95
2573.00,98.94
2572.00,98.95
2571.00,98.97
2570.00,98.99
2569.00,98.98
2568.00,98.97
2567.00,98.96
2566.00,98.97
2565.00,98.98
2564.00,98.98
2563.00,98.97
2562.00,98.96
2561.00,98.96
2560.00,98.97
2559.00,98.99
2558.00,99.00
2557.00,99.00
2556.00,98.98
2555.00,98.95
2554.00,98.93
2553.00,98.93
2552.00,98.93
2551.00,98.93
2550.00,98.94
2549.00,98.95
2548.00,98.96
2547.00,98.97
2546.00,98.97
2545.00,98.97
2544.00,98.97
2543.00,98.96
2542.00,98.97
2541.00,98.97
2540.00,98.96
2539.00,98.95
2538.00,98.95
2537.00,98.94
2536.00,98.94
2535.00,98.93
2534.00,98.91
2533.00,98.90
2532.00,98.90
2531.00,98.92
2530.00,98.96
2529.00,98.99
2528.00,99.01
2527.00,99.00
2526.00,98.98
2525.00,98.96
2524.00,98.94
2523.00,98.93
2522.00,98.94
2521.00,98.96
2520.00,98.98
2519.00,98.98
2518.00,98.97
2517.00,98.95
2516.00,98.94
2515.00,98.94
2514.00,98.95
2513.00,98.96
2512.00,98.97
2511.00,98.97
2510.00,98.97
2509.00,98.97
2508.00,98.97
2507.00,98.97
2506.00,98.96
2505.00,98.95
2504.00,98.95
2503.00,98.95
2502.00,98.96
2501.00,98.97
2500.00,98.96
2499.00,98.93
2498.00,98.90
2497.00,98.88
2496.00,98.89
2495.00,98.93
2494.00,98.95
2493.00,98.96
2492.00,98.96
2491.00,98.96
2490.00,98.96
2489.00,98.95
2488.00,98.93
2487.00,98.90
2486.00,98.88
2485.00,98.89
2484.00,98.92
2483.00,98.94
2482.00,98.96
2481.00,98.95
2480.00,98.94
2479.00,98.93
2478.00,98.93
2477.00,98.93
2476.00,98.92
2475.00,98.91
2474.00,98.90
2473.00,98.89
2472.00,98.91
2471.00,98.94
2470.00,98.97
2469.00,98.97
2468.00,98.96
2467.00,98.95
2466.00,98.94
2465.00,98.95
2464.00,98.95
2463.00,98.96
2462.00,98.95
2461.00,98.94
2460.00,98.92
2459.00,98.91
2458.00,98.90
2457.00,98.90
2456.00,98.91
2455.00,98.93
2454.00,98.94
2453.00,98.95
2452.00,98.93
2451.00,98.91
2450.00,98.90
2449.00,98.89
2448.00,98.90
2447.00,98.92
2446.00,98.93
2445.00,98.93
2444.00,98.93
2443.00,98.93
2442.00,98.93
2441.00,98.92
2440.00,98.91
2439.00,98.90
2438.00,98.91
2437.00,98.92
2436.00,98.93
2435.00,98.94
2434.00,98.95
2433.00,98.97
2432.00,98.98
2431.00,98.98
2430.00,98.97
2429.00,98.95
2428.00,98.94
2427.00,98.95
2426.00,98.96
2425.00,98.96
2424.00,98.96
2423.00,98.94
2422.00,98.92
2421.00,98.89
2420.00,98.87
2419.00,98.86
2418.00,98.87
2417.00,98.87
2416.00,98.87
2415.00,98.86
2414.00,98.86
2413.00,98.87
2412.00,98.87
2411.00,98.88
2410.00,98.89
2409.00,98.91
2408.00,98.92
2407.00,98.93
2406.00,98.93
2405.00,98.93
2404.00,98.93
2403.00,98.93
2402.00,98.93
2401.00,98.93
2400.00,98.93
2399.00,98.93
2398.00,98.93
2397.00,98.94
2396.00,98.96
2395.00,98.96
2394.00,98.96
2393.00,98.94
2392.00,98.92
2391.00,98.91
2390.00,98.91
2389.00,98.91
2388.00,98.92
2387.00,98.93
2386.00,98.94
2385.00,98.94
2384.00,98.94
2383.00,98.96
2382.00,98.98
2381.00,98.99
2380.00,99.00
2379.00,99.01
2378.00,99.02
2377.00,99.01
2376.00,99.00
2375.00,99.00
2374.00,99.01
2373.00,99.04
2372.00,99.06
2371.00,99.06
2370.00,99.06
2369.00,99.05
2368.00,99.04
2367.00,99.04
2366.00,99.03
2365.00,98.99
2364.00,98.93
2363.00,98.89
2362.00,98.92
2361.00,99.01
2360.00,99.11
2359.00,99.17
2358.00,99.18
2357.00,99.15
2356.00,99.12
2355.00,99.09
2354.00,99.07
2353.00,99.04
2352.00,99.02
2351.00,99.01
2350.00,99.03
2349.00,99.06
2348.00,99.09
2347.00,99.11
2346.00,99.11
2345.00,99.10
2344.00,99.09
2343.00,99.09
2342.00,99.08
2341.00,99.05
2340.00,99.00
2339.00,98.98
2338.00,98.99
2337.00,99.03
2336.00,99.08
2335.00,99.10
2334.00,99.12
2333.00,99.11
2332.00,99.08
2331.00,99.04
2330.00,99.03
2329.00,99.06
2328.00,99.09
2327.00,99.09
2326.00,99.05
2325.00,98.99
2324.00,98.92
2323.00,98.90
2322.00,98.90
2321.00,98.91
2320.00,98.90
2319.00,98.88
2318.00,98.87
2317.00,98.86
2316.00,98.86
2315.00,98.86
2314.00,98.87
2313.00,98.88
2312.00,98.89
2311.00,98.89
2310.00,98.89
2309.00,98.89
2308.00,98.91
2307.00,98.94
2306.00,98.95
2305.00,98.95
2304.00,98.93
2303.00,98.92
2302.00,98.91
2301.00,98.91
2300.00,98.89
2299.00,98.87
2298.00,98.85
2297.00,98.85
2296.00,98.84
2295.00,98.84
2294.00,98.83
2293.00,98.82
2292.00,98.80
2291.00,98.78
2290.00,98.77
2289.00,98.76
2288.00,98.77
2287.00,98.80
2286.00,98.84
2285.00,98.86
2284.00,98.86
2283.00,98.83
2282.00,98.81
2281.00,98.80
2280.00,98.81
2279.00,98.82
2278.00,98.83
2277.00,98.84
2276.00,98.84
2275.00,98.84
2274.00,98.84
2273.00,98.85
2272.00,98.86
2271.00,98.86
2270.00,98.84
2269.00,98.83
2268.00,98.83
2267.00,98.84
2266.00,98.85
2265.00,98.83
2264.00,98.80
2263.00,98.76
2262.00,98.74
2261.00,98.74
2260.00,98.74
2259.00,98.74
2258.00,98.73
2257.00,98.70
2256.00,98.63
2255.00,98.52
2254.00,98.41
2253.00,98.31
2252.00,98.22
2251.00,98.12
2250.00,98.01
2249.00,97.87
2248.00,97.73
2247.00,97.58
2246.00,97.43
2245.00,97.30
2244.00,97.18
2243.00,97.10
2242.00,97.06
2241.00,97.07
2240.00,97.14
2239.00,97.25
2238.00,97.39
2237.00,97.56
2236.00,97.74
2235.00,97.91
2234.00,98.09
2233.00,98.25
2232.00,98.37
2231.00,98.43
2230.00,98.44
2229.00,98.46
2228.00,98.51
2227.00,98.58
2226.00,98.64
2225.00,98.68
2224.00,98.70
2223.00,98.72
2222.00,98.72
2221.00,98.72
2220.00,98.72
2219.00,98.74
2218.00,98.77
2217.00,98.78
2216.00,98.76
2215.00,98.73
2214.00,98.71
2213.00,98.73
2212.00,98.78
2211.00,98.84
2210.00,98.86
2209.00,98.83
2208.00,98.76
2207.00,98.71
2206.00,98.72
2205.00,98.77
2204.00,98.85
2203.00,98.94
2202.00,99.00
2201.00,99.00
2200.00,98.94
2199.00,98.82
2198.00,98.72
2197.00,98.68
2196.00,98.69
2195.00,98.71
2194.00,98.73
2193.00,98.73
2192.00,98.75
2191.00,98.78
2190.00,98.82
2189.00,98.89
2188.00,98.94
2187.00,98.96
2186.00,98.95
2185.00,98.92
2184.00,98.91
2183.00,98.91
2182.00,98.92
2181.00,98.93
2180.00,98.95
2179.00,98.97
2178.00,98.97
2177.00,98.94
2176.00,98.89
2175.00,98.86
2174.00,98.86
2173.00,98.86
2172.00,98.87
2171.00,98.87
2170.00,98.86
2169.00,98.84
2168.00,98.81
2167.00,98.78
2166.00,98.78
2165.00,98.81
2164.00,98.86
2163.00,98.93
2162.00,99.02
2161.00,99.08
2160.00,99.11
2159.00,99.14
2158.00,99.17
2157.00,99.19
2156.00,99.17
2155.00,99.13
2154.00,99.10
2153.00,99.07
2152.00,99.02
2151.00,98.94
2150.00,98.89
2149.00,98.90
2148.00,98.96
2147.00,99.03
2146.00,99.09
2145.00,99.15
2144.00,99.18
2143.00,99.17
2142.00,99.15
2141.00,99.12
2140.00,99.12
2139.00,99.12
2138.00,99.11
2137.00,99.08
2136.00,99.06
2135.00,99.05
2134.00,99.05
2133.00,99.03
2132.00,99.00
2131.00,98.96
2130.00,98.93
2129.00,98.90
2128.00,98.89
2127.00,98.88
2126.00,98.90
2125.00,98.93
2124.00,98.96
2123.00,98.97
2122.00,98.95
2121.00,98.91
2120.00,98.87
2119.00,98.82
2118.00,98.77
2117.00,98.72
2116.00,98.68
2115.00,98.66
2114.00,98.69
2113.00,98.75
2112.00,98.80
2111.00,98.83
2110.00,98.82
2109.00,98.79
2108.00,98.78
2107.00,98.79
2106.00,98.81
2105.00,98.81
2104.00,98.79
2103.00,98.76
2102.00,98.75
2101.00,98.77
2100.00,98.80
2099.00,98.82
2098.00,98.82
2097.00,98.82
2096.00,98.82
2095.00,98.82
2094.00,98.80
2093.00,98.78
2092.00,98.77
2091.00,98.77
2090.00,98.80
2089.00,98.84
2088.00,98.88
2087.00,98.87
2086.00,98.81
2085.00,98.72
2084.00,98.65
2083.00,98.64
2082.00,98.67
2081.00,98.71
2080.00,98.73
2079.00,98.72
2078.00,98.70
2077.00,98.68
2076.00,98.67
2075.00,98.66
2074.00,98.68
2073.00,98.70
2072.00,98.74
2071.00,98.76
2070.00,98.78
2069.00,98.80
2068.00,98.82
2067.00,98.82
2066.00,98.81
2065.00,98.78
2064.00,98.76
2063.00,98.74
2062.00,98.73
2061.00,98.73
2060.00,98.74
2059.00,98.74
2058.00,98.73
2057.00,98.69
2056.00,98.66
2055.00,98.64
2054.00,98.62
2053.00,98.61
2052.00,98.61
2051.00,98.60
2050.00,98.61
2049.00,98.64
2048.00,98.68
2047.00,98.73
2046.00,98.79
2045.00,98.85
2044.00,98.90
2043.00,98.91
2042.00,98.87
2041.00,98.81
2040.00,98.77
2039.00,98.77
2038.00,98.78
2037.00,98.78
2036.00,98.79
2035.00,98.81
2034.00,98.84
2033.00,98.86
2032.00,98.86
2031.00,98.87
2030.00,98.89
2029.00,98.91
2028.00,98.94
2027.00,98.95
2026.00,98.92
2025.00,98.86
2024.00,98.81
2023.00,98.78
2022.00,98.77
2021.00,98.77
2020.00,98.79
2019.00,98.84
2018.00,98.93
2017.00,99.00
2016.00,99.03
2015.00,99.03
2014.00,99.01
2013.00,98.99
2012.00,98.97
2011.00,98.98
2010.00,98.99
2009.00,98.97
2008.00,98.92
2007.00,98.87
2006.00,98.85
2005.00,98.85
2004.00,98.86
2003.00,98.88
2002.00,98.90
2001.00,98.92
2000.00,98.90
1999.00,98.84
1998.00,98.79
1997.00,98.80
1996.00,98.83
1995.00,98.84
1994.00,98.83
1993.00,98.81
1992.00,98.80
1991.00,98.80
1990.00,98.80
1989.00,98.80
1988.00,98.79
1987.00,98.77
1986.00,98.71
1985.00,98.63
1984.00,98.58
1983.00,98.58
1982.00,98.63
1981.00,98.67
1980.00,98.70
1979.00,98.72
1978.00,98.74
1977.00,98.76
1976.00,98.76
1975.00,98.77
1974.00,98.80
1973.00,98.83
1972.00,98.85
1971.00,98.83
1970.00,98.78
1969.00,98.72
1968.00,98.69
1967.00,98.69
1966.00,98.69
1965.00,98.69
1964.00,98.67
1963.00,98.67
1962.00,98.68
1961.00,98.71
1960.00,98.74
1959.00,98.76
1958.00,98.77
1957.00,98.77
1956.00,98.76
1955.00,98.74
1954.00,98.73
1953.00,98.74
1952.00,98.75
1951.00,98.76
1950.00,98.77
1949.00,98.78
1948.00,98.80
1947.00,98.81
1946.00,98.80
1945.00,98.77
1944.00,98.75
1943.00,98.73
1942.00,98.72
1941.00,98.70
1940.00,98.69
1939.00,98.69
1938.00,98.69
1937.00,98.69
1936.00,98.69
1935.00,98.68
1934.00,98.67
1933.00,98.67
1932.00,98.68
1931.00,98.67
1930.00,98.66
1929.00,98.65
1928.00,98.65
1927.00,98.64
1926.00,98.63
1925.00,98.61
1924.00,98.58
1923.00,98.56
1922.00,98.56
1921.00,98.59
1920.00,98.63
1919.00,98.67
1918.00,98.69
1917.00,98.68
1916.00,98.67
1915.00,98.67
1914.00,98.65
1913.00,98.63
1912.00,98.61
1911.00,98.59
1910.00,98.59
1909.00,98.59
1908.00,98.60
1907.00,98.61
1906.00,98.63
1905.00,98.64
1904.00,98.66
1903.00,98.67
1902.00,98.69
1901.00,98.69
1900.00,98.68
1899.00,98.65
1898.00,98.62
1897.00,98.61
1896.00,98.61
1895.00,98.62
1894.00,98.63
1893.00,98.61
1892.00,98.59
1891.00,98.59
1890.00,98.62
1889.00,98.67
1888.00,98.70
1887.00,98.69
1886.00,98.66
1885.00,98.63
1884.00,98.62
1883.00,98.63
1882.00,98.63
1881.00,98.62
1880.00,98.60
1879.00,98.58
1878.00,98.56
1877.00,98.55
1876.00,98.55
1875.00,98.55
1874.00,98.57
1873.00,98.59
1872.00,98.60
1871.00,98.60
1870.00,98.58
1869.00,98.56
1868.00,98.55
1867.00,98.54
1866.00,98.54
1865.00,98.55
1864.00,98.56
1863.00,98.56
1862.00,98.56
1861.00,98.57
1860.00,98.59
1859.00,98.61
1858.00,98.63
1857.00,98.65
1856.00,98.65
1855.00,98.63
1854.00,98.60
1853.00,98.57
1852.00,98.56
1851.00,98.56
1850.00,98.56
1849.00,98.57
1848.00,98.58
1847.00,98.59
1846.00,98.59
1845.00,98.58
1844.00,98.57
1843.00,98.55
1842.00,98.54
1841.00,98.54
1840.00,98.55
1839.00,98.56
1838.00,98.56
1837.00,98.56
1836.00,98.55
1835.00,98.52
1834.00,98.51
1833.00,98.51
1832.00,98.54
1831.00,98.57
1830.00,98.59
1829.00,98.59
1828.00,98.57
1827.00,98.56
1826.00,98.54
1825.00,98.54
1824.00,98.54
1823.00,98.55
1822.00,98.56
1821.00,98.56
1820.00,98.56
1819.00,98.57
1818.00,98.57
1817.00,98.57
1816.00,98.56
1815.00,98.54
1814.00,98.53
1813.00,98.53
1812.00,98.54
1811.00,98.55
1810.00,98.56
1809.00,98.56
1808.00,98.56
1807.00,98.54
1806.00,98.53
1805.00,98.52
1804.00,98.52
1803.00,98.52
1802.00,98.52
1801.00,98.51
1800.00,98.51
1799.00,98.51
1798.00,98.50
1797.00,98.49
1796.00,98.49
1795.00,98.50
1794.00,98.53
1793.00,98.56
1792.00,98.57
1791.00,98.57
1790.00,98.56
1789.00,98.54
1788.00,98.53
1787.00,98.53
1786.00,98.52
1785.00,98.52
1784.00,98.51
1783.00,98.51
1782.00,98.49
1781.00,98.49
1780.00,98.49
1779.00,98.49
1778.00,98.50
1777.00,98.52
1776.00,98.54
1775.00,98.55
1774.00,98.56
1773.00,98.55
1772.00,98.54
1771.00,98.53
1770.00,98.52
1769.00,98.51
1768.00,98.50
1767.00,98.49
1766.00,98.48
1765.00,98.48
1764.00,98.48
1763.00,98.48
1762.00,98.48
1761.00,98.48
1760.00,98.47
1759.00,98.45
1758.00,98.43
1757.00,98.40
1756.00,98.39
1755.00,98.39
1754.00,98.40
1753.00,98.41
1752.00,98.42
1751.00,98.42
1750.00,98.40
1749.00,98.38
1748.00,98.34
1747.00,98.31
1746.00,98.29
1745.00,98.27
1744.00,98.25
1743.00,98.22
1742.00,98.19
1741.00,98.16
1740.00,98.13
1739.00,98.11
1738.00,98.10
1737.00,98.09
1736.00,98.07
1735.00,98.04
1734.00,98.02
1733.00,98.01
1732.00,98.00
1731.00,98.00
1730.00,98.00
1729.00,98.00
1728.00,98.00
1727.00,98.00
1726.00,98.01
1725.00,98.01
1724.00,98.02
1723.00,98.04
1722.00,98.05
1721.00,98.06
1720.00,98.06
1719.00,98.07
1718.00,98.08
1717.00,98.10
1716.00,98.11
1715.00,98.11
1714.00,98.12
1713.00,98.12
1712.00,98.13
1711.00,98.14
1710.00,98.14
1709.00,98.14
1708.00,98.14
1707.00,98.14
1706.00,98.13
1705.00,98.14
1704.00,98.15
1703.00,98.18
1702.00,98.22
1701.00,98.26
1700.00,98.29
1699.00,98.28
1698.00,98.27
1697.00,98.26
1696.00,98.26
1695.00,98.28
1694.00,98.29
1693.00,98.31
1692.00,98.32
1691.00,98.32
1690.00,98.31
1689.00,98.30
1688.00,98.28
1687.00,98.26
1686.00,98.26
1685.00,98.26
1684.00,98.26
1683.00,98.27
1682.00,98.28
1681.00,98.29
1680.00,98.30
1679.00,98.31
1678.00,98.32
1677.00,98.34
1676.00,98.35
1675.00,98.34
1674.00,98.32
1673.00,98.32
1672.00,98.32
1671.00,98.33
1670.00,98.33
1669.00,98.31
1668.00,98.29
1667.00,98.29
1666.00,98.29
1665.00,98.29
1664.00,98.29
1663.00,98.29
1662.00,98.29
1661.00,98.29
1660.00,98.27
1659.00,98.27
1658.00,98.27
1657.00,98.28
1656.00,98.29
1655.00,98.30
1654.00,98.28
1653.00,98.25
1652.00,98.21
1651.00,98.20
1650.00,98.20
1649.00,98.20
1648.00,98.19
1647.00,98.17
1646.00,98.15
1645.00,98.15
1644.00,98.15
1643.00,98.14
1642.00,98.14
1641.00,98.13
1640.00,98.13
1639.00,98.13
1638.00,98.13
1637.00,98.14
1636.00,98.15
1635.00,98.13
1634.00,98.11
1633.00,98.08
1632.00,98.05
1631.00,98.03
1630.00,98.02
1629.00,98.01
1628.00,98.01
1627.00,98.01
1626.00,98.01
1625.00,98.00
1624.00,98.00
1623.00,98.01
1622.00,98.01
1621.00,98.01
1620.00,98.00
1619.00,98.00
1618.00,98.01
1617.00,98.03
1616.00,98.04
1615.00,98.04
1614.00,98.04
1613.00,98.05
1612.00,98.05
1611.00,98.06
1610.00,98.08
1609.00,98.10
1608.00,98.11
1607.00,98.11
1606.00,98.11
1605.00,98.10
1604.00,98.10
1603.00,98.11
1602.00,98.12
1601.00,98.14
1600.00,98.16
1599.00,98.18
1598.00,98.20
1597.00,98.21
1596.00,98.23
1595.00,98.23
1594.00,98.24
1593.00,98.24
1592.00,98.25
1591.00,98.25
1590.00,98.26
1589.00,98.27
1588.00,98.27
1587.00,98.28
1586.00,98.28
1585.00,98.28
1584.00,98.27
1583.00,98.27
1582.00,98.28
1581.00,98.29
1580.00,98.29
1579.00,98.29
1578.00,98.28
1577.00,98.27
1576.00,98.27
1575.00,98.28
1574.00,98.30
1573.00,98.32
1572.00,98.32
1571.00,98.31
1570.00,98.30
1569.00,98.29
1568.00,98.28
1567.00,98.29
1566.00,98.29
1565.00,98.29
1564.00,98.29
1563.00,98.29
1562.00,98.28
1561.00,98.26
1560.00,98.24
1559.00,98.23
1558.00,98.25
1557.00,98.28
1556.00,98.29
1555.00,98.28
1554.00,98.28
1553.00,98.28
1552.00,98.29
1551.00,98.29
1550.00,98.28
1549.00,98.27
1548.00,98.27
1547.00,98.26
1546.00,98.26
1545.00,98.26
1544.00,98.26
1543.00,98.28
1542.00,98.30
1541.00,98.30
1540.00,98.30
1539.00,98.30
1538.00,98.31
1537.00,98.32
1536.00,98.32
1535.00,98.31
1534.00,98.30
1533.00,98.28
1532.00,98.27
1531.00,98.28
1530.00,98.29
1529.00,98.31
1528.00,98.31
1527.00,98.30
1526.00,98.29
1525.00,98.28
1524.00,98.28
1523.00,98.28
1522.00,98.29
1521.00,98.29
1520.00,98.29
1519.00,98.28
1518.00,98.27
1517.00,98.27
1516.00,98.27
1515.00,98.27
1514.00,98.28
1513.00,98.28
1512.00,98.28
1511.00,98.27
1510.00,98.27
1509.00,98.27
1508.00,98.27
1507.00,98.27
1506.00,98.27
1505.00,98.27
1504.00,98.27
1503.00,98.26
1502.00,98.25
1501.00,98.24
1500.00,98.24
1499.00,98.25
1498.00,98.25
1497.00,98.26
1496.00,98.26
1495.00,98.25
1494.00,98.24
1493.00,98.23
1492.00,98.21
1491.00,98.21
1490.00,98.21
1489.00,98.21
1488.00,98.21
1487.00,98.20
1486.00,98.20
1485.00,98.19
1484.00,98.19
1483.00,98.20
1482.00,98.20
1481.00,98.20
1480.00,98.19
1479.00,98.18
1478.00,98.17
1477.00,98.17
1476.00,98.16
1475.00,98.15
1474.00,98.15
1473.00,98.14
1472.00,98.14
1471.00,98.15
1470.00,98.15
1469.00,98.15
1468.00,98.13
1467.00,98.11
1466.00,98.07
1465.00,98.03
1464.00,97.98
1463.00,97.93
1462.00,97.86
1461.00,97.78
1460.00,97.68
1459.00,97.55
1458.00,97.38
1457.00,97.18
1456.00,96.99
1455.00,96.84
1454.00,96.71
1453.00,96.57
1452.00,96.43
1451.00,96.29
1450.00,96.15
1449.00,96.00
1448.00,95.85
1447.00,95.72
1446.00,95.61
1445.00,95.51
1444.00,95.40
1443.00,95.30
1442.00,95.20
1441.00,95.13
1440.00,95.09
1439.00,95.07
1438.00,95.09
1437.00,95.14
1436.00,95.22
1435.00,95.31
1434.00,95.41
1433.00,95.50
1432.00,95.62
1431.00,95.76
1430.00,95.92
1429.00,96.07
1428.00,96.20
1427.00,96.33
1426.00,96.45
1425.00,96.58
1424.00,96.71
1423.00,96.82
1422.00,96.90
1421.00,96.97
1420.00,97.05
1419.00,97.15
1418.00,97.24
1417.00,97.31
1416.00,97.37
1415.00,97.43
1414.00,97.49
1413.00,97.54
1412.00,97.59
1411.00,97.64
1410.00,97.68
1409.00,97.71
1408.00,97.73
1407.00,97.75
1406.00,97.75
1405.00,97.76
1404.00,97.78
1403.00,97.81
1402.00,97.82
1401.00,97.83
1400.00,97.82
1399.00,97.80
1398.00,97.77
1397.00,97.73
1396.00,97.70
1395.00,97.67
1394.00,97.64
1393.00,97.62
1392.00,97.60
1391.00,97.58
1390.00,97.55
1389.00,97.53
1388.00,97.52
1387.00,97.52
1386.00,97.51
1385.00,97.51
1384.00,97.50
1383.00,97.50
1382.00,97.48
1381.00,97.46
1380.00,97.44
1379.00,97.42
1378.00,97.40
1377.00,97.37
1376.00,97.35
1375.00,97.32
1374.00,97.29
1373.00,97.26
1372.00,97.22
1371.00,97.19
1370.00,97.14
1369.00,97.09
1368.00,97.04
1367.00,97.00
1366.00,96.96
1365.00,96.93
1364.00,96.90
1363.00,96.86
1362.00,96.83
1361.00,96.80
1360.00,96.77
1359.00,96.74
1358.00,96.72
1357.00,96.70
1356.00,96.68
1355.00,96.66
1354.00,96.65
1353.00,96.65
1352.00,96.66
1351.00,96.67
1350.00,96.69
1349.00,96.71
1348.00,96.72
1347.00,96.75
1346.00,96.79
1345.00,96.82
1344.00,96.85
1343.00,96.86
1342.00,96.86
1341.00,96.86
1340.00,96.86
1339.00,96.87
1338.00,96.88
1337.00,96.89
1336.00,96.89
1335.00,96.89
1334.00,96.89
1333.00,96.89
1332.00,96.88
1331.00,96.86
1330.00,96.84
1329.00,96.82
1328.00,96.81
1327.00,96.81
1326.00,96.80
1325.00,96.78
1324.00,96.76
1323.00,96.74
1322.00,96.74
1321.00,96.74
1320.00,96.74
1319.00,96.74
1318.00,96.74
1317.00,96.75
1316.00,96.76
1315.00,96.76
1314.00,96.76
1313.00,96.74
1312.00,96.72
1311.00,96.69
1310.00,96.65
1309.00,96.61
1308.00,96.57
1307.00,96.54
1306.00,96.52
1305.00,96.52
1304.00,96.53
1303.00,96.54
1302.00,96.54
1301.00,96.55
1300.00,96.55
1299.00,96.55
1298.00,96.54
1297.00,96.52
1296.00,96.51
1295.00,96.49
1294.00,96.47
1293.00,96.46
1292.00,96.45
1291.00,96.44
1290.00,96.43
1289.00,96.40
1288.00,96.38
1287.00,96.37
1286.00,96.39
1285.00,96.41
1284.00,96.42
1283.00,96.41
1282.00,96.40
1281.00,96.38
1280.00,96.36
1279.00,96.34
1278.00,96.34
1277.00,96.34
1276.00,96.35
1275.00,96.35
1274.00,96.34
1273.00,96.33
1272.00,96.30
1271.00,96.27
1270.00,96.23
1269.00,96.17
1268.00,96.10
1267.00,96.03
1266.00,95.98
1265.00,95.94
1264.00,95.90
1263.00,95.86
1262.00,95.82
1261.00,95.77
1260.00,95.74
1259.00,95.72
1258.00,95.72
1257.00,95.71
1256.00,95.70
1255.00,95.69
1254.00,95.69
1253.00,95.70
1252.00,95.71
1251.00,95.71
1250.00,95.73
1249.00,95.74
1248.00,95.76
1247.00,95.76
1246.00,95.75
1245.00,95.74
1244.00,95.74
1243.00,95.74
1242.00,95.75
1241.00,95.74
1240.00,95.74
1239.00,95.75
1238.00,95.77
1237.00,95.80
1236.00,95.84
1235.00,95.88
1234.00,95.92
1233.00,95.95
1232.00,95.99
1231.00,96.02
1230.00,96.06
1229.00,96.09
1228.00,96.12
1227.00,96.13
1226.00,96.13
1225.00,96.12
1224.00,96.11
1223.00,96.10
1222.00,96.09
1221.00,96.07
1220.00,96.05
1219.00,96.02
1218.00,95.99
1217.00,95.96
1216.00,95.94
1215.00,95.93
1214.00,95.92
1213.00,95.89
1212.00,95.87
1211.00,95.85
1210.00,95.85
1209.00,95.86
1208.00,95.87
1207.00,95.88
1206.00,95.90
1205.00,95.92
1204.00,95.94
1203.00,95.97
1202.00,96.01
1201.00,96.05
1200.00,96.08
1199.00,96.12
1198.00,96.15
1197.00,96.16
1196.00,96.17
1195.00,96.16
1194.00,96.16
1193.00,96.17
1192.00,96.18
1191.00,96.18
1190.00,96.19
1189.00,96.21
1188.00,96.24
1187.00,96.26
1186.00,96.28
1185.00,96.28
1184.00,96.28
1183.00,96.28
1182.00,96.30
1181.00,96.32
1180.00,96.35
1179.00,96.38
1178.00,96.40
1177.00,96.42
1176.00,96.42
1175.00,96.42
1174.00,96.42
1173.00,96.44
1172.00,96.46
1171.00,96.48
1170.00,96.51
1169.00,96.54
1168.00,96.58
1167.00,96.63
1166.00,96.67
1165.00,96.72
1164.00,96.74
1163.00,96.74
1162.00,96.72
1161.00,96.71
1160.00,96.72
1159.00,96.75
1158.00,96.79
1157.00,96.82
1156.00,96.84
1155.00,96.84
1154.00,96.84
1153.00,96.83
1152.00,96.85
1151.00,96.88
1150.00,96.93
1149.00,96.98
1148.00,97.01
1147.00,97.03
1146.00,97.04
1145.00,97.05
1144.00,97.06
1143.00,97.07
1142.00,97.09
1141.00,97.11
1140.00,97.13
1139.00,97.14
1138.00,97.14
1137.00,97.14
1136.00,97.14
1135.00,97.15
1134.00,97.15
1133.00,97.14
1132.00,97.11
1131.00,97.07
1130.00,97.03
1129.00,97.00
1128.00,97.00
1127.00,96.99
1126.00,96.95
1125.00,96.89
1124.00,96.82
1123.00,96.76
1122.00,96.72
1121.00,96.69
1120.00,96.66
1119.00,96.62
1118.00,96.58
1117.00,96.55
1116.00,96.52
1115.00,96.50
1114.00,96.48
1113.00,96.45
1112.00,96.43
1111.00,96.42
1110.00,96.41
1109.00,96.38
1108.00,96.35
1107.00,96.31
1106.00,96.29
1105.00,96.28
1104.00,96.26
1103.00,96.24
1102.00,96.22
1101.00,96.22
1100.00,96.23
1099.00,96.25
1098.00,96.25
1097.00,96.23
1096.00,96.22
1095.00,96.21
1094.00,96.20
1093.00,96.19
1092.00,96.20
1091.00,96.23
1090.00,96.27
1089.00,96.31
1088.00,96.34
1087.00,96.35
1086.00,96.36
1085.00,96.37
1084.00,96.37
1083.00,96.38
1082.00,96.41
1081.00,96.44
1080.00,96.45
1079.00,96.43
1078.00,96.40
1077.00,96.38
1076.00,96.37
1075.00,96.38
1074.00,96.39
1073.00,96.39
1072.00,96.36
1071.00,96.35
1070.00,96.35
1069.00,96.35
1068.00,96.33
1067.00,96.31
1066.00,96.29
1065.00,96.28
1064.00,96.26
1063.00,96.23
1062.00,96.20
1061.00,96.19
1060.00,96.19
1059.00,96.20
1058.00,96.20
1057.00,96.20
1056.00,96.18
1055.00,96.17
1054.00,96.15
1053.00,96.13
1052.00,96.11
1051.00,96.09
1050.00,96.08
1049.00,96.08
1048.00,96.08
1047.00,96.08
1046.00,96.06
1045.00,96.02
1044.00,95.96
1043.00,95.91
1042.00,95.87
1041.00,95.84
1040.00,95.82
1039.00,95.80
1038.00,95.78
1037.00,95.78
1036.00,95.79
1035.00,95.81
1034.00,95.84
1033.00,95.89
1032.00,95.95
1031.00,96.01
1030.00,96.06
1029.00,96.09
1028.00,96.11
1027.00,96.11
1026.00,96.11
1025.00,96.09
1024.00,96.10
1023.00,96.13
1022.00,96.16
1021.00,96.18
1020.00,96.18
1019.00,96.16
1018.00,96.14
1017.00,96.12
1016.00,96.10
1015.00,96.06
1014.00,96.01
1013.00,95.94
1012.00,95.89
1011.00,95.87
1010.00,95.86
1009.00,95.86
1008.00,95.85
1007.00,95.84
1006.00,95.82
1005.00,95.79
1004.00,95.78
1003.00,95.77
1002.00,95.77
1001.00,95.78
1000.00,95.78
999.00,95.77
998.00,95.75
997.00,95.74
996.00,95.73
995.00,95.73
994.00,95.74
993.00,95.73
992.00,95.73
991.00,95.74
990.00,95.76
989.00,95.80
988.00,95.83
987.00,95.84
986.00,95.84
985.00,95.84
984.00,95.84
983.00,95.85
982.00,95.87
981.00,95.89
980.00,95.91
979.00,95.93
978.00,95.95
977.00,95.97
976.00,95.98
975.00,95.99
974.00,96.01
973.00,96.01
972.00,95.99
971.00,95.99
970.00,96.01
969.00,96.05
968.00,96.08
967.00,96.10
966.00,96.09
965.00,96.08
964.00,96.08
963.00,96.10
962.00,96.13
961.00,96.15
960.00,96.14
959.00,96.11
958.00,96.08
957.00,96.06
956.00,96.06
955.00,96.07
954.00,96.09
953.00,96.10
952.00,96.08
951.00,96.05
950.00,96.05
949.00,96.08
948.00,96.12
947.00,96.16
946.00,96.19
945.00,96.20
944.00,96.23
943.00,96.26
942.00,96.29
941.00,96.32
940.00,96.34
939.00,96.36
938.00,96.38
937.00,96.38
936.00,96.38
935.00,96.37
934.00,96.36
933.00,96.36
932.00,96.35
931.00,96.35
930.00,96.36
929.00,96.38
928.00,96.40
927.00,96.41
926.00,96.41
925.00,96.39
924.00,96.38
923.00,96.38
922.00,96.37
921.00,96.36
920.00,96.35
919.00,96.36
918.00,96.39
917.00,96.42
916.00,96.42
915.00,96.40
914.00,96.39
913.00,96.39
912.00,96.39
911.00,96.40
910.00,96.40
909.00,96.40
908.00,96.40
907.00,96.38
906.00,96.37
905.00,96.36
904.00,96.38
903.00,96.40
902.00,96.41
901.00,96.42
900.00,96.42
899.00,96.44
898.00,96.48
897.00,96.52
896.00,96.53
895.00,96.50
894.00,96.46
893.00,96.43
892.00,96.43
891.00,96.45
890.00,96.47
889.00,96.48
888.00,96.48
887.00,96.49
886.00,96.50
885.00,96.51
884.00,96.52
883.00,96.52
882.00,96.52
881.00,96.51
880.00,96.50
879.00,96.51
878.00,96.53
877.00,96.53
876.00,96.51
875.00,96.48
874.00,96.45
873.00,96.46
872.00,96.49
871.00,96.53
870.00,96.55
869.00,96.56
868.00,96.55
867.00,96.53
866.00,96.52
865.00,96.53
864.00,96.54
863.00,96.55
862.00,96.56
861.00,96.58
860.00,96.61
859.00,96.64
858.00,96.64
857.00,96.62
856.00,96.58
855.00,96.54
854.00,96.52
853.00,96.51
852.00,96.51
851.00,96.52
850.00,96.51
849.00,96.51
848.00,96.52
847.00,96.54
846.00,96.58
845.00,96.61
844.00,96.65
843.00,96.68
842.00,96.70
841.00,96.73
840.00,96.74
839.00,96.75
838.00,96.75
837.00,96.76
836.00,96.78
835.00,96.81
834.00,96.82
833.00,96.81
832.00,96.79
831.00,96.80
830.00,96.83
829.00,96.86
828.00,96.88
827.00,96.86
826.00,96.84
825.00,96.81
824.00,96.80
823.00,96.80
822.00,96.79
821.00,96.76
820.00,96.73
819.00,96.71
818.00,96.68
817.00,96.67
816.00,96.66
815.00,96.65
814.00,96.67
813.00,96.68
812.00,96.70
811.00,96.71
810.00,96.72
809.00,96.73
808.00,96.72
807.00,96.70
806.00,96.67
805.00,96.63
804.00,96.60
803.00,96.57
802.00,96.54
801.00,96.52
800.00,96.53
799.00,96.55
798.00,96.58
797.00,96.59
796.00,96.58
795.00,96.55
794.00,96.52
793.00,96.48
792.00,96.45
791.00,96.44
790.00,96.45
789.00,96.48
788.00,96.51
787.00,96.52
786.00,96.52
785.00,96.51
784.00,96.51
783.00,96.49
782.00,96.46
781.00,96.41
780.00,96.38
779.00,96.37
778.00,96.37
777.00,96.38
776.00,96.39
775.00,96.42
774.00,96.46
773.00,96.47
772.00,96.46
771.00,96.43
770.00,96.42
769.00,96.43
768.00,96.46
767.00,96.47
766.00,96.48
765.00,96.47
764.00,96.46
763.00,96.48
762.00,96.52
761.00,96.58
760.00,96.63
759.00,96.64
758.00,96.64
757.00,96.65
756.00,96.70
755.00,96.77
754.00,96.80
753.00,96.79
752.00,96.74
751.00,96.69
750.00,96.64
749.00,96.62
748.00,96.64
747.00,96.72
746.00,96.81
745.00,96.86
744.00,96.86
743.00,96.84
742.00,96.87
741.00,96.93
740.00,96.97
739.00,96.96
738.00,96.92
737.00,96.88
736.00,96.83
735.00,96.80
734.00,96.80
733.00,96.82
732.00,96.85
731.00,96.87
730.00,96.88
729.00,96.86
728.00,96.84
727.00,96.84
726.00,96.87
725.00,96.92
724.00,96.97
723.00,96.98
722.00,96.96
721.00,96.93
720.00,96.90
719.00,96.89
718.00,96.90
717.00,96.89
716.00,96.82
715.00,96.72
714.00,96.62
713.00,96.56
712.00,96.52
711.00,96.48
710.00,96.44
709.00,96.38
708.00,96.29
707.00,96.19
706.00,96.10
705.00,96.04
704.00,96.02
703.00,96.01
702.00,95.97
701.00,95.88
700.00,95.75
699.00,95.60
698.00,95.50
697.00,95.47
696.00,95.51
695.00,95.58
694.00,95.64
693.00,95.68
692.00,95.69
691.00,95.68
690.00,95.65
689.00,95.62
688.00,95.61
687.00,95.61
686.00,95.61
685.00,95.60
684.00,95.59
683.00,95.57
682.00,95.55
681.00,95.54
680.00,95.56
679.00,95.60
678.00,95.63
677.00,95.64
676.00,95.66
675.00,95.68
674.00,95.73
673.00,95.78
672.00,95.82
671.00,95.85
670.00,95.87
669.00,95.84
668.00,95.74
667.00,95.63
666.00,95.60
665.00,95.62
664.00,95.61
663.00,95.55
662.00,95.48
661.00,95.44
660.00,95.44
659.00,95.44
658.00,95.42
657.00,95.38
656.00,95.35
655.00,95.30
654.00,95.23
653.00,95.16
652.00,95.10
651.00,95.09
650.00,95.09
649.00,95.03
648.00,94.85
647.00,94.60
646.00,94.40
645.00,94.26
644.00,94.17
643.00,94.06
642.00,93.91
641.00,93.75
640.00,93.61
639.00,93.52
638.00,93.45
637.00,93.37
636.00,93.23
635.00,93.06
634.00,92.92
633.00,92.81
632.00,92.71
631.00,92.66
630.00,92.65
629.00,92.65
628.00,92.56
627.00,92.41
626.00,92.30
625.00,92.27
624.00,92.24
623.00,92.14
622.00,92.05
621.00,92.09
620.00,92.26
619.00,92.41
618.00,92.41
617.00,92.26
616.00,92.02
615.00,91.81
614.00,91.71
613.00,91.74
612.00,91.80
611.00,91.81
610.00,91.82
609.00,91.90
608.00,92.02
607.00,92.09
606.00,92.19
605.00,92.29
604.00,91.93
603.00,90.42
602.00,87.91
601.00,85.79
600.00,85.59
599.00,87.61
598.00,90.47
597.00,92.51
596.00,93.34
595.00,93.60
594.00,93.82
593.00,93.93
592.00,93.83
591.00,93.71
590.00,93.82
589.00,94.06
588.00,94.19
587.00,94.08
586.00,93.76
585.00,93.43
584.00,93.36
583.00,93.74
582.00,94.32
581.00,94.49
580.00,93.97
579.00,93.17
578.00,92.71
577.00,92.73
576.00,93.06
575.00,93.63
574.00,94.42
573.00,95.18
572.00,95.55
571.00,95.46
570.00,95.25
569.00,95.22
568.00,95.39
567.00,95.59
566.00,95.70
565.00,95.66
564.00,95.42
563.00,95.05
562.00,94.74
561.00,94.72
560.00,95.02
559.00,95.47
558.00,95.79
557.00,95.71
556.00,95.19
555.00,94.46
554.00,93.92
553.00,93.79
552.00,93.89
551.00,93.90
550.00,93.69
