Created as New Dataset,59 Modacrylic Hoechst Dolan 88 
cm-1,%T
4000.00,98.60
3999.00,98.59
3998.00,98.57
3997.00,98.55
3996.00,98.54
3995.00,98.54
3994.00,98.54
3993.00,98.54
3992.00,98.54
3991.00,98.54
3990.00,98.56
3989.00,98.58
3988.00,98.60
3987.00,98.60
3986.00,98.59
3985.00,98.57
3984.00,98.56
3983.00,98.55
3982.00,98.55
3981.00,98.55
3980.00,98.55
3979.00,98.54
3978.00,98.53
3977.00,98.53
3976.00,98.53
3975.00,98.53
3974.00,98.54
3973.00,98.54
3972.00,98.56
3971.00,98.57
3970.00,98.58
3969.00,98.59
3968.00,98.59
3967.00,98.59
3966.00,98.60
3965.00,98.62
3964.00,98.63
3963.00,98.64
3962.00,98.65
3961.00,98.65
3960.00,98.63
3959.00,98.60
3958.00,98.58
3957.00,98.56
3956.00,98.56
3955.00,98.57
3954.00,98.57
3953.00,98.57
3952.00,98.57
3951.00,98.57
3950.00,98.56
3949.00,98.56
3948.00,98.56
3947.00,98.55
3946.00,98.55
3945.00,98.54
3944.00,98.55
3943.00,98.56
3942.00,98.56
3941.00,98.54
3940.00,98.51
3939.00,98.50
3938.00,98.51
3937.00,98.54
3936.00,98.56
3935.00,98.56
3934.00,98.55
3933.00,98.53
3932.00,98.52
3931.00,98.51
3930.00,98.50
3929.00,98.48
3928.00,98.47
3927.00,98.46
3926.00,98.48
3925.00,98.51
3924.00,98.54
3923.00,98.56
3922.00,98.57
3921.00,98.57
3920.00,98.57
3919.00,98.57
3918.00,98.56
3917.00,98.55
3916.00,98.56
3915.00,98.58
3914.00,98.60
3913.00,98.60
3912.00,98.61
3911.00,98.61
3910.00,98.61
3909.00,98.60
3908.00,98.60
3907.00,98.58
3906.00,98.57
3905.00,98.56
3904.00,98.57
3903.00,98.57
3902.00,98.55
3901.00,98.52
3900.00,98.50
3899.00,98.50
3898.00,98.51
3897.00,98.52
3896.00,98.53
3895.00,98.53
3894.00,98.52
3893.00,98.52
3892.00,98.52
3891.00,98.55
3890.00,98.57
3889.00,98.55
3888.00,98.50
3887.00,98.47
3886.00,98.50
3885.00,98.55
3884.00,98.57
3883.00,98.54
3882.00,98.50
3881.00,98.49
3880.00,98.49
3879.00,98.48
3878.00,98.46
3877.00,98.43
3876.00,98.43
3875.00,98.47
3874.00,98.53
3873.00,98.54
3872.00,98.50
3871.00,98.47
3870.00,98.50
3869.00,98.55
3868.00,98.55
3867.00,98.49
3866.00,98.46
3865.00,98.47
3864.00,98.50
3863.00,98.50
3862.00,98.48
3861.00,98.47
3860.00,98.48
3859.00,98.52
3858.00,98.55
3857.00,98.58
3856.00,98.60
3855.00,98.60
3854.00,98.60
3853.00,98.59
3852.00,98.54
3851.00,98.48
3850.00,98.45
3849.00,98.46
3848.00,98.50
3847.00,98.54
3846.00,98.55
3845.00,98.55
3844.00,98.54
3843.00,98.54
3842.00,98.53
3841.00,98.50
3840.00,98.47
3839.00,98.45
3838.00,98.45
3837.00,98.45
3836.00,98.44
3835.00,98.42
3834.00,98.40
3833.00,98.39
3832.00,98.41
3831.00,98.43
3830.00,98.44
3829.00,98.43
3828.00,98.42
3827.00,98.44
3826.00,98.47
3825.00,98.49
3824.00,98.47
3823.00,98.44
3822.00,98.45
3821.00,98.51
3820.00,98.54
3819.00,98.50
3818.00,98.41
3817.00,98.38
3816.00,98.42
3815.00,98.49
3814.00,98.51
3813.00,98.50
3812.00,98.51
3811.00,98.52
3810.00,98.50
3809.00,98.46
3808.00,98.42
3807.00,98.44
3806.00,98.47
3805.00,98.46
3804.00,98.41
3803.00,98.38
3802.00,98.41
3801.00,98.47
3800.00,98.48
3799.00,98.42
3798.00,98.37
3797.00,98.38
3796.00,98.43
3795.00,98.46
3794.00,98.44
3793.00,98.41
3792.00,98.39
3791.00,98.41
3790.00,98.43
3789.00,98.45
3788.00,98.46
3787.00,98.45
3786.00,98.43
3785.00,98.43
3784.00,98.43
3783.00,98.43
3782.00,98.41
3781.00,98.39
3780.00,98.38
3779.00,98.39
3778.00,98.40
3777.00,98.40
3776.00,98.41
3775.00,98.43
3774.00,98.45
3773.00,98.45
3772.00,98.43
3771.00,98.42
3770.00,98.42
3769.00,98.43
3768.00,98.41
3767.00,98.39
3766.00,98.38
3765.00,98.40
3764.00,98.42
3763.00,98.41
3762.00,98.38
3761.00,98.38
3760.00,98.41
3759.00,98.44
3758.00,98.45
3757.00,98.46
3756.00,98.46
3755.00,98.45
3754.00,98.43
3753.00,98.43
3752.00,98.43
3751.00,98.40
3750.00,98.37
3749.00,98.36
3748.00,98.35
3747.00,98.32
3746.00,98.30
3745.00,98.33
3744.00,98.39
3743.00,98.38
3742.00,98.33
3741.00,98.29
3740.00,98.31
3739.00,98.37
3738.00,98.40
3737.00,98.42
3736.00,98.42
3735.00,98.41
3734.00,98.38
3733.00,98.36
3732.00,98.38
3731.00,98.41
3730.00,98.41
3729.00,98.38
3728.00,98.35
3727.00,98.35
3726.00,98.36
3725.00,98.35
3724.00,98.31
3723.00,98.27
3722.00,98.24
3721.00,98.23
3720.00,98.23
3719.00,98.23
3718.00,98.24
3717.00,98.27
3716.00,98.29
3715.00,98.31
3714.00,98.32
3713.00,98.34
3712.00,98.35
3711.00,98.35
3710.00,98.32
3709.00,98.30
3708.00,98.29
3707.00,98.31
3706.00,98.33
3705.00,98.33
3704.00,98.32
3703.00,98.30
3702.00,98.31
3701.00,98.33
3700.00,98.34
3699.00,98.32
3698.00,98.30
3697.00,98.31
3696.00,98.34
3695.00,98.38
3694.00,98.41
3693.00,98.42
3692.00,98.40
3691.00,98.35
3690.00,98.30
3689.00,98.27
3688.00,98.27
3687.00,98.28
3686.00,98.28
3685.00,98.28
3684.00,98.28
3683.00,98.27
3682.00,98.25
3681.00,98.23
3680.00,98.23
3679.00,98.24
3678.00,98.22
3677.00,98.20
3676.00,98.21
3675.00,98.25
3674.00,98.26
3673.00,98.20
3672.00,98.12
3671.00,98.11
3670.00,98.14
3669.00,98.15
3668.00,98.13
3667.00,98.10
3666.00,98.10
3665.00,98.13
3664.00,98.17
3663.00,98.19
3662.00,98.19
3661.00,98.19
3660.00,98.19
3659.00,98.17
3658.00,98.15
3657.00,98.14
3656.00,98.16
3655.00,98.18
3654.00,98.16
3653.00,98.12
3652.00,98.07
3651.00,98.05
3650.00,98.03
3649.00,98.00
3648.00,97.98
3647.00,97.99
3646.00,98.01
3645.00,98.02
3644.00,98.02
3643.00,98.02
3642.00,98.02
3641.00,98.02
3640.00,98.02
3639.00,98.03
3638.00,98.05
3637.00,98.07
3636.00,98.08
3635.00,98.10
3634.00,98.13
3633.00,98.14
3632.00,98.11
3631.00,98.04
3630.00,98.00
3629.00,98.01
3628.00,98.02
3627.00,98.00
3626.00,97.97
3625.00,97.97
3624.00,97.99
3623.00,98.01
3622.00,98.00
3621.00,97.98
3620.00,97.96
3619.00,97.98
3618.00,98.00
3617.00,98.00
3616.00,97.98
3615.00,97.96
3614.00,97.96
3613.00,97.96
3612.00,97.95
3611.00,97.93
3610.00,97.90
3609.00,97.90
3608.00,97.91
3607.00,97.94
3606.00,97.95
3605.00,97.97
3604.00,97.99
3603.00,98.00
3602.00,98.02
3601.00,98.03
3600.00,98.03
3599.00,98.02
3598.00,98.01
3597.00,98.00
3596.00,98.00
3595.00,98.01
3594.00,98.03
3593.00,98.04
3592.00,98.06
3591.00,98.06
3590.00,98.04
3589.00,98.02
3588.00,98.01
3587.00,98.02
3586.00,98.03
3585.00,98.04
3584.00,98.04
3583.00,98.03
3582.00,98.01
3581.00,97.99
3580.00,97.99
3579.00,98.02
3578.00,98.05
3577.00,98.08
3576.00,98.09
3575.00,98.09
3574.00,98.07
3573.00,98.05
3572.00,98.03
3571.00,98.00
3570.00,97.97
3569.00,97.95
3568.00,97.96
3567.00,97.99
3566.00,98.03
3565.00,98.06
3564.00,98.07
3563.00,98.06
3562.00,98.06
3561.00,98.06
3560.00,98.07
3559.00,98.09
3558.00,98.11
3557.00,98.12
3556.00,98.10
3555.00,98.07
3554.00,98.04
3553.00,98.03
3552.00,98.04
3551.00,98.05
3550.00,98.04
3549.00,98.01
3548.00,98.00
3547.00,98.00
3546.00,98.03
3545.00,98.06
3544.00,98.10
3543.00,98.12
3542.00,98.12
3541.00,98.10
3540.00,98.07
3539.00,98.05
3538.00,98.04
3537.00,98.05
3536.00,98.05
3535.00,98.05
3534.00,98.04
3533.00,98.04
3532.00,98.05
3531.00,98.07
3530.00,98.07
3529.00,98.07
3528.00,98.05
3527.00,98.04
3526.00,98.04
3525.00,98.03
3524.00,98.03
3523.00,98.03
3522.00,98.03
3521.00,98.03
3520.00,98.02
3519.00,98.02
3518.00,98.01
3517.00,98.01
3516.00,98.00
3515.00,98.00
3514.00,98.00
3513.00,98.01
3512.00,98.02
3511.00,98.04
3510.00,98.06
3509.00,98.09
3508.00,98.12
3507.00,98.12
3506.00,98.11
3505.00,98.08
3504.00,98.05
3503.00,98.03
3502.00,98.02
3501.00,98.04
3500.00,98.08
3499.00,98.13
3498.00,98.17
3497.00,98.18
3496.00,98.16
3495.00,98.14
3494.00,98.13
3493.00,98.13
3492.00,98.15
3491.00,98.15
3490.00,98.14
3489.00,98.12
3488.00,98.11
3487.00,98.10
3486.00,98.11
3485.00,98.12
3484.00,98.13
3483.00,98.13
3482.00,98.13
3481.00,98.12
3480.00,98.11
3479.00,98.10
3478.00,98.10
3477.00,98.09
3476.00,98.09
3475.00,98.09
3474.00,98.09
3473.00,98.09
3472.00,98.09
3471.00,98.09
3470.00,98.09
3469.00,98.09
3468.00,98.10
3467.00,98.13
3466.00,98.16
3465.00,98.18
3464.00,98.18
3463.00,98.16
3462.00,98.15
3461.00,98.13
3460.00,98.13
3459.00,98.15
3458.00,98.16
3457.00,98.16
3456.00,98.14
3455.00,98.11
3454.00,98.10
3453.00,98.10
3452.00,98.12
3451.00,98.13
3450.00,98.13
3449.00,98.10
3448.00,98.08
3447.00,98.06
3446.00,98.07
3445.00,98.08
3444.00,98.10
3443.00,98.12
3442.00,98.13
3441.00,98.13
3440.00,98.12
3439.00,98.11
3438.00,98.11
3437.00,98.12
3436.00,98.14
3435.00,98.15
3434.00,98.16
3433.00,98.16
3432.00,98.15
3431.00,98.15
3430.00,98.14
3429.00,98.15
3428.00,98.15
3427.00,98.17
3426.00,98.19
3425.00,98.20
3424.00,98.18
3423.00,98.15
3422.00,98.11
3421.00,98.10
3420.00,98.11
3419.00,98.14
3418.00,98.17
3417.00,98.19
3416.00,98.20
3415.00,98.20
3414.00,98.20
3413.00,98.21
3412.00,98.21
3411.00,98.21
3410.00,98.19
3409.00,98.18
3408.00,98.18
3407.00,98.19
3406.00,98.18
3405.00,98.16
3404.00,98.13
3403.00,98.10
3402.00,98.10
3401.00,98.11
3400.00,98.13
3399.00,98.15
3398.00,98.15
3397.00,98.15
3396.00,98.14
3395.00,98.14
3394.00,98.15
3393.00,98.15
3392.00,98.15
3391.00,98.16
3390.00,98.16
3389.00,98.17
3388.00,98.18
3387.00,98.20
3386.00,98.21
3385.00,98.21
3384.00,98.20
3383.00,98.19
3382.00,98.17
3381.00,98.16
3380.00,98.14
3379.00,98.13
3378.00,98.14
3377.00,98.16
3376.00,98.18
3375.00,98.21
3374.00,98.24
3373.00,98.26
3372.00,98.25
3371.00,98.23
3370.00,98.19
3369.00,98.15
3368.00,98.11
3367.00,98.09
3366.00,98.08
3365.00,98.08
3364.00,98.09
3363.00,98.11
3362.00,98.14
3361.00,98.15
3360.00,98.15
3359.00,98.14
3358.00,98.13
3357.00,98.13
3356.00,98.14
3355.00,98.15
3354.00,98.14
3353.00,98.13
3352.00,98.10
3351.00,98.08
3350.00,98.06
3349.00,98.05
3348.00,98.05
3347.00,98.05
3346.00,98.05
3345.00,98.05
3344.00,98.05
3343.00,98.05
3342.00,98.06
3341.00,98.07
3340.00,98.07
3339.00,98.08
3338.00,98.08
3337.00,98.08
3336.00,98.08
3335.00,98.08
3334.00,98.09
3333.00,98.10
3332.00,98.12
3331.00,98.13
3330.00,98.14
3329.00,98.15
3328.00,98.14
3327.00,98.13
3326.00,98.12
3325.00,98.12
3324.00,98.12
3323.00,98.12
3322.00,98.11
3321.00,98.11
3320.00,98.11
3319.00,98.11
3318.00,98.11
3317.00,98.11
3316.00,98.10
3315.00,98.08
3314.00,98.06
3313.00,98.05
3312.00,98.06
3311.00,98.09
3310.00,98.11
3309.00,98.14
3308.00,98.15
3307.00,98.15
3306.00,98.14
3305.00,98.12
3304.00,98.10
3303.00,98.09
3302.00,98.11
3301.00,98.12
3300.00,98.13
3299.00,98.12
3298.00,98.11
3297.00,98.11
3296.00,98.10
3295.00,98.10
3294.00,98.09
3293.00,98.08
3292.00,98.07
3291.00,98.06
3290.00,98.07
3289.00,98.09
3288.00,98.10
3287.00,98.09
3286.00,98.08
3285.00,98.08
3284.00,98.08
3283.00,98.08
3282.00,98.08
3281.00,98.09
3280.00,98.10
3279.00,98.11
3278.00,98.12
3277.00,98.11
3276.00,98.11
3275.00,98.10
3274.00,98.10
3273.00,98.11
3272.00,98.12
3271.00,98.12
3270.00,98.11
3269.00,98.10
3268.00,98.09
3267.00,98.08
3266.00,98.07
3265.00,98.07
3264.00,98.07
3263.00,98.08
3262.00,98.10
3261.00,98.11
3260.00,98.11
3259.00,98.11
3258.00,98.09
3257.00,98.07
3256.00,98.06
3255.00,98.06
3254.00,98.07
3253.00,98.08
3252.00,98.08
3251.00,98.09
3250.00,98.09
3249.00,98.10
3248.00,98.10
3247.00,98.08
3246.00,98.07
3245.00,98.06
3244.00,98.05
3243.00,98.03
3242.00,98.02
3241.00,98.01
3240.00,98.02
3239.00,98.04
3238.00,98.06
3237.00,98.07
3236.00,98.08
3235.00,98.07
3234.00,98.05
3233.00,98.05
3232.00,98.05
3231.00,98.06
3230.00,98.07
3229.00,98.07
3228.00,98.06
3227.00,98.04
3226.00,98.02
3225.00,98.01
3224.00,98.02
3223.00,98.03
3222.00,98.05
3221.00,98.06
3220.00,98.06
3219.00,98.06
3218.00,98.07
3217.00,98.07
3216.00,98.06
3215.00,98.06
3214.00,98.06
3213.00,98.06
3212.00,98.06
3211.00,98.07
3210.00,98.08
3209.00,98.10
3208.00,98.11
3207.00,98.11
3206.00,98.10
3205.00,98.10
3204.00,98.09
3203.00,98.07
3202.00,98.05
3201.00,98.02
3200.00,98.01
3199.00,98.02
3198.00,98.04
3197.00,98.05
3196.00,98.05
3195.00,98.06
3194.00,98.07
3193.00,98.09
3192.00,98.10
3191.00,98.09
3190.00,98.06
3189.00,98.03
3188.00,98.02
3187.00,98.03
3186.00,98.05
3185.00,98.06
3184.00,98.06
3183.00,98.06
3182.00,98.04
3181.00,98.04
3180.00,98.03
3179.00,98.03
3178.00,98.03
3177.00,98.03
3176.00,98.04
3175.00,98.06
3174.00,98.08
3173.00,98.10
3172.00,98.11
3171.00,98.10
3170.00,98.09
3169.00,98.07
3168.00,98.07
3167.00,98.07
3166.00,98.07
3165.00,98.07
3164.00,98.07
3163.00,98.05
3162.00,98.05
3161.00,98.05
3160.00,98.06
3159.00,98.07
3158.00,98.08
3157.00,98.08
3156.00,98.07
3155.00,98.06
3154.00,98.07
3153.00,98.08
3152.00,98.09
3151.00,98.09
3150.00,98.07
3149.00,98.05
3148.00,98.05
3147.00,98.06
3146.00,98.07
3145.00,98.07
3144.00,98.06
3143.00,98.04
3142.00,98.02
3141.00,98.01
3140.00,98.01
3139.00,98.01
3138.00,98.01
3137.00,98.02
3136.00,98.02
3135.00,98.03
3134.00,98.05
3133.00,98.07
3132.00,98.09
3131.00,98.10
3130.00,98.10
3129.00,98.10
3128.00,98.07
3127.00,98.04
3126.00,98.00
3125.00,97.99
3124.00,98.01
3123.00,98.06
3122.00,98.10
3121.00,98.12
3120.00,98.13
3119.00,98.12
3118.00,98.09
3117.00,98.07
3116.00,98.07
3115.00,98.08
3114.00,98.10
3113.00,98.10
3112.00,98.09
3111.00,98.08
3110.00,98.08
3109.00,98.09
3108.00,98.10
3107.00,98.11
3106.00,98.10
3105.00,98.10
3104.00,98.11
3103.00,98.11
3102.00,98.12
3101.00,98.12
3100.00,98.11
3099.00,98.10
3098.00,98.09
3097.00,98.08
3096.00,98.07
3095.00,98.06
3094.00,98.06
3093.00,98.05
3092.00,98.05
3091.00,98.05
3090.00,98.06
3089.00,98.07
3088.00,98.07
3087.00,98.06
3086.00,98.05
3085.00,98.06
3084.00,98.07
3083.00,98.09
3082.00,98.10
3081.00,98.10
3080.00,98.10
3079.00,98.09
3078.00,98.08
3077.00,98.06
3076.00,98.05
3075.00,98.05
3074.00,98.05
3073.00,98.06
3072.00,98.05
3071.00,98.03
3070.00,98.01
3069.00,98.01
3068.00,98.02
3067.00,98.03
3066.00,98.03
3065.00,98.03
3064.00,98.02
3063.00,98.01
3062.00,98.00
3061.00,97.98
3060.00,97.98
3059.00,97.99
3058.00,98.00
3057.00,98.02
3056.00,98.03
3055.00,98.04
3054.00,98.04
3053.00,98.03
3052.00,98.02
3051.00,98.02
3050.00,98.03
3049.00,98.05
3048.00,98.06
3047.00,98.07
3046.00,98.07
3045.00,98.07
3044.00,98.07
3043.00,98.07
3042.00,98.08
3041.00,98.09
3040.00,98.08
3039.00,98.07
3038.00,98.05
3037.00,98.03
3036.00,98.02
3035.00,98.02
3034.00,98.03
3033.00,98.05
3032.00,98.04
3031.00,98.04
3030.00,98.02
3029.00,98.01
3028.00,98.01
3027.00,98.00
3026.00,98.01
3025.00,98.01
3024.00,98.02
3023.00,98.03
3022.00,98.03
3021.00,98.02
3020.00,98.01
3019.00,98.00
3018.00,97.99
3017.00,97.99
3016.00,97.99
3015.00,97.99
3014.00,97.98
3013.00,97.98
3012.00,97.97
3011.00,97.96
3010.00,97.94
3009.00,97.92
3008.00,97.90
3007.00,97.89
3006.00,97.90
3005.00,97.90
3004.00,97.91
3003.00,97.92
3002.00,97.92
3001.00,97.90
3000.00,97.89
2999.00,97.87
2998.00,97.86
2997.00,97.86
2996.00,97.86
2995.00,97.85
2994.00,97.83
2993.00,97.80
2992.00,97.77
2991.00,97.76
2990.00,97.77
2989.00,97.77
2988.00,97.78
2987.00,97.76
2986.00,97.74
2985.00,97.72
2984.00,97.69
2983.00,97.68
2982.00,97.68
2981.00,97.68
2980.00,97.68
2979.00,97.68
2978.00,97.67
2977.00,97.66
2976.00,97.66
2975.00,97.65
2974.00,97.63
2973.00,97.61
2972.00,97.59
2971.00,97.58
2970.00,97.59
2969.00,97.61
2968.00,97.62
2967.00,97.63
2966.00,97.62
2965.00,97.60
2964.00,97.58
2963.00,97.56
2962.00,97.54
2961.00,97.52
2960.00,97.50
2959.00,97.49
2958.00,97.48
2957.00,97.46
2956.00,97.44
2955.00,97.41
2954.00,97.39
2953.00,97.37
2952.00,97.35
2951.00,97.32
2950.00,97.29
2949.00,97.26
2948.00,97.23
2947.00,97.22
2946.00,97.22
2945.00,97.22
2944.00,97.21
2943.00,97.19
2942.00,97.17
2941.00,97.14
2940.00,97.11
2939.00,97.09
2938.00,97.07
2937.00,97.06
2936.00,97.06
2935.00,97.07
2934.00,97.06
2933.00,97.04
2932.00,97.02
2931.00,97.02
2930.00,97.01
2929.00,97.01
2928.00,97.01
2927.00,97.01
2926.00,97.01
2925.00,97.03
2924.00,97.04
2923.00,97.05
2922.00,97.06
2921.00,97.06
2920.00,97.07
2919.00,97.10
2918.00,97.14
2917.00,97.19
2916.00,97.23
2915.00,97.26
2914.00,97.29
2913.00,97.32
2912.00,97.35
2911.00,97.39
2910.00,97.43
2909.00,97.46
2908.00,97.49
2907.00,97.52
2906.00,97.55
2905.00,97.58
2904.00,97.59
2903.00,97.60
2902.00,97.61
2901.00,97.62
2900.00,97.65
2899.00,97.67
2898.00,97.67
2897.00,97.67
2896.00,97.67
2895.00,97.68
2894.00,97.70
2893.00,97.72
2892.00,97.72
2891.00,97.73
2890.00,97.73
2889.00,97.75
2888.00,97.76
2887.00,97.75
2886.00,97.72
2885.00,97.70
2884.00,97.69
2883.00,97.69
2882.00,97.71
2881.00,97.71
2880.00,97.71
2879.00,97.71
2878.00,97.71
2877.00,97.72
2876.00,97.73
2875.00,97.74
2874.00,97.73
2873.00,97.73
2872.00,97.73
2871.00,97.75
2870.00,97.76
2869.00,97.76
2868.00,97.76
2867.00,97.75
2866.00,97.76
2865.00,97.76
2864.00,97.77
2863.00,97.76
2862.00,97.76
2861.00,97.77
2860.00,97.79
2859.00,97.81
2858.00,97.81
2857.00,97.81
2856.00,97.81
2855.00,97.81
2854.00,97.82
2853.00,97.82
2852.00,97.83
2851.00,97.83
2850.00,97.84
2849.00,97.85
2848.00,97.86
2847.00,97.88
2846.00,97.90
2845.00,97.93
2844.00,97.96
2843.00,97.98
2842.00,97.99
2841.00,97.99
2840.00,97.99
2839.00,97.99
2838.00,98.01
2837.00,98.02
2836.00,98.03
2835.00,98.03
2834.00,98.02
2833.00,98.02
2832.00,98.03
2831.00,98.04
2830.00,98.06
2829.00,98.06
2828.00,98.06
2827.00,98.06
2826.00,98.05
2825.00,98.05
2824.00,98.04
2823.00,98.04
2822.00,98.04
2821.00,98.05
2820.00,98.06
2819.00,98.05
2818.00,98.03
2817.00,98.02
2816.00,98.03
2815.00,98.04
2814.00,98.05
2813.00,98.05
2812.00,98.05
2811.00,98.04
2810.00,98.04
2809.00,98.04
2808.00,98.05
2807.00,98.05
2806.00,98.05
2805.00,98.04
2804.00,98.03
2803.00,98.02
2802.00,98.01
2801.00,98.02
2800.00,98.04
2799.00,98.06
2798.00,98.08
2797.00,98.08
2796.00,98.07
2795.00,98.06
2794.00,98.06
2793.00,98.06
2792.00,98.07
2791.00,98.07
2790.00,98.08
2789.00,98.09
2788.00,98.09
2787.00,98.08
2786.00,98.06
2785.00,98.05
2784.00,98.05
2783.00,98.05
2782.00,98.06
2781.00,98.08
2780.00,98.08
2779.00,98.09
2778.00,98.10
2777.00,98.12
2776.00,98.13
2775.00,98.14
2774.00,98.13
2773.00,98.12
2772.00,98.11
2771.00,98.10
2770.00,98.09
2769.00,98.09
2768.00,98.09
2767.00,98.10
2766.00,98.11
2765.00,98.13
2764.00,98.14
2763.00,98.14
2762.00,98.13
2761.00,98.12
2760.00,98.11
2759.00,98.11
2758.00,98.11
2757.00,98.11
2756.00,98.11
2755.00,98.10
2754.00,98.09
2753.00,98.09
2752.00,98.10
2751.00,98.11
2750.00,98.11
2749.00,98.10
2748.00,98.09
2747.00,98.09
2746.00,98.09
2745.00,98.09
2744.00,98.09
2743.00,98.09
2742.00,98.08
2741.00,98.08
2740.00,98.09
2739.00,98.10
2738.00,98.10
2737.00,98.11
2736.00,98.11
2735.00,98.11
2734.00,98.11
2733.00,98.11
2732.00,98.11
2731.00,98.10
2730.00,98.10
2729.00,98.09
2728.00,98.10
2727.00,98.10
2726.00,98.10
2725.00,98.10
2724.00,98.10
2723.00,98.10
2722.00,98.11
2721.00,98.11
2720.00,98.12
2719.00,98.12
2718.00,98.11
2717.00,98.10
2716.00,98.10
2715.00,98.09
2714.00,98.09
2713.00,98.09
2712.00,98.08
2711.00,98.08
2710.00,98.07
2709.00,98.07
2708.00,98.08
2707.00,98.08
2706.00,98.08
2705.00,98.07
2704.00,98.06
2703.00,98.06
2702.00,98.06
2701.00,98.06
2700.00,98.06
2699.00,98.06
2698.00,98.06
2697.00,98.07
2696.00,98.08
2695.00,98.08
2694.00,98.07
2693.00,98.07
2692.00,98.07
2691.00,98.08
2690.00,98.10
2689.00,98.11
2688.00,98.12
2687.00,98.12
2686.00,98.13
2685.00,98.14
2684.00,98.14
2683.00,98.13
2682.00,98.12
2681.00,98.11
2680.00,98.10
2679.00,98.11
2678.00,98.12
2677.00,98.12
2676.00,98.12
2675.00,98.12
2674.00,98.12
2673.00,98.13
2672.00,98.13
2671.00,98.14
2670.00,98.15
2669.00,98.15
2668.00,98.15
2667.00,98.13
2666.00,98.12
2665.00,98.11
2664.00,98.11
2663.00,98.11
2662.00,98.10
2661.00,98.08
2660.00,98.07
2659.00,98.06
2658.00,98.05
2657.00,98.04
2656.00,98.02
2655.00,98.01
2654.00,98.01
2653.00,98.01
2652.00,98.00
2651.00,98.00
2650.00,97.98
2649.00,97.96
2648.00,97.95
2647.00,97.93
2646.00,97.93
2645.00,97.93
2644.00,97.92
2643.00,97.92
2642.00,97.91
2641.00,97.91
2640.00,97.92
2639.00,97.92
2638.00,97.91
2637.00,97.90
2636.00,97.89
2635.00,97.89
2634.00,97.88
2633.00,97.86
2632.00,97.85
2631.00,97.86
2630.00,97.88
2629.00,97.90
2628.00,97.91
2627.00,97.91
2626.00,97.89
2625.00,97.87
2624.00,97.84
2623.00,97.82
2622.00,97.82
2621.00,97.82
2620.00,97.82
2619.00,97.82
2618.00,97.82
2617.00,97.82
2616.00,97.82
2615.00,97.83
2614.00,97.84
2613.00,97.84
2612.00,97.84
2611.00,97.82
2610.00,97.81
2609.00,97.80
2608.00,97.78
2607.00,97.76
2606.00,97.75
2605.00,97.76
2604.00,97.79
2603.00,97.81
2602.00,97.83
2601.00,97.83
2600.00,97.81
2599.00,97.78
2598.00,97.75
2597.00,97.73
2596.00,97.73
2595.00,97.74
2594.00,97.73
2593.00,97.72
2592.00,97.72
2591.00,97.71
2590.00,97.71
2589.00,97.69
2588.00,97.66
2587.00,97.63
2586.00,97.62
2585.00,97.61
2584.00,97.61
2583.00,97.62
2582.00,97.64
2581.00,97.66
2580.00,97.68
2579.00,97.71
2578.00,97.72
2577.00,97.72
2576.00,97.71
2575.00,97.71
2574.00,97.71
2573.00,97.73
2572.00,97.73
2571.00,97.72
2570.00,97.70
2569.00,97.67
2568.00,97.66
2567.00,97.65
2566.00,97.66
2565.00,97.67
2564.00,97.70
2563.00,97.72
2562.00,97.72
2561.00,97.70
2560.00,97.68
2559.00,97.66
2558.00,97.65
2557.00,97.64
2556.00,97.63
2555.00,97.64
2554.00,97.67
2553.00,97.69
2552.00,97.69
2551.00,97.66
2550.00,97.62
2549.00,97.59
2548.00,97.57
2547.00,97.58
2546.00,97.60
2545.00,97.61
2544.00,97.62
2543.00,97.61
2542.00,97.60
2541.00,97.58
2540.00,97.56
2539.00,97.55
2538.00,97.56
2537.00,97.57
2536.00,97.58
2535.00,97.59
2534.00,97.59
2533.00,97.60
2532.00,97.59
2531.00,97.59
2530.00,97.58
2529.00,97.58
2528.00,97.60
2527.00,97.63
2526.00,97.65
2525.00,97.66
2524.00,97.64
2523.00,97.61
2522.00,97.60
2521.00,97.60
2520.00,97.62
2519.00,97.62
2518.00,97.62
2517.00,97.61
2516.00,97.61
2515.00,97.64
2514.00,97.66
2513.00,97.66
2512.00,97.66
2511.00,97.66
2510.00,97.66
2509.00,97.66
2508.00,97.65
2507.00,97.65
2506.00,97.66
2505.00,97.66
2504.00,97.66
2503.00,97.66
2502.00,97.66
2501.00,97.66
2500.00,97.66
2499.00,97.66
2498.00,97.65
2497.00,97.63
2496.00,97.61
2495.00,97.60
2494.00,97.59
2493.00,97.59
2492.00,97.59
2491.00,97.60
2490.00,97.62
2489.00,97.64
2488.00,97.65
2487.00,97.66
2486.00,97.66
2485.00,97.66
2484.00,97.66
2483.00,97.66
2482.00,97.66
2481.00,97.63
2480.00,97.60
2479.00,97.57
2478.00,97.56
2477.00,97.57
2476.00,97.58
2475.00,97.60
2474.00,97.60
2473.00,97.61
2472.00,97.62
2471.00,97.65
2470.00,97.68
2469.00,97.69
2468.00,97.68
2467.00,97.65
2466.00,97.63
2465.00,97.64
2464.00,97.66
2463.00,97.69
2462.00,97.71
2461.00,97.70
2460.00,97.69
2459.00,97.68
2458.00,97.67
2457.00,97.67
2456.00,97.67
2455.00,97.64
2454.00,97.61
2453.00,97.60
2452.00,97.60
2451.00,97.61
2450.00,97.61
2449.00,97.61
2448.00,97.61
2447.00,97.61
2446.00,97.63
2445.00,97.64
2444.00,97.63
2443.00,97.61
2442.00,97.59
2441.00,97.59
2440.00,97.60
2439.00,97.61
2438.00,97.62
2437.00,97.61
2436.00,97.61
2435.00,97.61
2434.00,97.61
2433.00,97.60
2432.00,97.59
2431.00,97.59
2430.00,97.60
2429.00,97.63
2428.00,97.67
2427.00,97.70
2426.00,97.72
2425.00,97.73
2424.00,97.70
2423.00,97.67
2422.00,97.65
2421.00,97.65
2420.00,97.66
2419.00,97.70
2418.00,97.73
2417.00,97.75
2416.00,97.76
2415.00,97.75
2414.00,97.73
2413.00,97.72
2412.00,97.72
2411.00,97.73
2410.00,97.74
2409.00,97.74
2408.00,97.73
2407.00,97.73
2406.00,97.74
2405.00,97.75
2404.00,97.77
2403.00,97.79
2402.00,97.82
2401.00,97.83
2400.00,97.82
2399.00,97.80
2398.00,97.78
2397.00,97.78
2396.00,97.78
2395.00,97.79
2394.00,97.80
2393.00,97.81
2392.00,97.81
2391.00,97.80
2390.00,97.80
2389.00,97.79
2388.00,97.79
2387.00,97.80
2386.00,97.83
2385.00,97.87
2384.00,97.90
2383.00,97.92
2382.00,97.92
2381.00,97.93
2380.00,97.93
2379.00,97.93
2378.00,97.94
2377.00,97.96
2376.00,97.99
2375.00,98.01
2374.00,98.01
2373.00,98.00
2372.00,97.98
2371.00,97.98
2370.00,97.97
2369.00,97.97
2368.00,97.98
2367.00,98.00
2366.00,98.02
2365.00,98.04
2364.00,98.05
2363.00,98.05
2362.00,98.05
2361.00,98.05
2360.00,98.02
2359.00,97.96
2358.00,97.92
2357.00,97.92
2356.00,97.94
2355.00,97.97
2354.00,98.01
2353.00,98.05
2352.00,98.09
2351.00,98.12
2350.00,98.14
2349.00,98.18
2348.00,98.24
2347.00,98.30
2346.00,98.31
2345.00,98.25
2344.00,98.18
2343.00,98.14
2342.00,98.11
2341.00,98.06
2340.00,98.00
2339.00,97.95
2338.00,97.94
2337.00,97.97
2336.00,98.00
2335.00,98.01
2334.00,97.98
2333.00,97.93
2332.00,97.90
2331.00,97.89
2330.00,97.89
2329.00,97.88
2328.00,97.84
2327.00,97.79
2326.00,97.73
2325.00,97.67
2324.00,97.63
2323.00,97.60
2322.00,97.57
2321.00,97.56
2320.00,97.58
2319.00,97.61
2318.00,97.62
2317.00,97.63
2316.00,97.65
2315.00,97.66
2314.00,97.67
2313.00,97.67
2312.00,97.66
2311.00,97.65
2310.00,97.63
2309.00,97.61
2308.00,97.58
2307.00,97.56
2306.00,97.57
2305.00,97.59
2304.00,97.61
2303.00,97.63
2302.00,97.64
2301.00,97.62
2300.00,97.59
2299.00,97.56
2298.00,97.53
2297.00,97.52
2296.00,97.52
2295.00,97.52
2294.00,97.51
2293.00,97.48
2292.00,97.45
2291.00,97.42
2290.00,97.40
2289.00,97.39
2288.00,97.39
2287.00,97.38
2286.00,97.37
2285.00,97.36
2284.00,97.36
2283.00,97.37
2282.00,97.36
2281.00,97.33
2280.00,97.28
2279.00,97.24
2278.00,97.23
2277.00,97.23
2276.00,97.24
2275.00,97.25
2274.00,97.27
2273.00,97.26
2272.00,97.23
2271.00,97.17
2270.00,97.11
2269.00,97.10
2268.00,97.13
2267.00,97.15
2266.00,97.16
2265.00,97.12
2264.00,97.05
2263.00,96.97
2262.00,96.91
2261.00,96.85
2260.00,96.80
2259.00,96.72
2258.00,96.60
2257.00,96.45
2256.00,96.29
2255.00,96.16
2254.00,96.02
2253.00,95.87
2252.00,95.70
2251.00,95.53
2250.00,95.38
2249.00,95.26
2248.00,95.16
2247.00,95.05
2246.00,94.93
2245.00,94.84
2244.00,94.82
2243.00,94.87
2242.00,94.97
2241.00,95.08
2240.00,95.20
2239.00,95.34
2238.00,95.51
2237.00,95.71
2236.00,95.93
2235.00,96.14
2234.00,96.33
2233.00,96.48
2232.00,96.59
2231.00,96.66
2230.00,96.71
2229.00,96.75
2228.00,96.76
2227.00,96.77
2226.00,96.76
2225.00,96.76
2224.00,96.76
2223.00,96.76
2222.00,96.75
2221.00,96.74
2220.00,96.74
2219.00,96.73
2218.00,96.71
2217.00,96.68
2216.00,96.68
2215.00,96.70
2214.00,96.72
2213.00,96.71
2212.00,96.70
2211.00,96.74
2210.00,96.79
2209.00,96.82
2208.00,96.79
2207.00,96.75
2206.00,96.74
2205.00,96.76
2204.00,96.74
2203.00,96.70
2202.00,96.67
2201.00,96.69
2200.00,96.74
2199.00,96.76
2198.00,96.70
2197.00,96.61
2196.00,96.52
2195.00,96.45
2194.00,96.39
2193.00,96.36
2192.00,96.35
2191.00,96.36
2190.00,96.38
2189.00,96.37
2188.00,96.35
2187.00,96.32
2186.00,96.31
2185.00,96.34
2184.00,96.38
2183.00,96.40
2182.00,96.40
2181.00,96.39
2180.00,96.37
2179.00,96.36
2178.00,96.37
2177.00,96.40
2176.00,96.44
2175.00,96.47
2174.00,96.47
2173.00,96.47
2172.00,96.45
2171.00,96.42
2170.00,96.36
2169.00,96.30
2168.00,96.26
2167.00,96.23
2166.00,96.21
2165.00,96.17
2164.00,96.11
2163.00,96.02
2162.00,95.95
2161.00,95.93
2160.00,96.01
2159.00,96.16
2158.00,96.35
2157.00,96.50
2156.00,96.60
2155.00,96.61
2154.00,96.57
2153.00,96.54
2152.00,96.54
2151.00,96.58
2150.00,96.62
2149.00,96.66
2148.00,96.71
2147.00,96.77
2146.00,96.82
2145.00,96.85
2144.00,96.88
2143.00,96.90
2142.00,96.90
2141.00,96.89
2140.00,96.89
2139.00,96.90
2138.00,96.93
2137.00,96.99
2136.00,97.05
2135.00,97.12
2134.00,97.17
2133.00,97.21
2132.00,97.22
2131.00,97.21
2130.00,97.19
2129.00,97.16
2128.00,97.16
2127.00,97.17
2126.00,97.18
2125.00,97.19
2124.00,97.18
2123.00,97.16
2122.00,97.14
2121.00,97.13
2120.00,97.13
2119.00,97.14
2118.00,97.15
2117.00,97.16
2116.00,97.15
2115.00,97.15
2114.00,97.17
2113.00,97.20
2112.00,97.24
2111.00,97.25
2110.00,97.24
2109.00,97.23
2108.00,97.21
2107.00,97.18
2106.00,97.14
2105.00,97.10
2104.00,97.09
2103.00,97.10
2102.00,97.11
2101.00,97.12
2100.00,97.12
2099.00,97.12
2098.00,97.12
2097.00,97.12
2096.00,97.14
2095.00,97.18
2094.00,97.22
2093.00,97.24
2092.00,97.24
2091.00,97.22
2090.00,97.19
2089.00,97.16
2088.00,97.13
2087.00,97.13
2086.00,97.15
2085.00,97.18
2084.00,97.20
2083.00,97.19
2082.00,97.17
2081.00,97.14
2080.00,97.10
2079.00,97.07
2078.00,97.04
2077.00,97.02
2076.00,97.01
2075.00,97.00
2074.00,97.00
2073.00,96.99
2072.00,96.99
2071.00,96.99
2070.00,97.01
2069.00,97.02
2068.00,97.01
2067.00,97.00
2066.00,96.98
2065.00,96.96
2064.00,96.94
2063.00,96.93
2062.00,96.94
2061.00,96.96
2060.00,96.97
2059.00,96.96
2058.00,96.94
2057.00,96.92
2056.00,96.91
2055.00,96.90
2054.00,96.89
2053.00,96.87
2052.00,96.84
2051.00,96.81
2050.00,96.78
2049.00,96.76
2048.00,96.73
2047.00,96.69
2046.00,96.64
2045.00,96.59
2044.00,96.53
2043.00,96.49
2042.00,96.45
2041.00,96.43
2040.00,96.42
2039.00,96.40
2038.00,96.37
2037.00,96.34
2036.00,96.32
2035.00,96.32
2034.00,96.30
2033.00,96.27
2032.00,96.23
2031.00,96.19
2030.00,96.18
2029.00,96.18
2028.00,96.21
2027.00,96.26
2026.00,96.31
2025.00,96.32
2024.00,96.29
2023.00,96.27
2022.00,96.30
2021.00,96.38
2020.00,96.44
2019.00,96.44
2018.00,96.40
2017.00,96.37
2016.00,96.37
2015.00,96.42
2014.00,96.49
2013.00,96.55
2012.00,96.60
2011.00,96.62
2010.00,96.62
2009.00,96.61
2008.00,96.60
2007.00,96.61
2006.00,96.62
2005.00,96.60
2004.00,96.57
2003.00,96.55
2002.00,96.56
2001.00,96.58
2000.00,96.61
1999.00,96.64
1998.00,96.66
1997.00,96.67
1996.00,96.67
1995.00,96.67
1994.00,96.65
1993.00,96.63
1992.00,96.59
1991.00,96.57
1990.00,96.58
1989.00,96.61
1988.00,96.64
1987.00,96.66
1986.00,96.66
1985.00,96.63
1984.00,96.59
1983.00,96.51
1982.00,96.39
1981.00,96.28
1980.00,96.21
1979.00,96.22
1978.00,96.28
1977.00,96.36
1976.00,96.41
1975.00,96.43
1974.00,96.47
1973.00,96.53
1972.00,96.61
1971.00,96.67
1970.00,96.69
1969.00,96.68
1968.00,96.68
1967.00,96.69
1966.00,96.72
1965.00,96.73
1964.00,96.74
1963.00,96.75
1962.00,96.79
1961.00,96.84
1960.00,96.89
1959.00,96.91
1958.00,96.93
1957.00,96.93
1956.00,96.94
1955.00,96.94
1954.00,96.95
1953.00,96.98
1952.00,97.03
1951.00,97.08
1950.00,97.10
1949.00,97.10
1948.00,97.09
1947.00,97.08
1946.00,97.09
1945.00,97.09
1944.00,97.08
1943.00,97.07
1942.00,97.07
1941.00,97.10
1940.00,97.15
1939.00,97.20
1938.00,97.23
1937.00,97.23
1936.00,97.22
1935.00,97.20
1934.00,97.21
1933.00,97.22
1932.00,97.22
1931.00,97.21
1930.00,97.20
1929.00,97.21
1928.00,97.25
1927.00,97.29
1926.00,97.31
1925.00,97.32
1924.00,97.31
1923.00,97.29
1922.00,97.27
1921.00,97.28
1920.00,97.31
1919.00,97.36
1918.00,97.40
1917.00,97.42
1916.00,97.41
1915.00,97.40
1914.00,97.38
1913.00,97.38
1912.00,97.38
1911.00,97.38
1910.00,97.40
1909.00,97.43
1908.00,97.45
1907.00,97.45
1906.00,97.44
1905.00,97.43
1904.00,97.44
1903.00,97.46
1902.00,97.47
1901.00,97.47
1900.00,97.48
1899.00,97.49
1898.00,97.49
1897.00,97.48
1896.00,97.46
1895.00,97.44
1894.00,97.44
1893.00,97.45
1892.00,97.47
1891.00,97.49
1890.00,97.50
1889.00,97.50
1888.00,97.50
1887.00,97.51
1886.00,97.53
1885.00,97.55
1884.00,97.57
1883.00,97.57
1882.00,97.57
1881.00,97.56
1880.00,97.55
1879.00,97.54
1878.00,97.53
1877.00,97.55
1876.00,97.57
1875.00,97.59
1874.00,97.58
1873.00,97.55
1872.00,97.54
1871.00,97.54
1870.00,97.55
1869.00,97.56
1868.00,97.57
1867.00,97.57
1866.00,97.59
1865.00,97.59
1864.00,97.59
1863.00,97.58
1862.00,97.57
1861.00,97.56
1860.00,97.57
1859.00,97.58
1858.00,97.59
1857.00,97.60
1856.00,97.63
1855.00,97.66
1854.00,97.69
1853.00,97.70
1852.00,97.70
1851.00,97.69
1850.00,97.69
1849.00,97.69
1848.00,97.69
1847.00,97.69
1846.00,97.68
1845.00,97.68
1844.00,97.68
1843.00,97.67
1842.00,97.66
1841.00,97.67
1840.00,97.68
1839.00,97.69
1838.00,97.71
1837.00,97.72
1836.00,97.73
1835.00,97.73
1834.00,97.72
1833.00,97.70
1832.00,97.70
1831.00,97.71
1830.00,97.72
1829.00,97.72
1828.00,97.71
1827.00,97.70
1826.00,97.70
1825.00,97.71
1824.00,97.72
1823.00,97.73
1822.00,97.74
1821.00,97.75
1820.00,97.76
1819.00,97.77
1818.00,97.79
1817.00,97.82
1816.00,97.83
1815.00,97.83
1814.00,97.83
1813.00,97.81
1812.00,97.81
1811.00,97.81
1810.00,97.82
1809.00,97.83
1808.00,97.83
1807.00,97.82
1806.00,97.81
1805.00,97.80
1804.00,97.81
1803.00,97.82
1802.00,97.83
1801.00,97.82
1800.00,97.80
1799.00,97.79
1798.00,97.80
1797.00,97.82
1796.00,97.84
1795.00,97.85
1794.00,97.86
1793.00,97.86
1792.00,97.86
1791.00,97.85
1790.00,97.85
1789.00,97.85
1788.00,97.86
1787.00,97.86
1786.00,97.87
1785.00,97.87
1784.00,97.87
1783.00,97.86
1782.00,97.86
1781.00,97.85
1780.00,97.85
1779.00,97.86
1778.00,97.87
1777.00,97.88
1776.00,97.87
1775.00,97.86
1774.00,97.85
1773.00,97.85
1772.00,97.85
1771.00,97.85
1770.00,97.85
1769.00,97.85
1768.00,97.85
1767.00,97.83
1766.00,97.82
1765.00,97.81
1764.00,97.82
1763.00,97.83
1762.00,97.82
1761.00,97.81
1760.00,97.80
1759.00,97.79
1758.00,97.79
1757.00,97.79
1756.00,97.77
1755.00,97.75
1754.00,97.72
1753.00,97.71
1752.00,97.69
1751.00,97.66
1750.00,97.63
1749.00,97.58
1748.00,97.53
1747.00,97.48
1746.00,97.41
1745.00,97.35
1744.00,97.28
1743.00,97.22
1742.00,97.14
1741.00,97.06
1740.00,96.98
1739.00,96.90
1738.00,96.83
1737.00,96.77
1736.00,96.72
1735.00,96.67
1734.00,96.63
1733.00,96.59
1732.00,96.57
1731.00,96.57
1730.00,96.60
1729.00,96.64
1728.00,96.67
1727.00,96.69
1726.00,96.73
1725.00,96.78
1724.00,96.84
1723.00,96.91
1722.00,96.97
1721.00,97.02
1720.00,97.09
1719.00,97.18
1718.00,97.28
1717.00,97.36
1716.00,97.40
1715.00,97.42
1714.00,97.44
1713.00,97.46
1712.00,97.50
1711.00,97.55
1710.00,97.60
1709.00,97.65
1708.00,97.68
1707.00,97.71
1706.00,97.73
1705.00,97.74
1704.00,97.74
1703.00,97.74
1702.00,97.74
1701.00,97.74
1700.00,97.74
1699.00,97.74
1698.00,97.74
1697.00,97.74
1696.00,97.74
1695.00,97.74
1694.00,97.74
1693.00,97.74
1692.00,97.74
1691.00,97.74
1690.00,97.73
1689.00,97.71
1688.00,97.71
1687.00,97.71
1686.00,97.72
1685.00,97.72
1684.00,97.68
1683.00,97.64
1682.00,97.59
1681.00,97.54
1680.00,97.49
1679.00,97.44
1678.00,97.39
1677.00,97.35
1676.00,97.31
1675.00,97.25
1674.00,97.17
1673.00,97.11
1672.00,97.06
1671.00,97.01
1670.00,96.95
1669.00,96.90
1668.00,96.85
1667.00,96.81
1666.00,96.77
1665.00,96.75
1664.00,96.73
1663.00,96.73
1662.00,96.73
1661.00,96.75
1660.00,96.79
1659.00,96.86
1658.00,96.92
1657.00,96.98
1656.00,97.02
1655.00,97.06
1654.00,97.14
1653.00,97.21
1652.00,97.26
1651.00,97.27
1650.00,97.30
1649.00,97.34
1648.00,97.39
1647.00,97.43
1646.00,97.44
1645.00,97.43
1644.00,97.43
1643.00,97.44
1642.00,97.45
1641.00,97.47
1640.00,97.48
1639.00,97.48
1638.00,97.48
1637.00,97.47
1636.00,97.46
1635.00,97.44
1634.00,97.43
1633.00,97.42
1632.00,97.43
1631.00,97.44
1630.00,97.43
1629.00,97.43
1628.00,97.42
1627.00,97.43
1626.00,97.44
1625.00,97.44
1624.00,97.43
1623.00,97.43
1622.00,97.44
1621.00,97.45
1620.00,97.47
1619.00,97.50
1618.00,97.53
1617.00,97.54
1616.00,97.54
1615.00,97.54
1614.00,97.54
1613.00,97.56
1612.00,97.59
1611.00,97.62
1610.00,97.63
1609.00,97.64
1608.00,97.65
1607.00,97.67
1606.00,97.68
1605.00,97.68
1604.00,97.68
1603.00,97.68
1602.00,97.68
1601.00,97.69
1600.00,97.70
1599.00,97.73
1598.00,97.75
1597.00,97.78
1596.00,97.81
1595.00,97.82
1594.00,97.83
1593.00,97.82
1592.00,97.80
1591.00,97.78
1590.00,97.77
1589.00,97.78
1588.00,97.80
1587.00,97.82
1586.00,97.84
1585.00,97.85
1584.00,97.86
1583.00,97.86
1582.00,97.86
1581.00,97.86
1580.00,97.87
1579.00,97.89
1578.00,97.91
1577.00,97.93
1576.00,97.92
1575.00,97.92
1574.00,97.92
1573.00,97.92
1572.00,97.92
1571.00,97.92
1570.00,97.92
1569.00,97.92
1568.00,97.92
1567.00,97.92
1566.00,97.91
1565.00,97.90
1564.00,97.89
1563.00,97.89
1562.00,97.89
1561.00,97.91
1560.00,97.94
1559.00,97.94
1558.00,97.92
1557.00,97.90
1556.00,97.89
1555.00,97.90
1554.00,97.91
1553.00,97.92
1552.00,97.91
1551.00,97.91
1550.00,97.91
1549.00,97.92
1548.00,97.93
1547.00,97.93
1546.00,97.92
1545.00,97.92
1544.00,97.92
1543.00,97.92
1542.00,97.92
1541.00,97.92
1540.00,97.92
1539.00,97.92
1538.00,97.92
1537.00,97.91
1536.00,97.89
1535.00,97.89
1534.00,97.91
1533.00,97.92
1532.00,97.91
1531.00,97.91
1530.00,97.90
1529.00,97.90
1528.00,97.92
1527.00,97.92
1526.00,97.93
1525.00,97.92
1524.00,97.92
1523.00,97.93
1522.00,97.94
1521.00,97.95
1520.00,97.95
1519.00,97.95
1518.00,97.96
1517.00,97.96
1516.00,97.95
1515.00,97.92
1514.00,97.90
1513.00,97.88
1512.00,97.87
1511.00,97.88
1510.00,97.89
1509.00,97.88
1508.00,97.88
1507.00,97.87
1506.00,97.87
1505.00,97.88
1504.00,97.87
1503.00,97.85
1502.00,97.83
1501.00,97.82
1500.00,97.83
1499.00,97.85
1498.00,97.87
1497.00,97.87
1496.00,97.86
1495.00,97.84
1494.00,97.80
1493.00,97.77
1492.00,97.74
1491.00,97.73
1490.00,97.73
1489.00,97.73
1488.00,97.73
1487.00,97.73
1486.00,97.74
1485.00,97.74
1484.00,97.73
1483.00,97.72
1482.00,97.72
1481.00,97.71
1480.00,97.71
1479.00,97.71
1478.00,97.70
1477.00,97.67
1476.00,97.64
1475.00,97.61
1474.00,97.58
1473.00,97.55
1472.00,97.51
1471.00,97.47
1470.00,97.43
1469.00,97.37
1468.00,97.30
1467.00,97.23
1466.00,97.14
1465.00,97.03
1464.00,96.89
1463.00,96.74
1462.00,96.58
1461.00,96.42
1460.00,96.24
1459.00,96.06
1458.00,95.85
1457.00,95.63
1456.00,95.44
1455.00,95.29
1454.00,95.18
1453.00,95.08
1452.00,95.02
1451.00,94.99
1450.00,94.98
1449.00,94.99
1448.00,95.03
1447.00,95.08
1446.00,95.14
1445.00,95.21
1444.00,95.30
1443.00,95.39
1442.00,95.47
1441.00,95.54
1440.00,95.59
1439.00,95.65
1438.00,95.73
1437.00,95.83
1436.00,95.95
1435.00,96.05
1434.00,96.13
1433.00,96.22
1432.00,96.32
1431.00,96.44
1430.00,96.56
1429.00,96.69
1428.00,96.80
1427.00,96.90
1426.00,96.99
1425.00,97.07
1424.00,97.14
1423.00,97.20
1422.00,97.24
1421.00,97.30
1420.00,97.37
1419.00,97.45
1418.00,97.50
1417.00,97.52
1416.00,97.52
1415.00,97.51
1414.00,97.50
1413.00,97.50
1412.00,97.52
1411.00,97.54
1410.00,97.56
1409.00,97.56
1408.00,97.57
1407.00,97.57
1406.00,97.58
1405.00,97.59
1404.00,97.61
1403.00,97.63
1402.00,97.63
1401.00,97.64
1400.00,97.63
1399.00,97.62
1398.00,97.61
1397.00,97.58
1396.00,97.54
1395.00,97.49
1394.00,97.44
1393.00,97.39
1392.00,97.34
1391.00,97.30
1390.00,97.27
1389.00,97.26
1388.00,97.26
1387.00,97.26
1386.00,97.25
1385.00,97.23
1384.00,97.20
1383.00,97.18
1382.00,97.18
1381.00,97.18
1380.00,97.18
1379.00,97.18
1378.00,97.17
1377.00,97.16
1376.00,97.15
1375.00,97.14
1374.00,97.11
1373.00,97.08
1372.00,97.05
1371.00,97.02
1370.00,97.00
1369.00,97.00
1368.00,96.99
1367.00,96.99
1366.00,96.98
1365.00,96.96
1364.00,96.94
1363.00,96.91
1362.00,96.89
1361.00,96.88
1360.00,96.88
1359.00,96.88
1358.00,96.89
1357.00,96.89
1356.00,96.89
1355.00,96.88
1354.00,96.88
1353.00,96.88
1352.00,96.88
1351.00,96.89
1350.00,96.90
1349.00,96.91
1348.00,96.93
1347.00,96.97
1346.00,97.02
1345.00,97.06
1344.00,97.09
1343.00,97.11
1342.00,97.13
1341.00,97.15
1340.00,97.17
1339.00,97.19
1338.00,97.19
1337.00,97.20
1336.00,97.21
1335.00,97.22
1334.00,97.24
1333.00,97.25
1332.00,97.26
1331.00,97.25
1330.00,97.25
1329.00,97.25
1328.00,97.25
1327.00,97.26
1326.00,97.27
1325.00,97.28
1324.00,97.28
1323.00,97.27
1322.00,97.27
1321.00,97.27
1320.00,97.28
1319.00,97.29
1318.00,97.29
1317.00,97.29
1316.00,97.29
1315.00,97.29
1314.00,97.28
1313.00,97.28
1312.00,97.28
1311.00,97.29
1310.00,97.30
1309.00,97.30
1308.00,97.28
1307.00,97.27
1306.00,97.26
1305.00,97.26
1304.00,97.26
1303.00,97.26
1302.00,97.26
1301.00,97.26
1300.00,97.24
1299.00,97.23
1298.00,97.22
1297.00,97.21
1296.00,97.21
1295.00,97.20
1294.00,97.19
1293.00,97.17
1292.00,97.16
1291.00,97.16
1290.00,97.15
1289.00,97.15
1288.00,97.14
1287.00,97.13
1286.00,97.12
1285.00,97.10
1284.00,97.08
1283.00,97.06
1282.00,97.04
1281.00,97.02
1280.00,97.00
1279.00,96.97
1278.00,96.95
1277.00,96.94
1276.00,96.93
1275.00,96.92
1274.00,96.91
1273.00,96.90
1272.00,96.89
1271.00,96.88
1270.00,96.86
1269.00,96.83
1268.00,96.81
1267.00,96.81
1266.00,96.80
1265.00,96.79
1264.00,96.78
1263.00,96.76
1262.00,96.74
1261.00,96.72
1260.00,96.69
1259.00,96.66
1258.00,96.62
1257.00,96.59
1256.00,96.57
1255.00,96.55
1254.00,96.54
1253.00,96.52
1252.00,96.51
1251.00,96.50
1250.00,96.51
1249.00,96.52
1248.00,96.53
1247.00,96.53
1246.00,96.54
1245.00,96.55
1244.00,96.55
1243.00,96.53
1242.00,96.52
1241.00,96.50
1240.00,96.50
1239.00,96.50
1238.00,96.50
1237.00,96.49
1236.00,96.49
1235.00,96.48
1234.00,96.48
1233.00,96.47
1232.00,96.48
1231.00,96.49
1230.00,96.49
1229.00,96.49
1228.00,96.47
1227.00,96.46
1226.00,96.46
1225.00,96.46
1224.00,96.46
1223.00,96.46
1222.00,96.45
1221.00,96.44
1220.00,96.43
1219.00,96.42
1218.00,96.43
1217.00,96.43
1216.00,96.42
1215.00,96.42
1214.00,96.41
1213.00,96.41
1212.00,96.41
1211.00,96.41
1210.00,96.41
1209.00,96.39
1208.00,96.38
1207.00,96.36
1206.00,96.36
1205.00,96.37
1204.00,96.39
1203.00,96.40
1202.00,96.41
1201.00,96.42
1200.00,96.43
1199.00,96.46
1198.00,96.49
1197.00,96.50
1196.00,96.51
1195.00,96.51
1194.00,96.52
1193.00,96.53
1192.00,96.55
1191.00,96.56
1190.00,96.56
1189.00,96.55
1188.00,96.54
1187.00,96.54
1186.00,96.56
1185.00,96.58
1184.00,96.58
1183.00,96.56
1182.00,96.53
1181.00,96.52
1180.00,96.51
1179.00,96.52
1178.00,96.53
1177.00,96.55
1176.00,96.56
1175.00,96.57
1174.00,96.57
1173.00,96.57
1172.00,96.58
1171.00,96.59
1170.00,96.61
1169.00,96.64
1168.00,96.68
1167.00,96.72
1166.00,96.76
1165.00,96.82
1164.00,96.87
1163.00,96.92
1162.00,96.96
1161.00,97.01
1160.00,97.05
1159.00,97.09
1158.00,97.13
1157.00,97.15
1156.00,97.16
1155.00,97.16
1154.00,97.18
1153.00,97.21
1152.00,97.25
1151.00,97.29
1150.00,97.30
1149.00,97.32
1148.00,97.33
1147.00,97.35
1146.00,97.34
1145.00,97.32
1144.00,97.28
1143.00,97.25
1142.00,97.25
1141.00,97.26
1140.00,97.28
1139.00,97.30
1138.00,97.31
1137.00,97.31
1136.00,97.31
1135.00,97.29
1134.00,97.27
1133.00,97.25
1132.00,97.24
1131.00,97.22
1130.00,97.20
1129.00,97.16
1128.00,97.12
1127.00,97.09
1126.00,97.09
1125.00,97.10
1124.00,97.10
1123.00,97.09
1122.00,97.05
1121.00,97.00
1120.00,96.95
1119.00,96.92
1118.00,96.89
1117.00,96.87
1116.00,96.83
1115.00,96.79
1114.00,96.74
1113.00,96.68
1112.00,96.60
1111.00,96.54
1110.00,96.51
1109.00,96.48
1108.00,96.45
1107.00,96.40
1106.00,96.35
1105.00,96.30
1104.00,96.25
1103.00,96.20
1102.00,96.14
1101.00,96.09
1100.00,96.04
1099.00,96.02
1098.00,96.01
1097.00,96.01
1096.00,95.99
1095.00,95.98
1094.00,95.96
1093.00,95.94
1092.00,95.92
1091.00,95.89
1090.00,95.87
1089.00,95.85
1088.00,95.84
1087.00,95.83
1086.00,95.83
1085.00,95.83
1084.00,95.81
1083.00,95.78
1082.00,95.74
1081.00,95.70
1080.00,95.68
1079.00,95.67
1078.00,95.67
1077.00,95.66
1076.00,95.63
1075.00,95.60
1074.00,95.58
1073.00,95.58
1072.00,95.59
1071.00,95.59
1070.00,95.57
1069.00,95.55
1068.00,95.54
1067.00,95.54
1066.00,95.56
1065.00,95.57
1064.00,95.58
1063.00,95.58
1062.00,95.59
1061.00,95.62
1060.00,95.67
1059.00,95.72
1058.00,95.78
1057.00,95.82
1056.00,95.84
1055.00,95.86
1054.00,95.87
1053.00,95.90
1052.00,95.92
1051.00,95.93
1050.00,95.93
1049.00,95.92
1048.00,95.92
1047.00,95.90
1046.00,95.87
1045.00,95.85
1044.00,95.83
1043.00,95.82
1042.00,95.81
1041.00,95.81
1040.00,95.81
1039.00,95.83
1038.00,95.86
1037.00,95.92
1036.00,96.00
1035.00,96.10
1034.00,96.22
1033.00,96.33
1032.00,96.41
1031.00,96.46
1030.00,96.51
1029.00,96.56
1028.00,96.62
1027.00,96.67
1026.00,96.71
1025.00,96.75
1024.00,96.78
1023.00,96.81
1022.00,96.83
1021.00,96.85
1020.00,96.87
1019.00,96.90
1018.00,96.94
1017.00,96.98
1016.00,97.01
1015.00,97.03
1014.00,97.03
1013.00,97.03
1012.00,97.04
1011.00,97.06
1010.00,97.08
1009.00,97.10
1008.00,97.11
1007.00,97.12
1006.00,97.13
1005.00,97.14
1004.00,97.15
1003.00,97.15
1002.00,97.17
1001.00,97.17
1000.00,97.16
999.00,97.15
998.00,97.16
997.00,97.18
996.00,97.20
995.00,97.21
994.00,97.23
993.00,97.25
992.00,97.26
991.00,97.25
990.00,97.23
989.00,97.22
988.00,97.23
987.00,97.25
986.00,97.26
985.00,97.25
984.00,97.25
983.00,97.25
982.00,97.26
981.00,97.27
980.00,97.29
979.00,97.31
978.00,97.32
977.00,97.32
976.00,97.33
975.00,97.33
974.00,97.30
973.00,97.27
972.00,97.24
971.00,97.24
970.00,97.25
969.00,97.28
968.00,97.30
967.00,97.32
966.00,97.33
965.00,97.32
964.00,97.30
963.00,97.28
962.00,97.27
961.00,97.27
960.00,97.28
959.00,97.28
958.00,97.29
957.00,97.28
956.00,97.27
955.00,97.25
954.00,97.24
953.00,97.23
952.00,97.23
951.00,97.24
950.00,97.25
949.00,97.26
948.00,97.26
947.00,97.27
946.00,97.28
945.00,97.28
944.00,97.27
943.00,97.27
942.00,97.26
941.00,97.27
940.00,97.28
939.00,97.31
938.00,97.33
937.00,97.34
936.00,97.35
935.00,97.34
934.00,97.33
933.00,97.31
932.00,97.32
931.00,97.34
930.00,97.37
929.00,97.40
928.00,97.40
927.00,97.39
926.00,97.40
925.00,97.43
924.00,97.46
923.00,97.49
922.00,97.51
921.00,97.50
920.00,97.48
919.00,97.47
918.00,97.46
917.00,97.47
916.00,97.49
915.00,97.51
914.00,97.54
913.00,97.56
912.00,97.56
911.00,97.55
910.00,97.54
909.00,97.52
908.00,97.51
907.00,97.50
906.00,97.51
905.00,97.53
904.00,97.56
903.00,97.59
902.00,97.60
901.00,97.61
900.00,97.62
899.00,97.64
898.00,97.65
897.00,97.64
896.00,97.63
895.00,97.63
894.00,97.63
893.00,97.64
892.00,97.65
891.00,97.66
890.00,97.67
889.00,97.68
888.00,97.68
887.00,97.67
886.00,97.66
885.00,97.65
884.00,97.63
883.00,97.61
882.00,97.59
881.00,97.58
880.00,97.58
879.00,97.61
878.00,97.64
877.00,97.68
876.00,97.69
875.00,97.68
874.00,97.67
873.00,97.69
872.00,97.71
871.00,97.72
870.00,97.73
869.00,97.74
868.00,97.76
867.00,97.76
866.00,97.73
865.00,97.71
864.00,97.71
863.00,97.72
862.00,97.73
861.00,97.71
860.00,97.68
859.00,97.65
858.00,97.64
857.00,97.64
856.00,97.64
855.00,97.64
854.00,97.65
853.00,97.67
852.00,97.70
851.00,97.73
850.00,97.76
849.00,97.80
848.00,97.81
847.00,97.80
846.00,97.76
845.00,97.72
844.00,97.70
843.00,97.68
842.00,97.68
841.00,97.67
840.00,97.67
839.00,97.67
838.00,97.67
837.00,97.66
836.00,97.64
835.00,97.62
834.00,97.60
833.00,97.61
832.00,97.64
831.00,97.68
830.00,97.71
829.00,97.72
828.00,97.73
827.00,97.73
826.00,97.72
825.00,97.72
824.00,97.73
823.00,97.75
822.00,97.76
821.00,97.76
820.00,97.75
819.00,97.74
818.00,97.72
817.00,97.70
816.00,97.68
815.00,97.67
814.00,97.67
813.00,97.68
812.00,97.69
811.00,97.69
810.00,97.68
809.00,97.67
808.00,97.66
807.00,97.66
806.00,97.66
805.00,97.67
804.00,97.68
803.00,97.68
802.00,97.66
801.00,97.62
800.00,97.59
799.00,97.59
798.00,97.60
797.00,97.62
796.00,97.65
795.00,97.67
794.00,97.68
793.00,97.66
792.00,97.64
791.00,97.66
790.00,97.71
789.00,97.76
788.00,97.76
787.00,97.71
786.00,97.66
785.00,97.63
784.00,97.64
783.00,97.67
782.00,97.71
781.00,97.72
780.00,97.71
779.00,97.68
778.00,97.65
777.00,97.63
776.00,97.62
775.00,97.61
774.00,97.61
773.00,97.65
772.00,97.71
771.00,97.78
770.00,97.81
769.00,97.81
768.00,97.79
767.00,97.77
766.00,97.76
765.00,97.76
764.00,97.75
763.00,97.71
762.00,97.67
761.00,97.63
760.00,97.60
759.00,97.58
758.00,97.59
757.00,97.61
756.00,97.66
755.00,97.72
754.00,97.76
753.00,97.78
752.00,97.78
751.00,97.76
750.00,97.74
749.00,97.74
748.00,97.75
747.00,97.77
746.00,97.78
745.00,97.78
744.00,97.77
743.00,97.76
742.00,97.75
741.00,97.76
740.00,97.78
739.00,97.80
738.00,97.81
737.00,97.80
736.00,97.77
735.00,97.77
734.00,97.79
733.00,97.81
732.00,97.80
731.00,97.77
730.00,97.76
729.00,97.77
728.00,97.79
727.00,97.77
726.00,97.73
725.00,97.68
724.00,97.64
723.00,97.58
722.00,97.52
721.00,97.49
720.00,97.49
719.00,97.51
718.00,97.53
717.00,97.52
716.00,97.52
715.00,97.53
714.00,97.52
713.00,97.50
712.00,97.48
711.00,97.49
710.00,97.52
709.00,97.53
708.00,97.54
707.00,97.54
706.00,97.55
705.00,97.55
704.00,97.56
703.00,97.56
702.00,97.56
701.00,97.57
700.00,97.56
699.00,97.55
698.00,97.54
697.00,97.53
696.00,97.52
695.00,97.50
694.00,97.47
693.00,97.45
692.00,97.47
691.00,97.52
690.00,97.60
689.00,97.67
688.00,97.67
687.00,97.61
686.00,97.54
685.00,97.49
684.00,97.48
683.00,97.46
682.00,97.41
681.00,97.30
680.00,97.17
679.00,97.08
678.00,97.04
677.00,97.04
676.00,97.03
675.00,96.97
674.00,96.90
673.00,96.85
672.00,96.82
671.00,96.78
670.00,96.69
669.00,96.59
668.00,96.50
667.00,96.51
666.00,96.62
665.00,96.71
664.00,96.72
663.00,96.70
662.00,96.70
661.00,96.69
660.00,96.63
659.00,96.55
658.00,96.48
657.00,96.45
656.00,96.46
655.00,96.51
654.00,96.57
653.00,96.61
652.00,96.61
651.00,96.59
650.00,96.56
649.00,96.55
648.00,96.58
647.00,96.65
646.00,96.74
645.00,96.78
644.00,96.74
643.00,96.64
642.00,96.55
641.00,96.55
640.00,96.58
639.00,96.57
638.00,96.45
637.00,96.31
636.00,96.28
635.00,96.41
634.00,96.59
633.00,96.66
632.00,96.57
631.00,96.44
630.00,96.37
629.00,96.39
628.00,96.45
627.00,96.52
626.00,96.62
625.00,96.80
624.00,97.08
623.00,97.39
622.00,97.64
621.00,97.71
620.00,97.56
619.00,97.23
618.00,96.88
617.00,96.64
616.00,96.60
615.00,96.75
614.00,97.00
613.00,97.17
612.00,97.11
611.00,96.86
610.00,96.60
609.00,96.49
608.00,96.51
607.00,96.55
606.00,96.56
605.00,96.58
604.00,96.69
603.00,96.90
602.00,97.19
601.00,97.45
600.00,97.53
599.00,97.36
598.00,97.03
597.00,96.76
596.00,96.75
595.00,97.01
594.00,97.33
593.00,97.52
592.00,97.49
591.00,97.27
590.00,96.99
589.00,96.78
588.00,96.74
587.00,96.87
586.00,97.06
585.00,97.13
584.00,97.02
583.00,96.83
582.00,96.69
581.00,96.57
580.00,96.37
579.00,96.12
578.00,96.06
577.00,96.32
576.00,96.71
575.00,96.90
574.00,96.74
573.00,96.39
572.00,96.10
571.00,96.00
570.00,96.14
569.00,96.51
568.00,97.05
567.00,97.57
566.00,97.86
565.00,97.88
564.00,97.80
563.00,97.82
562.00,98.01
561.00,98.28
560.00,98.45
559.00,98.40
558.00,98.05
557.00,97.43
556.00,96.65
555.00,96.01
554.00,95.81
553.00,96.01
552.00,96.22
551.00,96.02
550.00,95.49
