Created as New Dataset,61 Modacrylic Monsanto Elura USA Brown. PAN +VBr + aromatic sulphonate dye site. Wig fiber. Obsolete.
cm-1,%T
4000.00,97.92
3999.00,97.90
3998.00,97.89
3997.00,97.88
3996.00,97.88
3995.00,97.89
3994.00,97.91
3993.00,97.93
3992.00,97.94
3991.00,97.94
3990.00,97.94
3989.00,97.93
3988.00,97.92
3987.00,97.91
3986.00,97.90
3985.00,97.90
3984.00,97.90
3983.00,97.90
3982.00,97.90
3981.00,97.91
3980.00,97.91
3979.00,97.92
3978.00,97.93
3977.00,97.95
3976.00,97.97
3975.00,97.98
3974.00,97.97
3973.00,97.96
3972.00,97.94
3971.00,97.93
3970.00,97.91
3969.00,97.91
3968.00,97.92
3967.00,97.94
3966.00,97.95
3965.00,97.96
3964.00,97.94
3963.00,97.91
3962.00,97.89
3961.00,97.87
3960.00,97.87
3959.00,97.88
3958.00,97.90
3957.00,97.92
3956.00,97.92
3955.00,97.92
3954.00,97.91
3953.00,97.90
3952.00,97.88
3951.00,97.87
3950.00,97.85
3949.00,97.84
3948.00,97.84
3947.00,97.85
3946.00,97.86
3945.00,97.86
3944.00,97.86
3943.00,97.86
3942.00,97.87
3941.00,97.87
3940.00,97.87
3939.00,97.88
3938.00,97.90
3937.00,97.90
3936.00,97.91
3935.00,97.90
3934.00,97.88
3933.00,97.87
3932.00,97.86
3931.00,97.87
3930.00,97.88
3929.00,97.90
3928.00,97.92
3927.00,97.93
3926.00,97.93
3925.00,97.94
3924.00,97.95
3923.00,97.95
3922.00,97.94
3921.00,97.94
3920.00,97.92
3919.00,97.91
3918.00,97.90
3917.00,97.89
3916.00,97.89
3915.00,97.90
3914.00,97.91
3913.00,97.92
3912.00,97.94
3911.00,97.95
3910.00,97.95
3909.00,97.94
3908.00,97.92
3907.00,97.90
3906.00,97.88
3905.00,97.88
3904.00,97.86
3903.00,97.82
3902.00,97.76
3901.00,97.74
3900.00,97.76
3899.00,97.81
3898.00,97.85
3897.00,97.88
3896.00,97.89
3895.00,97.89
3894.00,97.88
3893.00,97.88
3892.00,97.89
3891.00,97.90
3890.00,97.89
3889.00,97.86
3888.00,97.82
3887.00,97.82
3886.00,97.85
3885.00,97.88
3884.00,97.87
3883.00,97.84
3882.00,97.83
3881.00,97.84
3880.00,97.86
3879.00,97.87
3878.00,97.86
3877.00,97.85
3876.00,97.85
3875.00,97.88
3874.00,97.89
3873.00,97.87
3872.00,97.84
3871.00,97.83
3870.00,97.85
3869.00,97.84
3868.00,97.80
3867.00,97.76
3866.00,97.75
3865.00,97.78
3864.00,97.80
3863.00,97.81
3862.00,97.81
3861.00,97.82
3860.00,97.85
3859.00,97.88
3858.00,97.90
3857.00,97.89
3856.00,97.86
3855.00,97.86
3854.00,97.87
3853.00,97.87
3852.00,97.83
3851.00,97.80
3850.00,97.79
3849.00,97.80
3848.00,97.80
3847.00,97.80
3846.00,97.80
3845.00,97.81
3844.00,97.84
3843.00,97.88
3842.00,97.91
3841.00,97.92
3840.00,97.92
3839.00,97.90
3838.00,97.88
3837.00,97.85
3836.00,97.82
3835.00,97.80
3834.00,97.78
3833.00,97.77
3832.00,97.77
3831.00,97.78
3830.00,97.79
3829.00,97.80
3828.00,97.82
3827.00,97.85
3826.00,97.87
3825.00,97.87
3824.00,97.85
3823.00,97.84
3822.00,97.84
3821.00,97.84
3820.00,97.82
3819.00,97.78
3818.00,97.74
3817.00,97.75
3816.00,97.77
3815.00,97.78
3814.00,97.77
3813.00,97.78
3812.00,97.81
3811.00,97.84
3810.00,97.84
3809.00,97.84
3808.00,97.84
3807.00,97.87
3806.00,97.88
3805.00,97.86
3804.00,97.83
3803.00,97.82
3802.00,97.84
3801.00,97.86
3800.00,97.83
3799.00,97.79
3798.00,97.76
3797.00,97.76
3796.00,97.77
3795.00,97.78
3794.00,97.77
3793.00,97.78
3792.00,97.80
3791.00,97.82
3790.00,97.83
3789.00,97.82
3788.00,97.80
3787.00,97.79
3786.00,97.78
3785.00,97.79
3784.00,97.80
3783.00,97.80
3782.00,97.80
3781.00,97.78
3780.00,97.77
3779.00,97.76
3778.00,97.74
3777.00,97.72
3776.00,97.74
3775.00,97.77
3774.00,97.80
3773.00,97.81
3772.00,97.80
3771.00,97.79
3770.00,97.78
3769.00,97.76
3768.00,97.74
3767.00,97.72
3766.00,97.72
3765.00,97.73
3764.00,97.73
3763.00,97.71
3762.00,97.69
3761.00,97.69
3760.00,97.70
3759.00,97.72
3758.00,97.74
3757.00,97.76
3756.00,97.78
3755.00,97.78
3754.00,97.77
3753.00,97.76
3752.00,97.74
3751.00,97.73
3750.00,97.74
3749.00,97.75
3748.00,97.75
3747.00,97.73
3746.00,97.73
3745.00,97.77
3744.00,97.79
3743.00,97.77
3742.00,97.73
3741.00,97.72
3740.00,97.73
3739.00,97.73
3738.00,97.71
3737.00,97.70
3736.00,97.69
3735.00,97.68
3734.00,97.67
3733.00,97.67
3732.00,97.68
3731.00,97.69
3730.00,97.67
3729.00,97.65
3728.00,97.64
3727.00,97.64
3726.00,97.63
3725.00,97.60
3724.00,97.58
3723.00,97.57
3722.00,97.59
3721.00,97.61
3720.00,97.64
3719.00,97.66
3718.00,97.67
3717.00,97.68
3716.00,97.67
3715.00,97.66
3714.00,97.66
3713.00,97.69
3712.00,97.72
3711.00,97.73
3710.00,97.72
3709.00,97.72
3708.00,97.72
3707.00,97.73
3706.00,97.73
3705.00,97.72
3704.00,97.70
3703.00,97.70
3702.00,97.69
3701.00,97.69
3700.00,97.69
3699.00,97.67
3698.00,97.67
3697.00,97.67
3696.00,97.67
3695.00,97.67
3694.00,97.66
3693.00,97.67
3692.00,97.67
3691.00,97.67
3690.00,97.66
3689.00,97.66
3688.00,97.66
3687.00,97.65
3686.00,97.64
3685.00,97.63
3684.00,97.63
3683.00,97.63
3682.00,97.64
3681.00,97.65
3680.00,97.68
3679.00,97.71
3678.00,97.71
3677.00,97.70
3676.00,97.69
3675.00,97.68
3674.00,97.64
3673.00,97.60
3672.00,97.56
3671.00,97.55
3670.00,97.54
3669.00,97.53
3668.00,97.51
3667.00,97.51
3666.00,97.51
3665.00,97.52
3664.00,97.53
3663.00,97.53
3662.00,97.54
3661.00,97.54
3660.00,97.54
3659.00,97.53
3658.00,97.52
3657.00,97.52
3656.00,97.53
3655.00,97.53
3654.00,97.50
3653.00,97.48
3652.00,97.49
3651.00,97.51
3650.00,97.50
3649.00,97.43
3648.00,97.36
3647.00,97.32
3646.00,97.33
3645.00,97.36
3644.00,97.40
3643.00,97.43
3642.00,97.46
3641.00,97.47
3640.00,97.47
3639.00,97.47
3638.00,97.47
3637.00,97.46
3636.00,97.45
3635.00,97.43
3634.00,97.41
3633.00,97.37
3632.00,97.31
3631.00,97.25
3630.00,97.23
3629.00,97.26
3628.00,97.30
3627.00,97.34
3626.00,97.36
3625.00,97.37
3624.00,97.39
3623.00,97.39
3622.00,97.40
3621.00,97.40
3620.00,97.40
3619.00,97.40
3618.00,97.40
3617.00,97.40
3616.00,97.40
3615.00,97.40
3614.00,97.41
3613.00,97.41
3612.00,97.41
3611.00,97.40
3610.00,97.39
3609.00,97.39
3608.00,97.40
3607.00,97.41
3606.00,97.40
3605.00,97.39
3604.00,97.37
3603.00,97.37
3602.00,97.37
3601.00,97.38
3600.00,97.39
3599.00,97.40
3598.00,97.41
3597.00,97.40
3596.00,97.39
3595.00,97.38
3594.00,97.38
3593.00,97.41
3592.00,97.43
3591.00,97.44
3590.00,97.43
3589.00,97.42
3588.00,97.41
3587.00,97.40
3586.00,97.40
3585.00,97.40
3584.00,97.41
3583.00,97.42
3582.00,97.43
3581.00,97.44
3580.00,97.44
3579.00,97.43
3578.00,97.43
3577.00,97.43
3576.00,97.43
3575.00,97.43
3574.00,97.44
3573.00,97.45
3572.00,97.43
3571.00,97.40
3570.00,97.37
3569.00,97.37
3568.00,97.40
3567.00,97.43
3566.00,97.43
3565.00,97.41
3564.00,97.40
3563.00,97.40
3562.00,97.41
3561.00,97.41
3560.00,97.41
3559.00,97.40
3558.00,97.40
3557.00,97.41
3556.00,97.41
3555.00,97.40
3554.00,97.39
3553.00,97.37
3552.00,97.36
3551.00,97.37
3550.00,97.37
3549.00,97.38
3548.00,97.39
3547.00,97.40
3546.00,97.41
3545.00,97.40
3544.00,97.38
3543.00,97.34
3542.00,97.30
3541.00,97.26
3540.00,97.24
3539.00,97.25
3538.00,97.27
3537.00,97.30
3536.00,97.32
3535.00,97.35
3534.00,97.36
3533.00,97.38
3532.00,97.39
3531.00,97.38
3530.00,97.37
3529.00,97.35
3528.00,97.35
3527.00,97.35
3526.00,97.35
3525.00,97.36
3524.00,97.38
3523.00,97.40
3522.00,97.41
3521.00,97.41
3520.00,97.39
3519.00,97.36
3518.00,97.34
3517.00,97.32
3516.00,97.32
3515.00,97.32
3514.00,97.33
3513.00,97.32
3512.00,97.30
3511.00,97.28
3510.00,97.28
3509.00,97.30
3508.00,97.33
3507.00,97.35
3506.00,97.35
3505.00,97.32
3504.00,97.29
3503.00,97.28
3502.00,97.29
3501.00,97.32
3500.00,97.36
3499.00,97.39
3498.00,97.40
3497.00,97.39
3496.00,97.37
3495.00,97.36
3494.00,97.36
3493.00,97.37
3492.00,97.37
3491.00,97.36
3490.00,97.34
3489.00,97.33
3488.00,97.33
3487.00,97.35
3486.00,97.36
3485.00,97.37
3484.00,97.37
3483.00,97.37
3482.00,97.37
3481.00,97.37
3480.00,97.38
3479.00,97.39
3478.00,97.41
3477.00,97.41
3476.00,97.41
3475.00,97.39
3474.00,97.37
3473.00,97.35
3472.00,97.34
3471.00,97.34
3470.00,97.36
3469.00,97.37
3468.00,97.37
3467.00,97.35
3466.00,97.33
3465.00,97.33
3464.00,97.35
3463.00,97.37
3462.00,97.40
3461.00,97.40
3460.00,97.40
3459.00,97.39
3458.00,97.39
3457.00,97.38
3456.00,97.35
3455.00,97.31
3454.00,97.27
3453.00,97.25
3452.00,97.25
3451.00,97.26
3450.00,97.27
3449.00,97.28
3448.00,97.29
3447.00,97.31
3446.00,97.32
3445.00,97.33
3444.00,97.33
3443.00,97.33
3442.00,97.33
3441.00,97.33
3440.00,97.35
3439.00,97.36
3438.00,97.36
3437.00,97.34
3436.00,97.32
3435.00,97.31
3434.00,97.30
3433.00,97.30
3432.00,97.31
3431.00,97.31
3430.00,97.30
3429.00,97.29
3428.00,97.29
3427.00,97.30
3426.00,97.32
3425.00,97.32
3424.00,97.31
3423.00,97.30
3422.00,97.29
3421.00,97.29
3420.00,97.30
3419.00,97.31
3418.00,97.32
3417.00,97.31
3416.00,97.29
3415.00,97.27
3414.00,97.25
3413.00,97.24
3412.00,97.26
3411.00,97.28
3410.00,97.30
3409.00,97.32
3408.00,97.33
3407.00,97.33
3406.00,97.33
3405.00,97.34
3404.00,97.35
3403.00,97.37
3402.00,97.37
3401.00,97.35
3400.00,97.32
3399.00,97.31
3398.00,97.30
3397.00,97.31
3396.00,97.31
3395.00,97.32
3394.00,97.32
3393.00,97.33
3392.00,97.34
3391.00,97.34
3390.00,97.33
3389.00,97.32
3388.00,97.31
3387.00,97.31
3386.00,97.32
3385.00,97.32
3384.00,97.32
3383.00,97.31
3382.00,97.31
3381.00,97.30
3380.00,97.29
3379.00,97.27
3378.00,97.25
3377.00,97.24
3376.00,97.23
3375.00,97.22
3374.00,97.24
3373.00,97.27
3372.00,97.31
3371.00,97.34
3370.00,97.35
3369.00,97.34
3368.00,97.32
3367.00,97.30
3366.00,97.29
3365.00,97.29
3364.00,97.30
3363.00,97.31
3362.00,97.32
3361.00,97.33
3360.00,97.33
3359.00,97.33
3358.00,97.31
3357.00,97.29
3356.00,97.28
3355.00,97.28
3354.00,97.28
3353.00,97.28
3352.00,97.28
3351.00,97.28
3350.00,97.28
3349.00,97.27
3348.00,97.27
3347.00,97.26
3346.00,97.27
3345.00,97.28
3344.00,97.30
3343.00,97.30
3342.00,97.30
3341.00,97.29
3340.00,97.28
3339.00,97.27
3338.00,97.28
3337.00,97.28
3336.00,97.29
3335.00,97.29
3334.00,97.30
3333.00,97.30
3332.00,97.29
3331.00,97.28
3330.00,97.25
3329.00,97.23
3328.00,97.23
3327.00,97.25
3326.00,97.28
3325.00,97.30
3324.00,97.30
3323.00,97.29
3322.00,97.29
3321.00,97.28
3320.00,97.28
3319.00,97.27
3318.00,97.26
3317.00,97.25
3316.00,97.24
3315.00,97.24
3314.00,97.26
3313.00,97.27
3312.00,97.26
3311.00,97.25
3310.00,97.24
3309.00,97.24
3308.00,97.25
3307.00,97.26
3306.00,97.27
3305.00,97.27
3304.00,97.26
3303.00,97.25
3302.00,97.24
3301.00,97.23
3300.00,97.23
3299.00,97.23
3298.00,97.24
3297.00,97.25
3296.00,97.26
3295.00,97.28
3294.00,97.28
3293.00,97.29
3292.00,97.28
3291.00,97.27
3290.00,97.25
3289.00,97.23
3288.00,97.22
3287.00,97.22
3286.00,97.23
3285.00,97.24
3284.00,97.25
3283.00,97.26
3282.00,97.26
3281.00,97.25
3280.00,97.25
3279.00,97.26
3278.00,97.27
3277.00,97.27
3276.00,97.26
3275.00,97.24
3274.00,97.22
3273.00,97.22
3272.00,97.23
3271.00,97.24
3270.00,97.23
3269.00,97.21
3268.00,97.19
3267.00,97.19
3266.00,97.20
3265.00,97.23
3264.00,97.25
3263.00,97.25
3262.00,97.24
3261.00,97.24
3260.00,97.24
3259.00,97.25
3258.00,97.27
3257.00,97.28
3256.00,97.29
3255.00,97.29
3254.00,97.29
3253.00,97.28
3252.00,97.26
3251.00,97.25
3250.00,97.24
3249.00,97.23
3248.00,97.22
3247.00,97.21
3246.00,97.20
3245.00,97.19
3244.00,97.18
3243.00,97.19
3242.00,97.21
3241.00,97.23
3240.00,97.24
3239.00,97.23
3238.00,97.21
3237.00,97.19
3236.00,97.18
3235.00,97.19
3234.00,97.21
3233.00,97.22
3232.00,97.21
3231.00,97.20
3230.00,97.20
3229.00,97.21
3228.00,97.22
3227.00,97.24
3226.00,97.26
3225.00,97.27
3224.00,97.27
3223.00,97.28
3222.00,97.28
3221.00,97.28
3220.00,97.28
3219.00,97.27
3218.00,97.25
3217.00,97.24
3216.00,97.24
3215.00,97.26
3214.00,97.27
3213.00,97.26
3212.00,97.26
3211.00,97.25
3210.00,97.25
3209.00,97.26
3208.00,97.27
3207.00,97.28
3206.00,97.28
3205.00,97.28
3204.00,97.28
3203.00,97.28
3202.00,97.29
3201.00,97.29
3200.00,97.28
3199.00,97.27
3198.00,97.25
3197.00,97.24
3196.00,97.23
3195.00,97.23
3194.00,97.23
3193.00,97.24
3192.00,97.24
3191.00,97.25
3190.00,97.25
3189.00,97.25
3188.00,97.25
3187.00,97.24
3186.00,97.24
3185.00,97.25
3184.00,97.26
3183.00,97.29
3182.00,97.30
3181.00,97.31
3180.00,97.30
3179.00,97.28
3178.00,97.27
3177.00,97.27
3176.00,97.28
3175.00,97.28
3174.00,97.27
3173.00,97.24
3172.00,97.22
3171.00,97.20
3170.00,97.20
3169.00,97.21
3168.00,97.23
3167.00,97.26
3166.00,97.28
3165.00,97.28
3164.00,97.28
3163.00,97.28
3162.00,97.28
3161.00,97.28
3160.00,97.27
3159.00,97.27
3158.00,97.29
3157.00,97.32
3156.00,97.35
3155.00,97.35
3154.00,97.33
3153.00,97.30
3152.00,97.27
3151.00,97.26
3150.00,97.26
3149.00,97.26
3148.00,97.27
3147.00,97.29
3146.00,97.31
3145.00,97.32
3144.00,97.32
3143.00,97.30
3142.00,97.29
3141.00,97.29
3140.00,97.30
3139.00,97.31
3138.00,97.31
3137.00,97.30
3136.00,97.28
3135.00,97.28
3134.00,97.28
3133.00,97.27
3132.00,97.26
3131.00,97.26
3130.00,97.27
3129.00,97.29
3128.00,97.30
3127.00,97.30
3126.00,97.28
3125.00,97.26
3124.00,97.25
3123.00,97.25
3122.00,97.25
3121.00,97.26
3120.00,97.25
3119.00,97.25
3118.00,97.24
3117.00,97.23
3116.00,97.23
3115.00,97.23
3114.00,97.24
3113.00,97.26
3112.00,97.26
3111.00,97.26
3110.00,97.26
3109.00,97.25
3108.00,97.25
3107.00,97.25
3106.00,97.27
3105.00,97.29
3104.00,97.30
3103.00,97.31
3102.00,97.31
3101.00,97.30
3100.00,97.29
3099.00,97.27
3098.00,97.26
3097.00,97.25
3096.00,97.26
3095.00,97.27
3094.00,97.29
3093.00,97.29
3092.00,97.29
3091.00,97.29
3090.00,97.28
3089.00,97.26
3088.00,97.25
3087.00,97.24
3086.00,97.25
3085.00,97.26
3084.00,97.27
3083.00,97.28
3082.00,97.29
3081.00,97.29
3080.00,97.28
3079.00,97.26
3078.00,97.25
3077.00,97.24
3076.00,97.24
3075.00,97.25
3074.00,97.26
3073.00,97.26
3072.00,97.26
3071.00,97.25
3070.00,97.25
3069.00,97.24
3068.00,97.24
3067.00,97.25
3066.00,97.26
3065.00,97.27
3064.00,97.26
3063.00,97.24
3062.00,97.22
3061.00,97.20
3060.00,97.19
3059.00,97.21
3058.00,97.23
3057.00,97.26
3056.00,97.26
3055.00,97.25
3054.00,97.22
3053.00,97.20
3052.00,97.19
3051.00,97.20
3050.00,97.21
3049.00,97.21
3048.00,97.20
3047.00,97.20
3046.00,97.19
3045.00,97.19
3044.00,97.18
3043.00,97.17
3042.00,97.17
3041.00,97.18
3040.00,97.19
3039.00,97.19
3038.00,97.20
3037.00,97.20
3036.00,97.20
3035.00,97.20
3034.00,97.19
3033.00,97.17
3032.00,97.15
3031.00,97.15
3030.00,97.16
3029.00,97.18
3028.00,97.20
3027.00,97.21
3026.00,97.20
3025.00,97.17
3024.00,97.15
3023.00,97.13
3022.00,97.12
3021.00,97.12
3020.00,97.14
3019.00,97.15
3018.00,97.16
3017.00,97.16
3016.00,97.15
3015.00,97.13
3014.00,97.12
3013.00,97.12
3012.00,97.12
3011.00,97.13
3010.00,97.13
3009.00,97.12
3008.00,97.12
3007.00,97.11
3006.00,97.10
3005.00,97.08
3004.00,97.06
3003.00,97.04
3002.00,97.02
3001.00,97.00
3000.00,96.99
2999.00,96.98
2998.00,96.97
2997.00,96.95
2996.00,96.94
2995.00,96.93
2994.00,96.92
2993.00,96.91
2992.00,96.88
2991.00,96.86
2990.00,96.85
2989.00,96.83
2988.00,96.82
2987.00,96.82
2986.00,96.81
2985.00,96.81
2984.00,96.80
2983.00,96.79
2982.00,96.78
2981.00,96.78
2980.00,96.78
2979.00,96.76
2978.00,96.74
2977.00,96.72
2976.00,96.70
2975.00,96.68
2974.00,96.66
2973.00,96.65
2972.00,96.65
2971.00,96.66
2970.00,96.67
2969.00,96.67
2968.00,96.65
2967.00,96.62
2966.00,96.60
2965.00,96.59
2964.00,96.59
2963.00,96.59
2962.00,96.58
2961.00,96.57
2960.00,96.54
2959.00,96.51
2958.00,96.49
2957.00,96.46
2956.00,96.45
2955.00,96.43
2954.00,96.42
2953.00,96.41
2952.00,96.38
2951.00,96.35
2950.00,96.31
2949.00,96.26
2948.00,96.21
2947.00,96.16
2946.00,96.11
2945.00,96.08
2944.00,96.06
2943.00,96.04
2942.00,96.02
2941.00,95.99
2940.00,95.96
2939.00,95.92
2938.00,95.89
2937.00,95.87
2936.00,95.85
2935.00,95.83
2934.00,95.80
2933.00,95.77
2932.00,95.74
2931.00,95.72
2930.00,95.71
2929.00,95.69
2928.00,95.68
2927.00,95.69
2926.00,95.69
2925.00,95.70
2924.00,95.71
2923.00,95.70
2922.00,95.70
2921.00,95.70
2920.00,95.73
2919.00,95.76
2918.00,95.81
2917.00,95.86
2916.00,95.91
2915.00,95.97
2914.00,96.03
2913.00,96.09
2912.00,96.14
2911.00,96.18
2910.00,96.23
2909.00,96.29
2908.00,96.34
2907.00,96.39
2906.00,96.43
2905.00,96.47
2904.00,96.50
2903.00,96.53
2902.00,96.56
2901.00,96.58
2900.00,96.59
2899.00,96.60
2898.00,96.60
2897.00,96.61
2896.00,96.64
2895.00,96.68
2894.00,96.71
2893.00,96.73
2892.00,96.74
2891.00,96.75
2890.00,96.76
2889.00,96.77
2888.00,96.77
2887.00,96.77
2886.00,96.77
2885.00,96.76
2884.00,96.77
2883.00,96.77
2882.00,96.78
2881.00,96.79
2880.00,96.80
2879.00,96.81
2878.00,96.80
2877.00,96.80
2876.00,96.80
2875.00,96.80
2874.00,96.81
2873.00,96.81
2872.00,96.82
2871.00,96.83
2870.00,96.84
2869.00,96.84
2868.00,96.83
2867.00,96.81
2866.00,96.81
2865.00,96.81
2864.00,96.82
2863.00,96.82
2862.00,96.82
2861.00,96.82
2860.00,96.80
2859.00,96.78
2858.00,96.75
2857.00,96.72
2856.00,96.70
2855.00,96.69
2854.00,96.68
2853.00,96.67
2852.00,96.69
2851.00,96.71
2850.00,96.75
2849.00,96.79
2848.00,96.83
2847.00,96.87
2846.00,96.89
2845.00,96.92
2844.00,96.94
2843.00,96.96
2842.00,97.00
2841.00,97.04
2840.00,97.08
2839.00,97.11
2838.00,97.13
2837.00,97.14
2836.00,97.15
2835.00,97.15
2834.00,97.14
2833.00,97.14
2832.00,97.14
2831.00,97.14
2830.00,97.15
2829.00,97.16
2828.00,97.17
2827.00,97.18
2826.00,97.19
2825.00,97.20
2824.00,97.20
2823.00,97.21
2822.00,97.21
2821.00,97.22
2820.00,97.21
2819.00,97.21
2818.00,97.21
2817.00,97.21
2816.00,97.21
2815.00,97.21
2814.00,97.22
2813.00,97.21
2812.00,97.20
2811.00,97.19
2810.00,97.18
2809.00,97.18
2808.00,97.19
2807.00,97.20
2806.00,97.21
2805.00,97.22
2804.00,97.23
2803.00,97.24
2802.00,97.24
2801.00,97.24
2800.00,97.24
2799.00,97.23
2798.00,97.22
2797.00,97.21
2796.00,97.21
2795.00,97.22
2794.00,97.23
2793.00,97.25
2792.00,97.26
2791.00,97.27
2790.00,97.27
2789.00,97.26
2788.00,97.25
2787.00,97.24
2786.00,97.24
2785.00,97.24
2784.00,97.26
2783.00,97.27
2782.00,97.28
2781.00,97.29
2780.00,97.29
2779.00,97.29
2778.00,97.28
2777.00,97.27
2776.00,97.25
2775.00,97.24
2774.00,97.24
2773.00,97.25
2772.00,97.26
2771.00,97.27
2770.00,97.28
2769.00,97.28
2768.00,97.27
2767.00,97.27
2766.00,97.27
2765.00,97.27
2764.00,97.28
2763.00,97.29
2762.00,97.29
2761.00,97.27
2760.00,97.25
2759.00,97.23
2758.00,97.23
2757.00,97.25
2756.00,97.27
2755.00,97.29
2754.00,97.30
2753.00,97.30
2752.00,97.30
2751.00,97.30
2750.00,97.29
2749.00,97.30
2748.00,97.30
2747.00,97.30
2746.00,97.29
2745.00,97.28
2744.00,97.28
2743.00,97.28
2742.00,97.28
2741.00,97.28
2740.00,97.28
2739.00,97.28
2738.00,97.27
2737.00,97.27
2736.00,97.28
2735.00,97.30
2734.00,97.31
2733.00,97.31
2732.00,97.30
2731.00,97.29
2730.00,97.27
2729.00,97.26
2728.00,97.26
2727.00,97.27
2726.00,97.27
2725.00,97.26
2724.00,97.26
2723.00,97.26
2722.00,97.27
2721.00,97.28
2720.00,97.29
2719.00,97.30
2718.00,97.30
2717.00,97.30
2716.00,97.30
2715.00,97.29
2714.00,97.29
2713.00,97.28
2712.00,97.28
2711.00,97.28
2710.00,97.28
2709.00,97.28
2708.00,97.28
2707.00,97.29
2706.00,97.29
2705.00,97.29
2704.00,97.27
2703.00,97.25
2702.00,97.24
2701.00,97.26
2700.00,97.27
2699.00,97.29
2698.00,97.28
2697.00,97.27
2696.00,97.25
2695.00,97.24
2694.00,97.24
2693.00,97.24
2692.00,97.25
2691.00,97.24
2690.00,97.24
2689.00,97.23
2688.00,97.22
2687.00,97.23
2686.00,97.23
2685.00,97.25
2684.00,97.26
2683.00,97.26
2682.00,97.26
2681.00,97.25
2680.00,97.25
2679.00,97.25
2678.00,97.25
2677.00,97.24
2676.00,97.23
2675.00,97.23
2674.00,97.25
2673.00,97.27
2672.00,97.29
2671.00,97.29
2670.00,97.29
2669.00,97.28
2668.00,97.26
2667.00,97.25
2666.00,97.25
2665.00,97.25
2664.00,97.25
2663.00,97.25
2662.00,97.25
2661.00,97.26
2660.00,97.26
2659.00,97.25
2658.00,97.23
2657.00,97.20
2656.00,97.18
2655.00,97.17
2654.00,97.17
2653.00,97.18
2652.00,97.19
2651.00,97.18
2650.00,97.16
2649.00,97.14
2648.00,97.11
2647.00,97.09
2646.00,97.08
2645.00,97.08
2644.00,97.09
2643.00,97.11
2642.00,97.12
2641.00,97.13
2640.00,97.13
2639.00,97.13
2638.00,97.13
2637.00,97.13
2636.00,97.13
2635.00,97.12
2634.00,97.13
2633.00,97.13
2632.00,97.12
2631.00,97.11
2630.00,97.10
2629.00,97.09
2628.00,97.08
2627.00,97.07
2626.00,97.07
2625.00,97.07
2624.00,97.07
2623.00,97.07
2622.00,97.07
2621.00,97.07
2620.00,97.07
2619.00,97.08
2618.00,97.09
2617.00,97.09
2616.00,97.08
2615.00,97.09
2614.00,97.09
2613.00,97.10
2612.00,97.10
2611.00,97.08
2610.00,97.06
2609.00,97.03
2608.00,97.02
2607.00,97.01
2606.00,97.02
2605.00,97.02
2604.00,97.02
2603.00,97.01
2602.00,97.01
2601.00,97.00
2600.00,97.01
2599.00,97.01
2598.00,97.01
2597.00,97.02
2596.00,97.03
2595.00,97.06
2594.00,97.08
2593.00,97.09
2592.00,97.09
2591.00,97.08
2590.00,97.07
2589.00,97.06
2588.00,97.06
2587.00,97.06
2586.00,97.05
2585.00,97.03
2584.00,97.01
2583.00,97.00
2582.00,97.01
2581.00,97.01
2580.00,97.02
2579.00,97.01
2578.00,97.00
2577.00,96.99
2576.00,96.97
2575.00,96.95
2574.00,96.94
2573.00,96.93
2572.00,96.94
2571.00,96.96
2570.00,96.97
2569.00,96.97
2568.00,96.96
2567.00,96.95
2566.00,96.95
2565.00,96.96
2564.00,96.96
2563.00,96.96
2562.00,96.97
2561.00,96.97
2560.00,96.97
2559.00,96.97
2558.00,96.97
2557.00,96.98
2556.00,96.98
2555.00,96.98
2554.00,96.98
2553.00,96.97
2552.00,96.96
2551.00,96.94
2550.00,96.94
2549.00,96.94
2548.00,96.97
2547.00,97.01
2546.00,97.04
2545.00,97.05
2544.00,97.05
2543.00,97.02
2542.00,97.00
2541.00,96.97
2540.00,96.95
2539.00,96.93
2538.00,96.92
2537.00,96.92
2536.00,96.91
2535.00,96.91
2534.00,96.92
2533.00,96.92
2532.00,96.93
2531.00,96.94
2530.00,96.97
2529.00,96.99
2528.00,97.01
2527.00,97.01
2526.00,97.01
2525.00,96.99
2524.00,96.97
2523.00,96.95
2522.00,96.94
2521.00,96.94
2520.00,96.93
2519.00,96.93
2518.00,96.93
2517.00,96.94
2516.00,96.96
2515.00,96.98
2514.00,97.00
2513.00,97.01
2512.00,97.01
2511.00,97.01
2510.00,97.01
2509.00,97.01
2508.00,97.01
2507.00,97.00
2506.00,97.00
2505.00,96.98
2504.00,96.95
2503.00,96.94
2502.00,96.94
2501.00,96.96
2500.00,96.98
2499.00,96.98
2498.00,96.97
2497.00,96.96
2496.00,96.97
2495.00,96.98
2494.00,96.99
2493.00,96.99
2492.00,96.99
2491.00,96.99
2490.00,96.98
2489.00,96.96
2488.00,96.93
2487.00,96.93
2486.00,96.94
2485.00,96.98
2484.00,97.01
2483.00,97.04
2482.00,97.05
2481.00,97.06
2480.00,97.06
2479.00,97.06
2478.00,97.05
2477.00,97.04
2476.00,97.03
2475.00,97.02
2474.00,97.00
2473.00,96.99
2472.00,96.98
2471.00,96.99
2470.00,97.00
2469.00,97.02
2468.00,97.02
2467.00,97.02
2466.00,97.01
2465.00,97.01
2464.00,97.02
2463.00,97.03
2462.00,97.04
2461.00,97.04
2460.00,97.03
2459.00,97.02
2458.00,97.02
2457.00,97.03
2456.00,97.05
2455.00,97.06
2454.00,97.07
2453.00,97.07
2452.00,97.06
2451.00,97.05
2450.00,97.03
2449.00,97.01
2448.00,96.99
2447.00,96.97
2446.00,96.97
2445.00,96.98
2444.00,97.00
2443.00,97.03
2442.00,97.04
2441.00,97.05
2440.00,97.04
2439.00,97.03
2438.00,97.02
2437.00,97.01
2436.00,97.00
2435.00,97.00
2434.00,97.00
2433.00,97.00
2432.00,97.02
2431.00,97.05
2430.00,97.07
2429.00,97.08
2428.00,97.06
2427.00,97.03
2426.00,97.01
2425.00,97.01
2424.00,97.02
2423.00,97.03
2422.00,97.01
2421.00,96.99
2420.00,96.98
2419.00,96.99
2418.00,97.02
2417.00,97.04
2416.00,97.04
2415.00,97.04
2414.00,97.03
2413.00,97.03
2412.00,97.03
2411.00,97.03
2410.00,97.04
2409.00,97.05
2408.00,97.06
2407.00,97.07
2406.00,97.09
2405.00,97.10
2404.00,97.10
2403.00,97.10
2402.00,97.09
2401.00,97.10
2400.00,97.10
2399.00,97.11
2398.00,97.11
2397.00,97.09
2396.00,97.08
2395.00,97.09
2394.00,97.10
2393.00,97.12
2392.00,97.14
2391.00,97.16
2390.00,97.17
2389.00,97.18
2388.00,97.19
2387.00,97.19
2386.00,97.19
2385.00,97.21
2384.00,97.25
2383.00,97.29
2382.00,97.32
2381.00,97.34
2380.00,97.35
2379.00,97.35
2378.00,97.35
2377.00,97.36
2376.00,97.37
2375.00,97.39
2374.00,97.42
2373.00,97.43
2372.00,97.45
2371.00,97.45
2370.00,97.43
2369.00,97.39
2368.00,97.35
2367.00,97.30
2366.00,97.25
2365.00,97.21
2364.00,97.21
2363.00,97.27
2362.00,97.37
2361.00,97.48
2360.00,97.54
2359.00,97.50
2358.00,97.37
2357.00,97.20
2356.00,97.07
2355.00,97.05
2354.00,97.10
2353.00,97.16
2352.00,97.20
2351.00,97.25
2350.00,97.29
2349.00,97.32
2348.00,97.33
2347.00,97.33
2346.00,97.33
2345.00,97.32
2344.00,97.30
2343.00,97.29
2342.00,97.30
2341.00,97.32
2340.00,97.33
2339.00,97.33
2338.00,97.32
2337.00,97.31
2336.00,97.29
2335.00,97.27
2334.00,97.25
2333.00,97.23
2332.00,97.21
2331.00,97.20
2330.00,97.21
2329.00,97.23
2328.00,97.23
2327.00,97.20
2326.00,97.16
2325.00,97.13
2324.00,97.14
2323.00,97.17
2322.00,97.17
2321.00,97.14
2320.00,97.10
2319.00,97.07
2318.00,97.07
2317.00,97.07
2316.00,97.05
2315.00,97.04
2314.00,97.03
2313.00,97.05
2312.00,97.07
2311.00,97.08
2310.00,97.07
2309.00,97.05
2308.00,97.02
2307.00,97.01
2306.00,96.99
2305.00,96.99
2304.00,96.98
2303.00,96.98
2302.00,96.96
2301.00,96.95
2300.00,96.95
2299.00,96.94
2298.00,96.92
2297.00,96.91
2296.00,96.89
2295.00,96.87
2294.00,96.85
2293.00,96.82
2292.00,96.79
2291.00,96.78
2290.00,96.78
2289.00,96.77
2288.00,96.75
2287.00,96.71
2286.00,96.68
2285.00,96.67
2284.00,96.68
2283.00,96.70
2282.00,96.73
2281.00,96.76
2280.00,96.77
2279.00,96.76
2278.00,96.74
2277.00,96.72
2276.00,96.72
2275.00,96.71
2274.00,96.71
2273.00,96.70
2272.00,96.69
2271.00,96.66
2270.00,96.62
2269.00,96.60
2268.00,96.59
2267.00,96.59
2266.00,96.59
2265.00,96.57
2264.00,96.54
2263.00,96.48
2262.00,96.43
2261.00,96.36
2260.00,96.27
2259.00,96.19
2258.00,96.11
2257.00,96.05
2256.00,95.97
2255.00,95.83
2254.00,95.64
2253.00,95.42
2252.00,95.22
2251.00,95.05
2250.00,94.90
2249.00,94.74
2248.00,94.56
2247.00,94.38
2246.00,94.22
2245.00,94.10
2244.00,94.03
2243.00,94.02
2242.00,94.08
2241.00,94.22
2240.00,94.41
2239.00,94.64
2238.00,94.88
2237.00,95.13
2236.00,95.37
2235.00,95.61
2234.00,95.84
2233.00,96.04
2232.00,96.18
2231.00,96.26
2230.00,96.31
2229.00,96.38
2228.00,96.45
2227.00,96.48
2226.00,96.48
2225.00,96.49
2224.00,96.51
2223.00,96.54
2222.00,96.55
2221.00,96.57
2220.00,96.58
2219.00,96.57
2218.00,96.52
2217.00,96.47
2216.00,96.44
2215.00,96.44
2214.00,96.45
2213.00,96.46
2212.00,96.47
2211.00,96.48
2210.00,96.49
2209.00,96.48
2208.00,96.49
2207.00,96.49
2206.00,96.44
2205.00,96.38
2204.00,96.33
2203.00,96.35
2202.00,96.39
2201.00,96.42
2200.00,96.42
2199.00,96.39
2198.00,96.37
2197.00,96.36
2196.00,96.35
2195.00,96.34
2194.00,96.30
2193.00,96.27
2192.00,96.27
2191.00,96.30
2190.00,96.36
2189.00,96.42
2188.00,96.44
2187.00,96.43
2186.00,96.39
2185.00,96.34
2184.00,96.34
2183.00,96.38
2182.00,96.43
2181.00,96.46
2180.00,96.43
2179.00,96.35
2178.00,96.26
2177.00,96.21
2176.00,96.22
2175.00,96.29
2174.00,96.37
2173.00,96.43
2172.00,96.43
2171.00,96.37
2170.00,96.29
2169.00,96.26
2168.00,96.30
2167.00,96.34
2166.00,96.33
2165.00,96.25
2164.00,96.13
2163.00,96.04
2162.00,96.03
2161.00,96.11
2160.00,96.25
2159.00,96.39
2158.00,96.48
2157.00,96.52
2156.00,96.54
2155.00,96.55
2154.00,96.55
2153.00,96.54
2152.00,96.52
2151.00,96.51
2150.00,96.51
2149.00,96.52
2148.00,96.54
2147.00,96.58
2146.00,96.60
2145.00,96.60
2144.00,96.58
2143.00,96.58
2142.00,96.61
2141.00,96.66
2140.00,96.71
2139.00,96.76
2138.00,96.79
2137.00,96.80
2136.00,96.81
2135.00,96.84
2134.00,96.89
2133.00,96.94
2132.00,96.97
2131.00,96.99
2130.00,97.00
2129.00,96.99
2128.00,96.94
2127.00,96.88
2126.00,96.81
2125.00,96.75
2124.00,96.73
2123.00,96.73
2122.00,96.75
2121.00,96.78
2120.00,96.78
2119.00,96.78
2118.00,96.76
2117.00,96.76
2116.00,96.76
2115.00,96.75
2114.00,96.73
2113.00,96.71
2112.00,96.69
2111.00,96.69
2110.00,96.68
2109.00,96.67
2108.00,96.67
2107.00,96.69
2106.00,96.70
2105.00,96.70
2104.00,96.69
2103.00,96.67
2102.00,96.67
2101.00,96.68
2100.00,96.69
2099.00,96.71
2098.00,96.72
2097.00,96.74
2096.00,96.75
2095.00,96.76
2094.00,96.77
2093.00,96.78
2092.00,96.79
2091.00,96.81
2090.00,96.82
2089.00,96.81
2088.00,96.78
2087.00,96.75
2086.00,96.72
2085.00,96.69
2084.00,96.67
2083.00,96.64
2082.00,96.61
2081.00,96.59
2080.00,96.57
2079.00,96.57
2078.00,96.60
2077.00,96.65
2076.00,96.68
2075.00,96.69
2074.00,96.67
2073.00,96.64
2072.00,96.62
2071.00,96.62
2070.00,96.64
2069.00,96.66
2068.00,96.66
2067.00,96.65
2066.00,96.65
2065.00,96.64
2064.00,96.65
2063.00,96.65
2062.00,96.65
2061.00,96.65
2060.00,96.64
2059.00,96.65
2058.00,96.67
2057.00,96.71
2056.00,96.72
2055.00,96.69
2054.00,96.62
2053.00,96.52
2052.00,96.44
2051.00,96.39
2050.00,96.40
2049.00,96.45
2048.00,96.52
2047.00,96.55
2046.00,96.54
2045.00,96.50
2044.00,96.45
2043.00,96.42
2042.00,96.40
2041.00,96.38
2040.00,96.39
2039.00,96.41
2038.00,96.44
2037.00,96.47
2036.00,96.48
2035.00,96.48
2034.00,96.47
2033.00,96.48
2032.00,96.50
2031.00,96.52
2030.00,96.52
2029.00,96.50
2028.00,96.46
2027.00,96.41
2026.00,96.38
2025.00,96.37
2024.00,96.39
2023.00,96.40
2022.00,96.38
2021.00,96.34
2020.00,96.30
2019.00,96.29
2018.00,96.31
2017.00,96.34
2016.00,96.39
2015.00,96.45
2014.00,96.49
2013.00,96.49
2012.00,96.46
2011.00,96.46
2010.00,96.52
2009.00,96.61
2008.00,96.69
2007.00,96.71
2006.00,96.65
2005.00,96.54
2004.00,96.47
2003.00,96.47
2002.00,96.54
2001.00,96.62
2000.00,96.65
1999.00,96.61
1998.00,96.54
1997.00,96.48
1996.00,96.46
1995.00,96.45
1994.00,96.44
1993.00,96.42
1992.00,96.42
1991.00,96.44
1990.00,96.45
1989.00,96.44
1988.00,96.41
1987.00,96.39
1986.00,96.37
1985.00,96.33
1984.00,96.28
1983.00,96.21
1982.00,96.16
1981.00,96.15
1980.00,96.19
1979.00,96.26
1978.00,96.35
1977.00,96.44
1976.00,96.50
1975.00,96.51
1974.00,96.50
1973.00,96.49
1972.00,96.52
1971.00,96.58
1970.00,96.60
1969.00,96.56
1968.00,96.51
1967.00,96.49
1966.00,96.51
1965.00,96.55
1964.00,96.58
1963.00,96.60
1962.00,96.60
1961.00,96.59
1960.00,96.57
1959.00,96.59
1958.00,96.63
1957.00,96.68
1956.00,96.73
1955.00,96.77
1954.00,96.78
1953.00,96.76
1952.00,96.71
1951.00,96.68
1950.00,96.70
1949.00,96.75
1948.00,96.79
1947.00,96.82
1946.00,96.81
1945.00,96.77
1944.00,96.72
1943.00,96.68
1942.00,96.68
1941.00,96.71
1940.00,96.74
1939.00,96.76
1938.00,96.78
1937.00,96.80
1936.00,96.80
1935.00,96.80
1934.00,96.79
1933.00,96.79
1932.00,96.79
1931.00,96.79
1930.00,96.79
1929.00,96.80
1928.00,96.82
1927.00,96.83
1926.00,96.82
1925.00,96.79
1924.00,96.77
1923.00,96.78
1922.00,96.81
1921.00,96.84
1920.00,96.87
1919.00,96.89
1918.00,96.90
1917.00,96.92
1916.00,96.93
1915.00,96.93
1914.00,96.92
1913.00,96.90
1912.00,96.88
1911.00,96.87
1910.00,96.87
1909.00,96.88
1908.00,96.87
1907.00,96.87
1906.00,96.87
1905.00,96.87
1904.00,96.87
1903.00,96.88
1902.00,96.90
1901.00,96.91
1900.00,96.91
1899.00,96.90
1898.00,96.89
1897.00,96.89
1896.00,96.90
1895.00,96.93
1894.00,96.96
1893.00,96.99
1892.00,97.00
1891.00,97.00
1890.00,96.99
1889.00,96.97
1888.00,96.96
1887.00,96.95
1886.00,96.94
1885.00,96.92
1884.00,96.91
1883.00,96.90
1882.00,96.90
1881.00,96.91
1880.00,96.94
1879.00,96.97
1878.00,96.99
1877.00,97.01
1876.00,97.00
1875.00,96.99
1874.00,96.98
1873.00,96.97
1872.00,96.96
1871.00,96.96
1870.00,96.97
1869.00,96.99
1868.00,97.01
1867.00,97.02
1866.00,97.01
1865.00,97.00
1864.00,96.98
1863.00,96.97
1862.00,96.96
1861.00,96.94
1860.00,96.94
1859.00,96.96
1858.00,96.98
1857.00,96.99
1856.00,97.01
1855.00,97.02
1854.00,97.04
1853.00,97.06
1852.00,97.06
1851.00,97.06
1850.00,97.06
1849.00,97.06
1848.00,97.06
1847.00,97.07
1846.00,97.07
1845.00,97.06
1844.00,97.03
1843.00,97.00
1842.00,96.99
1841.00,97.01
1840.00,97.03
1839.00,97.05
1838.00,97.05
1837.00,97.06
1836.00,97.06
1835.00,97.06
1834.00,97.06
1833.00,97.07
1832.00,97.09
1831.00,97.11
1830.00,97.12
1829.00,97.11
1828.00,97.09
1827.00,97.06
1826.00,97.05
1825.00,97.04
1824.00,97.05
1823.00,97.05
1822.00,97.05
1821.00,97.07
1820.00,97.10
1819.00,97.13
1818.00,97.16
1817.00,97.17
1816.00,97.16
1815.00,97.15
1814.00,97.13
1813.00,97.11
1812.00,97.10
1811.00,97.09
1810.00,97.10
1809.00,97.12
1808.00,97.13
1807.00,97.14
1806.00,97.13
1805.00,97.11
1804.00,97.09
1803.00,97.08
1802.00,97.07
1801.00,97.07
1800.00,97.08
1799.00,97.10
1798.00,97.10
1797.00,97.09
1796.00,97.08
1795.00,97.08
1794.00,97.08
1793.00,97.08
1792.00,97.09
1791.00,97.09
1790.00,97.09
1789.00,97.10
1788.00,97.11
1787.00,97.13
1786.00,97.13
1785.00,97.12
1784.00,97.12
1783.00,97.11
1782.00,97.11
1781.00,97.11
1780.00,97.11
1779.00,97.11
1778.00,97.11
1777.00,97.12
1776.00,97.12
1775.00,97.13
1774.00,97.14
1773.00,97.14
1772.00,97.13
1771.00,97.11
1770.00,97.10
1769.00,97.11
1768.00,97.11
1767.00,97.12
1766.00,97.12
1765.00,97.11
1764.00,97.10
1763.00,97.09
1762.00,97.09
1761.00,97.08
1760.00,97.08
1759.00,97.09
1758.00,97.10
1757.00,97.10
1756.00,97.09
1755.00,97.08
1754.00,97.07
1753.00,97.06
1752.00,97.06
1751.00,97.05
1750.00,97.06
1749.00,97.06
1748.00,97.06
1747.00,97.04
1746.00,97.02
1745.00,97.00
1744.00,96.97
1743.00,96.94
1742.00,96.93
1741.00,96.94
1740.00,96.96
1739.00,96.98
1738.00,96.98
1737.00,96.97
1736.00,96.97
1735.00,96.97
1734.00,96.96
1733.00,96.95
1732.00,96.95
1731.00,96.95
1730.00,96.95
1729.00,96.95
1728.00,96.95
1727.00,96.94
1726.00,96.94
1725.00,96.93
1724.00,96.93
1723.00,96.93
1722.00,96.94
1721.00,96.96
1720.00,96.96
1719.00,96.98
1718.00,96.99
1717.00,97.00
1716.00,96.99
1715.00,96.99
1714.00,96.98
1713.00,96.98
1712.00,96.98
1711.00,97.00
1710.00,97.01
1709.00,97.01
1708.00,97.00
1707.00,96.99
1706.00,96.98
1705.00,96.98
1704.00,96.98
1703.00,96.98
1702.00,96.98
1701.00,96.97
1700.00,96.97
1699.00,96.97
1698.00,96.96
1697.00,96.95
1696.00,96.96
1695.00,96.98
1694.00,96.99
1693.00,96.99
1692.00,96.98
1691.00,96.97
1690.00,96.97
1689.00,96.96
1688.00,96.94
1687.00,96.93
1686.00,96.92
1685.00,96.92
1684.00,96.92
1683.00,96.92
1682.00,96.92
1681.00,96.92
1680.00,96.92
1679.00,96.93
1678.00,96.94
1677.00,96.95
1676.00,96.96
1675.00,96.95
1674.00,96.94
1673.00,96.93
1672.00,96.92
1671.00,96.91
1670.00,96.91
1669.00,96.92
1668.00,96.93
1667.00,96.93
1666.00,96.93
1665.00,96.93
1664.00,96.94
1663.00,96.94
1662.00,96.94
1661.00,96.93
1660.00,96.93
1659.00,96.94
1658.00,96.94
1657.00,96.93
1656.00,96.91
1655.00,96.89
1654.00,96.86
1653.00,96.83
1652.00,96.81
1651.00,96.81
1650.00,96.80
1649.00,96.79
1648.00,96.77
1647.00,96.74
1646.00,96.72
1645.00,96.71
1644.00,96.69
1643.00,96.68
1642.00,96.66
1641.00,96.64
1640.00,96.62
1639.00,96.60
1638.00,96.58
1637.00,96.54
1636.00,96.51
1635.00,96.49
1634.00,96.49
1633.00,96.49
1632.00,96.49
1631.00,96.47
1630.00,96.45
1629.00,96.43
1628.00,96.43
1627.00,96.43
1626.00,96.44
1625.00,96.45
1624.00,96.47
1623.00,96.49
1622.00,96.50
1621.00,96.51
1620.00,96.52
1619.00,96.52
1618.00,96.52
1617.00,96.52
1616.00,96.53
1615.00,96.56
1614.00,96.58
1613.00,96.61
1612.00,96.63
1611.00,96.64
1610.00,96.65
1609.00,96.65
1608.00,96.64
1607.00,96.64
1606.00,96.64
1605.00,96.64
1604.00,96.64
1603.00,96.64
1602.00,96.65
1601.00,96.67
1600.00,96.68
1599.00,96.69
1598.00,96.69
1597.00,96.70
1596.00,96.70
1595.00,96.72
1594.00,96.74
1593.00,96.77
1592.00,96.80
1591.00,96.83
1590.00,96.84
1589.00,96.86
1588.00,96.87
1587.00,96.87
1586.00,96.87
1585.00,96.87
1584.00,96.87
1583.00,96.88
1582.00,96.89
1581.00,96.91
1580.00,96.92
1579.00,96.93
1578.00,96.93
1577.00,96.94
1576.00,96.94
1575.00,96.94
1574.00,96.95
1573.00,96.95
1572.00,96.97
1571.00,96.98
1570.00,97.00
1569.00,96.99
1568.00,96.99
1567.00,96.98
1566.00,96.98
1565.00,96.99
1564.00,96.98
1563.00,96.98
1562.00,96.97
1561.00,96.97
1560.00,96.97
1559.00,96.97
1558.00,96.97
1557.00,96.98
1556.00,97.00
1555.00,97.02
1554.00,97.04
1553.00,97.06
1552.00,97.07
1551.00,97.07
1550.00,97.07
1549.00,97.07
1548.00,97.07
1547.00,97.09
1546.00,97.10
1545.00,97.11
1544.00,97.12
1543.00,97.12
1542.00,97.12
1541.00,97.12
1540.00,97.12
1539.00,97.12
1538.00,97.12
1537.00,97.12
1536.00,97.12
1535.00,97.13
1534.00,97.13
1533.00,97.12
1532.00,97.09
1531.00,97.07
1530.00,97.04
1529.00,97.03
1528.00,97.02
1527.00,97.03
1526.00,97.03
1525.00,97.03
1524.00,97.03
1523.00,97.03
1522.00,97.03
1521.00,97.01
1520.00,96.98
1519.00,96.97
1518.00,96.97
1517.00,96.98
1516.00,96.98
1515.00,96.99
1514.00,97.00
1513.00,97.01
1512.00,97.00
1511.00,97.00
1510.00,97.01
1509.00,97.02
1508.00,97.03
1507.00,96.99
1506.00,96.92
1505.00,96.87
1504.00,96.83
1503.00,96.81
1502.00,96.78
1501.00,96.74
1500.00,96.69
1499.00,96.66
1498.00,96.63
1497.00,96.62
1496.00,96.61
1495.00,96.62
1494.00,96.65
1493.00,96.67
1492.00,96.70
1491.00,96.72
1490.00,96.73
1489.00,96.74
1488.00,96.75
1487.00,96.77
1486.00,96.78
1485.00,96.78
1484.00,96.77
1483.00,96.77
1482.00,96.75
1481.00,96.74
1480.00,96.74
1479.00,96.74
1478.00,96.73
1477.00,96.71
1476.00,96.69
1475.00,96.68
1474.00,96.67
1473.00,96.66
1472.00,96.65
1471.00,96.64
1470.00,96.61
1469.00,96.55
1468.00,96.47
1467.00,96.37
1466.00,96.27
1465.00,96.15
1464.00,96.03
1463.00,95.90
1462.00,95.75
1461.00,95.59
1460.00,95.42
1459.00,95.21
1458.00,94.94
1457.00,94.60
1456.00,94.29
1455.00,94.08
1454.00,93.94
1453.00,93.83
1452.00,93.74
1451.00,93.68
1450.00,93.64
1449.00,93.62
1448.00,93.60
1447.00,93.61
1446.00,93.63
1445.00,93.66
1444.00,93.71
1443.00,93.77
1442.00,93.84
1441.00,93.90
1440.00,93.96
1439.00,94.01
1438.00,94.07
1437.00,94.14
1436.00,94.23
1435.00,94.33
1434.00,94.43
1433.00,94.53
1432.00,94.63
1431.00,94.74
1430.00,94.87
1429.00,95.00
1428.00,95.13
1427.00,95.25
1426.00,95.36
1425.00,95.47
1424.00,95.57
1423.00,95.68
1422.00,95.78
1421.00,95.88
1420.00,95.97
1419.00,96.06
1418.00,96.14
1417.00,96.20
1416.00,96.25
1415.00,96.28
1414.00,96.30
1413.00,96.34
1412.00,96.38
1411.00,96.42
1410.00,96.46
1409.00,96.50
1408.00,96.54
1407.00,96.58
1406.00,96.60
1405.00,96.61
1404.00,96.60
1403.00,96.59
1402.00,96.59
1401.00,96.59
1400.00,96.60
1399.00,96.61
1398.00,96.62
1397.00,96.63
1396.00,96.64
1395.00,96.64
1394.00,96.62
1393.00,96.61
1392.00,96.60
1391.00,96.59
1390.00,96.59
1389.00,96.59
1388.00,96.57
1387.00,96.54
1386.00,96.51
1385.00,96.47
1384.00,96.43
1383.00,96.40
1382.00,96.38
1381.00,96.36
1380.00,96.33
1379.00,96.29
1378.00,96.25
1377.00,96.20
1376.00,96.16
1375.00,96.12
1374.00,96.10
1373.00,96.08
1372.00,96.06
1371.00,96.03
1370.00,95.99
1369.00,95.95
1368.00,95.90
1367.00,95.87
1366.00,95.84
1365.00,95.81
1364.00,95.77
1363.00,95.73
1362.00,95.68
1361.00,95.66
1360.00,95.66
1359.00,95.66
1358.00,95.65
1357.00,95.64
1356.00,95.62
1355.00,95.61
1354.00,95.61
1353.00,95.63
1352.00,95.66
1351.00,95.69
1350.00,95.72
1349.00,95.73
1348.00,95.74
1347.00,95.75
1346.00,95.76
1345.00,95.78
1344.00,95.81
1343.00,95.84
1342.00,95.88
1341.00,95.93
1340.00,95.98
1339.00,96.02
1338.00,96.05
1337.00,96.07
1336.00,96.08
1335.00,96.09
1334.00,96.11
1333.00,96.12
1332.00,96.13
1331.00,96.13
1330.00,96.13
1329.00,96.13
1328.00,96.14
1327.00,96.15
1326.00,96.17
1325.00,96.18
1324.00,96.20
1323.00,96.21
1322.00,96.23
1321.00,96.24
1320.00,96.25
1319.00,96.25
1318.00,96.24
1317.00,96.22
1316.00,96.20
1315.00,96.18
1314.00,96.18
1313.00,96.18
1312.00,96.18
1311.00,96.19
1310.00,96.18
1309.00,96.18
1308.00,96.17
1307.00,96.15
1306.00,96.14
1305.00,96.12
1304.00,96.10
1303.00,96.09
1302.00,96.09
1301.00,96.09
1300.00,96.09
1299.00,96.08
1298.00,96.07
1297.00,96.06
1296.00,96.06
1295.00,96.06
1294.00,96.06
1293.00,96.06
1292.00,96.05
1291.00,96.03
1290.00,96.01
1289.00,96.00
1288.00,95.98
1287.00,95.97
1286.00,95.97
1285.00,95.97
1284.00,95.95
1283.00,95.93
1282.00,95.91
1281.00,95.90
1280.00,95.89
1279.00,95.87
1278.00,95.85
1277.00,95.83
1276.00,95.80
1275.00,95.77
1274.00,95.74
1273.00,95.73
1272.00,95.71
1271.00,95.70
1270.00,95.69
1269.00,95.67
1268.00,95.64
1267.00,95.61
1266.00,95.57
1265.00,95.54
1264.00,95.51
1263.00,95.47
1262.00,95.43
1261.00,95.39
1260.00,95.34
1259.00,95.29
1258.00,95.25
1257.00,95.21
1256.00,95.17
1255.00,95.14
1254.00,95.10
1253.00,95.06
1252.00,95.02
1251.00,94.98
1250.00,94.96
1249.00,94.95
1248.00,94.93
1247.00,94.91
1246.00,94.88
1245.00,94.86
1244.00,94.84
1243.00,94.82
1242.00,94.81
1241.00,94.80
1240.00,94.77
1239.00,94.75
1238.00,94.73
1237.00,94.73
1236.00,94.74
1235.00,94.77
1234.00,94.79
1233.00,94.81
1232.00,94.81
1231.00,94.81
1230.00,94.81
1229.00,94.81
1228.00,94.82
1227.00,94.83
1226.00,94.84
1225.00,94.85
1224.00,94.86
1223.00,94.86
1222.00,94.86
1221.00,94.87
1220.00,94.90
1219.00,94.94
1218.00,94.98
1217.00,95.00
1216.00,95.01
1215.00,95.02
1214.00,95.03
1213.00,95.06
1212.00,95.11
1211.00,95.17
1210.00,95.20
1209.00,95.20
1208.00,95.19
1207.00,95.19
1206.00,95.22
1205.00,95.26
1204.00,95.29
1203.00,95.29
1202.00,95.29
1201.00,95.28
1200.00,95.26
1199.00,95.25
1198.00,95.24
1197.00,95.24
1196.00,95.23
1195.00,95.24
1194.00,95.24
1193.00,95.24
1192.00,95.24
1191.00,95.23
1190.00,95.23
1189.00,95.23
1188.00,95.24
1187.00,95.26
1186.00,95.28
1185.00,95.30
1184.00,95.30
1183.00,95.30
1182.00,95.30
1181.00,95.32
1180.00,95.35
1179.00,95.38
1178.00,95.40
1177.00,95.43
1176.00,95.44
1175.00,95.45
1174.00,95.47
1173.00,95.50
1172.00,95.54
1171.00,95.56
1170.00,95.58
1169.00,95.59
1168.00,95.60
1167.00,95.60
1166.00,95.59
1165.00,95.58
1164.00,95.59
1163.00,95.61
1162.00,95.64
1161.00,95.67
1160.00,95.68
1159.00,95.69
1158.00,95.71
1157.00,95.75
1156.00,95.80
1155.00,95.85
1154.00,95.91
1153.00,95.97
1152.00,96.02
1151.00,96.05
1150.00,96.06
1149.00,96.07
1148.00,96.08
1147.00,96.11
1146.00,96.14
1145.00,96.16
1144.00,96.18
1143.00,96.18
1142.00,96.19
1141.00,96.20
1140.00,96.21
1139.00,96.22
1138.00,96.21
1137.00,96.18
1136.00,96.14
1135.00,96.08
1134.00,96.02
1133.00,95.97
1132.00,95.92
1131.00,95.86
1130.00,95.79
1129.00,95.71
1128.00,95.62
1127.00,95.54
1126.00,95.47
1125.00,95.42
1124.00,95.40
1123.00,95.38
1122.00,95.35
1121.00,95.33
1120.00,95.31
1119.00,95.32
1118.00,95.34
1117.00,95.35
1116.00,95.36
1115.00,95.35
1114.00,95.32
1113.00,95.28
1112.00,95.23
1111.00,95.18
1110.00,95.14
1109.00,95.11
1108.00,95.07
1107.00,95.03
1106.00,95.01
1105.00,95.00
1104.00,94.99
1103.00,94.97
1102.00,94.93
1101.00,94.86
1100.00,94.80
1099.00,94.74
1098.00,94.71
1097.00,94.69
1096.00,94.67
1095.00,94.65
1094.00,94.63
1093.00,94.63
1092.00,94.64
1091.00,94.62
1090.00,94.58
1089.00,94.53
1088.00,94.48
1087.00,94.45
1086.00,94.43
1085.00,94.39
1084.00,94.35
1083.00,94.31
1082.00,94.27
1081.00,94.23
1080.00,94.20
1079.00,94.17
1078.00,94.13
1077.00,94.08
1076.00,94.00
1075.00,93.94
1074.00,93.91
1073.00,93.93
1072.00,93.95
1071.00,93.97
1070.00,93.96
1069.00,93.93
1068.00,93.91
1067.00,93.90
1066.00,93.91
1065.00,93.92
1064.00,93.92
1063.00,93.93
1062.00,93.94
1061.00,93.97
1060.00,94.03
1059.00,94.09
1058.00,94.14
1057.00,94.16
1056.00,94.16
1055.00,94.18
1054.00,94.22
1053.00,94.27
1052.00,94.30
1051.00,94.31
1050.00,94.31
1049.00,94.31
1048.00,94.32
1047.00,94.34
1046.00,94.36
1045.00,94.38
1044.00,94.43
1043.00,94.47
1042.00,94.50
1041.00,94.49
1040.00,94.47
1039.00,94.46
1038.00,94.47
1037.00,94.47
1036.00,94.45
1035.00,94.41
1034.00,94.35
1033.00,94.28
1032.00,94.21
1031.00,94.16
1030.00,94.15
1029.00,94.17
1028.00,94.24
1027.00,94.34
1026.00,94.47
1025.00,94.60
1024.00,94.72
1023.00,94.83
1022.00,94.94
1021.00,95.02
1020.00,95.08
1019.00,95.11
1018.00,95.13
1017.00,95.17
1016.00,95.21
1015.00,95.26
1014.00,95.32
1013.00,95.37
1012.00,95.40
1011.00,95.37
1010.00,95.29
1009.00,95.21
1008.00,95.15
1007.00,95.14
1006.00,95.16
1005.00,95.21
1004.00,95.29
1003.00,95.37
1002.00,95.42
1001.00,95.47
1000.00,95.50
999.00,95.56
998.00,95.62
997.00,95.67
996.00,95.72
995.00,95.75
994.00,95.79
993.00,95.82
992.00,95.84
991.00,95.85
990.00,95.84
989.00,95.84
988.00,95.86
987.00,95.88
986.00,95.90
985.00,95.90
984.00,95.90
983.00,95.90
982.00,95.91
981.00,95.92
980.00,95.92
979.00,95.92
978.00,95.92
977.00,95.93
976.00,95.95
975.00,95.97
974.00,95.98
973.00,95.98
972.00,95.97
971.00,95.96
970.00,95.97
969.00,96.01
968.00,96.05
967.00,96.08
966.00,96.09
965.00,96.08
964.00,96.07
963.00,96.06
962.00,96.06
961.00,96.07
960.00,96.10
959.00,96.14
958.00,96.17
957.00,96.19
956.00,96.18
955.00,96.17
954.00,96.15
953.00,96.13
952.00,96.12
951.00,96.12
950.00,96.13
949.00,96.15
948.00,96.17
947.00,96.19
946.00,96.20
945.00,96.20
944.00,96.20
943.00,96.19
942.00,96.18
941.00,96.16
940.00,96.16
939.00,96.15
938.00,96.14
937.00,96.11
936.00,96.09
935.00,96.10
934.00,96.12
933.00,96.14
932.00,96.17
931.00,96.21
930.00,96.24
929.00,96.25
928.00,96.23
927.00,96.21
926.00,96.19
925.00,96.17
924.00,96.16
923.00,96.17
922.00,96.21
921.00,96.25
920.00,96.29
919.00,96.30
918.00,96.30
917.00,96.27
916.00,96.24
915.00,96.22
914.00,96.23
913.00,96.25
912.00,96.27
911.00,96.29
910.00,96.32
909.00,96.34
908.00,96.35
907.00,96.36
906.00,96.38
905.00,96.40
904.00,96.42
903.00,96.44
902.00,96.44
901.00,96.44
900.00,96.45
899.00,96.46
898.00,96.46
897.00,96.46
896.00,96.46
895.00,96.48
894.00,96.52
893.00,96.55
892.00,96.56
891.00,96.54
890.00,96.52
889.00,96.52
888.00,96.54
887.00,96.58
886.00,96.61
885.00,96.63
884.00,96.62
883.00,96.61
882.00,96.60
881.00,96.60
880.00,96.61
879.00,96.61
878.00,96.62
877.00,96.63
876.00,96.64
875.00,96.66
874.00,96.68
873.00,96.70
872.00,96.72
871.00,96.74
870.00,96.75
869.00,96.75
868.00,96.75
867.00,96.75
866.00,96.77
865.00,96.78
864.00,96.79
863.00,96.79
862.00,96.79
861.00,96.79
860.00,96.78
859.00,96.79
858.00,96.82
857.00,96.84
856.00,96.85
855.00,96.85
854.00,96.84
853.00,96.84
852.00,96.85
851.00,96.84
850.00,96.82
849.00,96.79
848.00,96.75
847.00,96.71
846.00,96.68
845.00,96.65
844.00,96.62
843.00,96.60
842.00,96.58
841.00,96.56
840.00,96.53
839.00,96.51
838.00,96.51
837.00,96.53
836.00,96.55
835.00,96.56
834.00,96.56
833.00,96.57
832.00,96.58
831.00,96.60
830.00,96.62
829.00,96.64
828.00,96.66
827.00,96.68
826.00,96.69
825.00,96.70
824.00,96.70
823.00,96.69
822.00,96.68
821.00,96.68
820.00,96.68
819.00,96.70
818.00,96.73
817.00,96.75
816.00,96.74
815.00,96.72
814.00,96.72
813.00,96.75
812.00,96.78
811.00,96.78
810.00,96.77
809.00,96.76
808.00,96.77
807.00,96.78
806.00,96.80
805.00,96.82
804.00,96.83
803.00,96.80
802.00,96.76
801.00,96.73
800.00,96.73
799.00,96.76
798.00,96.80
797.00,96.80
796.00,96.77
795.00,96.74
794.00,96.73
793.00,96.73
792.00,96.71
791.00,96.69
790.00,96.69
789.00,96.72
788.00,96.74
787.00,96.74
786.00,96.72
785.00,96.69
784.00,96.68
783.00,96.68
782.00,96.67
781.00,96.66
780.00,96.64
779.00,96.61
778.00,96.59
777.00,96.59
776.00,96.61
775.00,96.64
774.00,96.65
773.00,96.63
772.00,96.57
771.00,96.49
770.00,96.42
769.00,96.40
768.00,96.43
767.00,96.47
766.00,96.50
765.00,96.49
764.00,96.48
763.00,96.47
762.00,96.48
761.00,96.51
760.00,96.52
759.00,96.53
758.00,96.55
757.00,96.59
756.00,96.62
755.00,96.64
754.00,96.65
753.00,96.64
752.00,96.62
751.00,96.59
750.00,96.58
749.00,96.61
748.00,96.66
747.00,96.70
746.00,96.71
745.00,96.68
744.00,96.65
743.00,96.63
742.00,96.65
741.00,96.67
740.00,96.69
739.00,96.68
738.00,96.69
737.00,96.73
736.00,96.77
735.00,96.78
734.00,96.75
733.00,96.71
732.00,96.66
731.00,96.62
730.00,96.56
729.00,96.50
728.00,96.45
727.00,96.40
726.00,96.37
725.00,96.34
724.00,96.31
723.00,96.29
722.00,96.24
721.00,96.15
720.00,96.02
719.00,95.90
718.00,95.82
717.00,95.80
716.00,95.82
715.00,95.84
714.00,95.81
713.00,95.72
712.00,95.56
711.00,95.39
710.00,95.24
709.00,95.14
708.00,95.09
707.00,95.06
706.00,95.05
705.00,95.06
704.00,95.07
703.00,95.10
702.00,95.14
701.00,95.21
700.00,95.31
699.00,95.42
698.00,95.53
697.00,95.62
696.00,95.68
695.00,95.71
694.00,95.72
693.00,95.72
692.00,95.72
691.00,95.71
690.00,95.70
689.00,95.73
688.00,95.77
687.00,95.77
686.00,95.69
685.00,95.56
684.00,95.43
683.00,95.36
682.00,95.35
681.00,95.35
680.00,95.34
679.00,95.27
678.00,95.17
677.00,95.10
676.00,95.08
675.00,95.10
674.00,95.11
673.00,95.08
672.00,95.04
671.00,95.04
670.00,95.09
669.00,95.12
668.00,95.03
667.00,94.83
666.00,94.63
665.00,94.46
664.00,94.33
663.00,94.24
662.00,94.19
661.00,94.16
660.00,94.12
659.00,94.09
658.00,94.08
657.00,94.08
656.00,94.04
655.00,93.92
654.00,93.78
653.00,93.74
652.00,93.85
651.00,94.05
650.00,94.22
649.00,94.27
648.00,94.19
647.00,94.03
646.00,93.87
645.00,93.75
644.00,93.71
643.00,93.74
642.00,93.82
641.00,93.94
640.00,94.08
639.00,94.18
638.00,94.21
637.00,94.21
636.00,94.22
635.00,94.28
634.00,94.38
633.00,94.46
632.00,94.47
631.00,94.40
630.00,94.28
629.00,94.15
628.00,94.08
627.00,94.08
626.00,94.17
625.00,94.33
624.00,94.52
623.00,94.62
622.00,94.54
621.00,94.34
620.00,94.23
619.00,94.32
618.00,94.54
617.00,94.69
616.00,94.70
615.00,94.63
614.00,94.57
613.00,94.58
612.00,94.62
611.00,94.60
610.00,94.46
609.00,94.31
608.00,94.27
607.00,94.34
606.00,94.38
605.00,94.32
604.00,94.29
603.00,94.46
602.00,94.82
601.00,95.12
600.00,95.17
599.00,94.97
598.00,94.69
597.00,94.47
596.00,94.36
595.00,94.34
594.00,94.39
593.00,94.47
592.00,94.52
591.00,94.49
590.00,94.37
589.00,94.13
588.00,93.77
587.00,93.40
586.00,93.20
585.00,93.23
584.00,93.36
583.00,93.42
582.00,93.34
581.00,93.27
580.00,93.35
579.00,93.59
578.00,93.90
577.00,94.17
576.00,94.33
575.00,94.27
574.00,94.04
573.00,93.78
572.00,93.63
571.00,93.57
570.00,93.57
569.00,93.71
568.00,94.10
567.00,94.62
566.00,94.90
565.00,94.72
564.00,94.24
563.00,93.75
562.00,93.41
561.00,93.15
560.00,92.93
559.00,92.90
558.00,93.14
557.00,93.53
556.00,93.82
555.00,93.91
554.00,93.93
553.00,94.11
552.00,94.49
551.00,94.94
550.00,95.34
