Created as New Dataset,66 Union Carbide Chemicals
cm-1,%T
4000.00,98.19
3999.00,98.18
3998.00,98.17
3997.00,98.16
3996.00,98.15
3995.00,98.14
3994.00,98.14
3993.00,98.13
3992.00,98.11
3991.00,98.10
3990.00,98.08
3989.00,98.07
3988.00,98.07
3987.00,98.08
3986.00,98.08
3985.00,98.08
3984.00,98.08
3983.00,98.08
3982.00,98.08
3981.00,98.08
3980.00,98.09
3979.00,98.10
3978.00,98.11
3977.00,98.12
3976.00,98.12
3975.00,98.13
3974.00,98.14
3973.00,98.15
3972.00,98.15
3971.00,98.15
3970.00,98.14
3969.00,98.14
3968.00,98.14
3967.00,98.14
3966.00,98.13
3965.00,98.12
3964.00,98.10
3963.00,98.10
3962.00,98.10
3961.00,98.12
3960.00,98.15
3959.00,98.17
3958.00,98.17
3957.00,98.16
3956.00,98.15
3955.00,98.14
3954.00,98.14
3953.00,98.15
3952.00,98.16
3951.00,98.17
3950.00,98.16
3949.00,98.16
3948.00,98.16
3947.00,98.16
3946.00,98.16
3945.00,98.16
3944.00,98.14
3943.00,98.12
3942.00,98.11
3941.00,98.12
3940.00,98.14
3939.00,98.16
3938.00,98.17
3937.00,98.16
3936.00,98.16
3935.00,98.15
3934.00,98.14
3933.00,98.14
3932.00,98.15
3931.00,98.17
3930.00,98.19
3929.00,98.21
3928.00,98.22
3927.00,98.20
3926.00,98.18
3925.00,98.15
3924.00,98.14
3923.00,98.15
3922.00,98.16
3921.00,98.18
3920.00,98.18
3919.00,98.18
3918.00,98.18
3917.00,98.17
3916.00,98.15
3915.00,98.14
3914.00,98.12
3913.00,98.10
3912.00,98.09
3911.00,98.09
3910.00,98.10
3909.00,98.10
3908.00,98.11
3907.00,98.12
3906.00,98.14
3905.00,98.15
3904.00,98.16
3903.00,98.19
3902.00,98.23
3901.00,98.27
3900.00,98.29
3899.00,98.29
3898.00,98.27
3897.00,98.22
3896.00,98.17
3895.00,98.13
3894.00,98.10
3893.00,98.10
3892.00,98.11
3891.00,98.15
3890.00,98.19
3889.00,98.23
3888.00,98.23
3887.00,98.20
3886.00,98.16
3885.00,98.13
3884.00,98.14
3883.00,98.17
3882.00,98.18
3881.00,98.18
3880.00,98.16
3879.00,98.16
3878.00,98.16
3877.00,98.17
3876.00,98.17
3875.00,98.17
3874.00,98.18
3873.00,98.20
3872.00,98.21
3871.00,98.21
3870.00,98.20
3869.00,98.20
3868.00,98.22
3867.00,98.24
3866.00,98.23
3865.00,98.21
3864.00,98.18
3863.00,98.17
3862.00,98.17
3861.00,98.17
3860.00,98.18
3859.00,98.19
3858.00,98.21
3857.00,98.26
3856.00,98.32
3855.00,98.38
3854.00,98.40
3853.00,98.40
3852.00,98.42
3851.00,98.42
3850.00,98.38
3849.00,98.29
3848.00,98.21
3847.00,98.15
3846.00,98.13
3845.00,98.12
3844.00,98.13
3843.00,98.14
3842.00,98.15
3841.00,98.17
3840.00,98.19
3839.00,98.21
3838.00,98.21
3837.00,98.21
3836.00,98.20
3835.00,98.18
3834.00,98.15
3833.00,98.12
3832.00,98.09
3831.00,98.08
3830.00,98.09
3829.00,98.10
3828.00,98.10
3827.00,98.08
3826.00,98.06
3825.00,98.06
3824.00,98.07
3823.00,98.08
3822.00,98.09
3821.00,98.10
3820.00,98.12
3819.00,98.15
3818.00,98.15
3817.00,98.14
3816.00,98.12
3815.00,98.12
3814.00,98.12
3813.00,98.11
3812.00,98.09
3811.00,98.07
3810.00,98.07
3809.00,98.07
3808.00,98.06
3807.00,98.04
3806.00,98.04
3805.00,98.05
3804.00,98.06
3803.00,98.07
3802.00,98.07
3801.00,98.08
3800.00,98.11
3799.00,98.12
3798.00,98.10
3797.00,98.06
3796.00,98.03
3795.00,98.01
3794.00,98.01
3793.00,98.01
3792.00,97.99
3791.00,97.97
3790.00,97.96
3789.00,97.95
3788.00,97.95
3787.00,97.93
3786.00,97.91
3785.00,97.89
3784.00,97.89
3783.00,97.91
3782.00,97.93
3781.00,97.95
3780.00,97.96
3779.00,97.95
3778.00,97.94
3777.00,97.93
3776.00,97.92
3775.00,97.91
3774.00,97.92
3773.00,97.94
3772.00,97.96
3771.00,97.95
3770.00,97.93
3769.00,97.91
3768.00,97.91
3767.00,97.91
3766.00,97.91
3765.00,97.92
3764.00,97.93
3763.00,97.93
3762.00,97.92
3761.00,97.88
3760.00,97.85
3759.00,97.83
3758.00,97.83
3757.00,97.86
3756.00,97.90
3755.00,97.94
3754.00,98.00
3753.00,98.04
3752.00,98.06
3751.00,98.07
3750.00,98.10
3749.00,98.16
3748.00,98.23
3747.00,98.26
3746.00,98.23
3745.00,98.14
3744.00,98.05
3743.00,98.01
3742.00,98.01
3741.00,98.00
3740.00,97.99
3739.00,98.00
3738.00,98.04
3737.00,98.07
3736.00,98.08
3735.00,98.07
3734.00,98.05
3733.00,98.03
3732.00,98.01
3731.00,97.99
3730.00,97.96
3729.00,97.94
3728.00,97.91
3727.00,97.90
3726.00,97.90
3725.00,97.90
3724.00,97.90
3723.00,97.88
3722.00,97.86
3721.00,97.85
3720.00,97.84
3719.00,97.82
3718.00,97.79
3717.00,97.77
3716.00,97.76
3715.00,97.79
3714.00,97.84
3713.00,97.89
3712.00,97.91
3711.00,97.91
3710.00,97.91
3709.00,97.90
3708.00,97.88
3707.00,97.85
3706.00,97.81
3705.00,97.79
3704.00,97.76
3703.00,97.74
3702.00,97.72
3701.00,97.71
3700.00,97.71
3699.00,97.73
3698.00,97.74
3697.00,97.74
3696.00,97.75
3695.00,97.78
3694.00,97.82
3693.00,97.86
3692.00,97.90
3691.00,97.91
3690.00,97.91
3689.00,97.89
3688.00,97.87
3687.00,97.85
3686.00,97.83
3685.00,97.79
3684.00,97.75
3683.00,97.72
3682.00,97.71
3681.00,97.72
3680.00,97.74
3679.00,97.77
3678.00,97.81
3677.00,97.83
3676.00,97.82
3675.00,97.81
3674.00,97.82
3673.00,97.84
3672.00,97.83
3671.00,97.79
3670.00,97.74
3669.00,97.71
3668.00,97.69
3667.00,97.67
3666.00,97.64
3665.00,97.59
3664.00,97.56
3663.00,97.55
3662.00,97.55
3661.00,97.55
3660.00,97.57
3659.00,97.58
3658.00,97.59
3657.00,97.58
3656.00,97.57
3655.00,97.58
3654.00,97.60
3653.00,97.63
3652.00,97.66
3651.00,97.68
3650.00,97.65
3649.00,97.61
3648.00,97.57
3647.00,97.55
3646.00,97.53
3645.00,97.52
3644.00,97.50
3643.00,97.48
3642.00,97.46
3641.00,97.43
3640.00,97.41
3639.00,97.39
3638.00,97.39
3637.00,97.41
3636.00,97.43
3635.00,97.46
3634.00,97.48
3633.00,97.51
3632.00,97.56
3631.00,97.61
3630.00,97.65
3629.00,97.66
3628.00,97.67
3627.00,97.69
3626.00,97.70
3625.00,97.68
3624.00,97.65
3623.00,97.61
3622.00,97.58
3621.00,97.56
3620.00,97.53
3619.00,97.52
3618.00,97.53
3617.00,97.56
3616.00,97.60
3615.00,97.63
3614.00,97.63
3613.00,97.59
3612.00,97.55
3611.00,97.52
3610.00,97.51
3609.00,97.51
3608.00,97.52
3607.00,97.53
3606.00,97.56
3605.00,97.58
3604.00,97.59
3603.00,97.59
3602.00,97.60
3601.00,97.61
3600.00,97.63
3599.00,97.63
3598.00,97.62
3597.00,97.61
3596.00,97.60
3595.00,97.61
3594.00,97.62
3593.00,97.63
3592.00,97.65
3591.00,97.67
3590.00,97.69
3589.00,97.70
3588.00,97.69
3587.00,97.67
3586.00,97.67
3585.00,97.68
3584.00,97.66
3583.00,97.63
3582.00,97.59
3581.00,97.55
3580.00,97.54
3579.00,97.55
3578.00,97.57
3577.00,97.59
3576.00,97.58
3575.00,97.56
3574.00,97.53
3573.00,97.52
3572.00,97.52
3571.00,97.55
3570.00,97.58
3569.00,97.61
3568.00,97.62
3567.00,97.61
3566.00,97.61
3565.00,97.60
3564.00,97.59
3563.00,97.56
3562.00,97.55
3561.00,97.54
3560.00,97.55
3559.00,97.55
3558.00,97.55
3557.00,97.54
3556.00,97.55
3555.00,97.56
3554.00,97.57
3553.00,97.57
3552.00,97.57
3551.00,97.57
3550.00,97.58
3549.00,97.57
3548.00,97.56
3547.00,97.53
3546.00,97.51
3545.00,97.50
3544.00,97.50
3543.00,97.50
3542.00,97.50
3541.00,97.48
3540.00,97.45
3539.00,97.42
3538.00,97.39
3537.00,97.37
3536.00,97.38
3535.00,97.41
3534.00,97.44
3533.00,97.46
3532.00,97.47
3531.00,97.47
3530.00,97.46
3529.00,97.45
3528.00,97.44
3527.00,97.44
3526.00,97.43
3525.00,97.44
3524.00,97.44
3523.00,97.45
3522.00,97.45
3521.00,97.45
3520.00,97.46
3519.00,97.48
3518.00,97.50
3517.00,97.53
3516.00,97.55
3515.00,97.54
3514.00,97.52
3513.00,97.49
3512.00,97.47
3511.00,97.46
3510.00,97.46
3509.00,97.46
3508.00,97.46
3507.00,97.47
3506.00,97.47
3505.00,97.47
3504.00,97.46
3503.00,97.44
3502.00,97.43
3501.00,97.42
3500.00,97.43
3499.00,97.44
3498.00,97.46
3497.00,97.47
3496.00,97.46
3495.00,97.45
3494.00,97.44
3493.00,97.44
3492.00,97.45
3491.00,97.48
3490.00,97.50
3489.00,97.51
3488.00,97.51
3487.00,97.50
3486.00,97.49
3485.00,97.46
3484.00,97.44
3483.00,97.43
3482.00,97.45
3481.00,97.47
3480.00,97.50
3479.00,97.52
3478.00,97.53
3477.00,97.52
3476.00,97.51
3475.00,97.48
3474.00,97.47
3473.00,97.47
3472.00,97.49
3471.00,97.52
3470.00,97.53
3469.00,97.52
3468.00,97.50
3467.00,97.48
3466.00,97.47
3465.00,97.47
3464.00,97.48
3463.00,97.48
3462.00,97.50
3461.00,97.51
3460.00,97.51
3459.00,97.51
3458.00,97.49
3457.00,97.48
3456.00,97.46
3455.00,97.45
3454.00,97.44
3453.00,97.43
3452.00,97.43
3451.00,97.43
3450.00,97.46
3449.00,97.49
3448.00,97.51
3447.00,97.50
3446.00,97.48
3445.00,97.45
3444.00,97.43
3443.00,97.43
3442.00,97.44
3441.00,97.45
3440.00,97.47
3439.00,97.49
3438.00,97.50
3437.00,97.51
3436.00,97.51
3435.00,97.49
3434.00,97.49
3433.00,97.48
3432.00,97.49
3431.00,97.49
3430.00,97.49
3429.00,97.49
3428.00,97.48
3427.00,97.47
3426.00,97.47
3425.00,97.47
3424.00,97.48
3423.00,97.48
3422.00,97.49
3421.00,97.50
3420.00,97.50
3419.00,97.49
3418.00,97.48
3417.00,97.46
3416.00,97.45
3415.00,97.45
3414.00,97.46
3413.00,97.47
3412.00,97.47
3411.00,97.46
3410.00,97.45
3409.00,97.45
3408.00,97.46
3407.00,97.47
3406.00,97.49
3405.00,97.51
3404.00,97.51
3403.00,97.49
3402.00,97.48
3401.00,97.46
3400.00,97.46
3399.00,97.47
3398.00,97.50
3397.00,97.52
3396.00,97.51
3395.00,97.49
3394.00,97.46
3393.00,97.44
3392.00,97.43
3391.00,97.43
3390.00,97.44
3389.00,97.45
3388.00,97.45
3387.00,97.44
3386.00,97.44
3385.00,97.43
3384.00,97.44
3383.00,97.46
3382.00,97.47
3381.00,97.48
3380.00,97.47
3379.00,97.47
3378.00,97.46
3377.00,97.45
3376.00,97.43
3375.00,97.41
3374.00,97.40
3373.00,97.41
3372.00,97.43
3371.00,97.45
3370.00,97.46
3369.00,97.46
3368.00,97.45
3367.00,97.45
3366.00,97.45
3365.00,97.46
3364.00,97.46
3363.00,97.45
3362.00,97.42
3361.00,97.39
3360.00,97.37
3359.00,97.37
3358.00,97.39
3357.00,97.41
3356.00,97.43
3355.00,97.43
3354.00,97.43
3353.00,97.44
3352.00,97.44
3351.00,97.44
3350.00,97.43
3349.00,97.42
3348.00,97.42
3347.00,97.43
3346.00,97.44
3345.00,97.44
3344.00,97.42
3343.00,97.39
3342.00,97.38
3341.00,97.37
3340.00,97.38
3339.00,97.40
3338.00,97.41
3337.00,97.41
3336.00,97.40
3335.00,97.39
3334.00,97.37
3333.00,97.38
3332.00,97.39
3331.00,97.41
3330.00,97.41
3329.00,97.39
3328.00,97.38
3327.00,97.37
3326.00,97.38
3325.00,97.39
3324.00,97.40
3323.00,97.42
3322.00,97.43
3321.00,97.45
3320.00,97.46
3319.00,97.46
3318.00,97.46
3317.00,97.46
3316.00,97.46
3315.00,97.46
3314.00,97.46
3313.00,97.46
3312.00,97.44
3311.00,97.42
3310.00,97.40
3309.00,97.38
3308.00,97.36
3307.00,97.35
3306.00,97.36
3305.00,97.37
3304.00,97.38
3303.00,97.39
3302.00,97.39
3301.00,97.39
3300.00,97.38
3299.00,97.38
3298.00,97.39
3297.00,97.40
3296.00,97.41
3295.00,97.42
3294.00,97.42
3293.00,97.41
3292.00,97.39
3291.00,97.36
3290.00,97.34
3289.00,97.32
3288.00,97.31
3287.00,97.32
3286.00,97.34
3285.00,97.38
3284.00,97.41
3283.00,97.44
3282.00,97.45
3281.00,97.42
3280.00,97.39
3279.00,97.35
3278.00,97.33
3277.00,97.33
3276.00,97.33
3275.00,97.32
3274.00,97.31
3273.00,97.30
3272.00,97.30
3271.00,97.31
3270.00,97.32
3269.00,97.35
3268.00,97.36
3267.00,97.36
3266.00,97.36
3265.00,97.35
3264.00,97.36
3263.00,97.37
3262.00,97.38
3261.00,97.38
3260.00,97.37
3259.00,97.35
3258.00,97.34
3257.00,97.34
3256.00,97.35
3255.00,97.37
3254.00,97.39
3253.00,97.40
3252.00,97.41
3251.00,97.40
3250.00,97.37
3249.00,97.35
3248.00,97.34
3247.00,97.33
3246.00,97.33
3245.00,97.32
3244.00,97.30
3243.00,97.29
3242.00,97.28
3241.00,97.29
3240.00,97.31
3239.00,97.33
3238.00,97.34
3237.00,97.34
3236.00,97.33
3235.00,97.32
3234.00,97.32
3233.00,97.33
3232.00,97.34
3231.00,97.34
3230.00,97.34
3229.00,97.32
3228.00,97.32
3227.00,97.32
3226.00,97.33
3225.00,97.34
3224.00,97.35
3223.00,97.36
3222.00,97.37
3221.00,97.37
3220.00,97.36
3219.00,97.35
3218.00,97.33
3217.00,97.31
3216.00,97.29
3215.00,97.28
3214.00,97.27
3213.00,97.27
3212.00,97.29
3211.00,97.32
3210.00,97.35
3209.00,97.37
3208.00,97.38
3207.00,97.37
3206.00,97.36
3205.00,97.36
3204.00,97.37
3203.00,97.38
3202.00,97.38
3201.00,97.38
3200.00,97.37
3199.00,97.36
3198.00,97.35
3197.00,97.35
3196.00,97.35
3195.00,97.35
3194.00,97.36
3193.00,97.36
3192.00,97.37
3191.00,97.38
3190.00,97.38
3189.00,97.37
3188.00,97.36
3187.00,97.35
3186.00,97.34
3185.00,97.33
3184.00,97.34
3183.00,97.35
3182.00,97.36
3181.00,97.36
3180.00,97.36
3179.00,97.37
3178.00,97.39
3177.00,97.40
3176.00,97.41
3175.00,97.41
3174.00,97.40
3173.00,97.38
3172.00,97.37
3171.00,97.37
3170.00,97.37
3169.00,97.37
3168.00,97.36
3167.00,97.35
3166.00,97.34
3165.00,97.34
3164.00,97.34
3163.00,97.35
3162.00,97.35
3161.00,97.36
3160.00,97.36
3159.00,97.37
3158.00,97.38
3157.00,97.39
3156.00,97.39
3155.00,97.39
3154.00,97.38
3153.00,97.36
3152.00,97.36
3151.00,97.36
3150.00,97.38
3149.00,97.40
3148.00,97.42
3147.00,97.44
3146.00,97.44
3145.00,97.43
3144.00,97.41
3143.00,97.40
3142.00,97.40
3141.00,97.41
3140.00,97.42
3139.00,97.44
3138.00,97.45
3137.00,97.45
3136.00,97.45
3135.00,97.43
3134.00,97.42
3133.00,97.41
3132.00,97.41
3131.00,97.41
3130.00,97.41
3129.00,97.40
3128.00,97.38
3127.00,97.37
3126.00,97.38
3125.00,97.40
3124.00,97.42
3123.00,97.42
3122.00,97.42
3121.00,97.42
3120.00,97.43
3119.00,97.44
3118.00,97.45
3117.00,97.46
3116.00,97.46
3115.00,97.46
3114.00,97.45
3113.00,97.44
3112.00,97.43
3111.00,97.42
3110.00,97.42
3109.00,97.42
3108.00,97.43
3107.00,97.43
3106.00,97.44
3105.00,97.44
3104.00,97.44
3103.00,97.44
3102.00,97.44
3101.00,97.43
3100.00,97.42
3099.00,97.42
3098.00,97.41
3097.00,97.40
3096.00,97.39
3095.00,97.39
3094.00,97.40
3093.00,97.41
3092.00,97.42
3091.00,97.43
3090.00,97.42
3089.00,97.41
3088.00,97.41
3087.00,97.41
3086.00,97.41
3085.00,97.42
3084.00,97.42
3083.00,97.42
3082.00,97.41
3081.00,97.41
3080.00,97.40
3079.00,97.39
3078.00,97.38
3077.00,97.37
3076.00,97.36
3075.00,97.37
3074.00,97.39
3073.00,97.41
3072.00,97.41
3071.00,97.41
3070.00,97.40
3069.00,97.39
3068.00,97.40
3067.00,97.41
3066.00,97.41
3065.00,97.40
3064.00,97.39
3063.00,97.38
3062.00,97.39
3061.00,97.40
3060.00,97.41
3059.00,97.41
3058.00,97.40
3057.00,97.40
3056.00,97.41
3055.00,97.41
3054.00,97.39
3053.00,97.37
3052.00,97.35
3051.00,97.35
3050.00,97.38
3049.00,97.40
3048.00,97.43
3047.00,97.44
3046.00,97.44
3045.00,97.43
3044.00,97.43
3043.00,97.42
3042.00,97.41
3041.00,97.39
3040.00,97.38
3039.00,97.38
3038.00,97.39
3037.00,97.41
3036.00,97.43
3035.00,97.44
3034.00,97.42
3033.00,97.40
3032.00,97.39
3031.00,97.37
3030.00,97.36
3029.00,97.36
3028.00,97.36
3027.00,97.35
3026.00,97.34
3025.00,97.33
3024.00,97.32
3023.00,97.33
3022.00,97.35
3021.00,97.36
3020.00,97.37
3019.00,97.38
3018.00,97.38
3017.00,97.37
3016.00,97.35
3015.00,97.33
3014.00,97.31
3013.00,97.31
3012.00,97.32
3011.00,97.33
3010.00,97.32
3009.00,97.31
3008.00,97.30
3007.00,97.29
3006.00,97.28
3005.00,97.28
3004.00,97.29
3003.00,97.30
3002.00,97.32
3001.00,97.33
3000.00,97.33
2999.00,97.32
2998.00,97.32
2997.00,97.30
2996.00,97.28
2995.00,97.26
2994.00,97.23
2993.00,97.21
2992.00,97.20
2991.00,97.19
2990.00,97.18
2989.00,97.17
2988.00,97.15
2987.00,97.13
2986.00,97.10
2985.00,97.09
2984.00,97.09
2983.00,97.08
2982.00,97.05
2981.00,97.01
2980.00,96.96
2979.00,96.92
2978.00,96.89
2977.00,96.86
2976.00,96.83
2975.00,96.79
2974.00,96.74
2973.00,96.69
2972.00,96.64
2971.00,96.61
2970.00,96.58
2969.00,96.55
2968.00,96.52
2967.00,96.49
2966.00,96.46
2965.00,96.44
2964.00,96.42
2963.00,96.40
2962.00,96.38
2961.00,96.37
2960.00,96.34
2959.00,96.31
2958.00,96.29
2957.00,96.28
2956.00,96.28
2955.00,96.28
2954.00,96.28
2953.00,96.30
2952.00,96.31
2951.00,96.33
2950.00,96.34
2949.00,96.33
2948.00,96.31
2947.00,96.28
2946.00,96.26
2945.00,96.24
2944.00,96.22
2943.00,96.19
2942.00,96.16
2941.00,96.14
2940.00,96.12
2939.00,96.10
2938.00,96.08
2937.00,96.06
2936.00,96.03
2935.00,95.99
2934.00,95.93
2933.00,95.87
2932.00,95.83
2931.00,95.81
2930.00,95.82
2929.00,95.84
2928.00,95.85
2927.00,95.86
2926.00,95.85
2925.00,95.84
2924.00,95.82
2923.00,95.80
2922.00,95.79
2921.00,95.79
2920.00,95.80
2919.00,95.81
2918.00,95.83
2917.00,95.85
2916.00,95.87
2915.00,95.89
2914.00,95.91
2913.00,95.96
2912.00,96.02
2911.00,96.09
2910.00,96.15
2909.00,96.21
2908.00,96.26
2907.00,96.31
2906.00,96.35
2905.00,96.39
2904.00,96.45
2903.00,96.51
2902.00,96.59
2901.00,96.66
2900.00,96.72
2899.00,96.76
2898.00,96.80
2897.00,96.83
2896.00,96.87
2895.00,96.90
2894.00,96.93
2893.00,96.96
2892.00,97.00
2891.00,97.03
2890.00,97.04
2889.00,97.05
2888.00,97.04
2887.00,97.05
2886.00,97.06
2885.00,97.08
2884.00,97.09
2883.00,97.08
2882.00,97.06
2881.00,97.04
2880.00,97.02
2879.00,97.01
2878.00,97.01
2877.00,97.02
2876.00,97.02
2875.00,97.02
2874.00,97.03
2873.00,97.04
2872.00,97.05
2871.00,97.05
2870.00,97.05
2869.00,97.05
2868.00,97.05
2867.00,97.04
2866.00,97.03
2865.00,97.02
2864.00,97.02
2863.00,97.02
2862.00,97.03
2861.00,97.04
2860.00,97.05
2859.00,97.04
2858.00,97.03
2857.00,97.01
2856.00,97.02
2855.00,97.03
2854.00,97.03
2853.00,97.03
2852.00,97.02
2851.00,97.02
2850.00,97.02
2849.00,97.02
2848.00,97.02
2847.00,97.02
2846.00,97.04
2845.00,97.05
2844.00,97.07
2843.00,97.08
2842.00,97.10
2841.00,97.11
2840.00,97.13
2839.00,97.14
2838.00,97.15
2837.00,97.16
2836.00,97.18
2835.00,97.20
2834.00,97.21
2833.00,97.22
2832.00,97.22
2831.00,97.23
2830.00,97.23
2829.00,97.25
2828.00,97.26
2827.00,97.29
2826.00,97.31
2825.00,97.32
2824.00,97.32
2823.00,97.32
2822.00,97.31
2821.00,97.31
2820.00,97.31
2819.00,97.31
2818.00,97.32
2817.00,97.33
2816.00,97.34
2815.00,97.34
2814.00,97.32
2813.00,97.31
2812.00,97.30
2811.00,97.31
2810.00,97.33
2809.00,97.35
2808.00,97.37
2807.00,97.39
2806.00,97.40
2805.00,97.40
2804.00,97.40
2803.00,97.39
2802.00,97.39
2801.00,97.40
2800.00,97.40
2799.00,97.41
2798.00,97.41
2797.00,97.41
2796.00,97.41
2795.00,97.40
2794.00,97.40
2793.00,97.40
2792.00,97.39
2791.00,97.39
2790.00,97.39
2789.00,97.40
2788.00,97.41
2787.00,97.42
2786.00,97.43
2785.00,97.43
2784.00,97.43
2783.00,97.43
2782.00,97.42
2781.00,97.42
2780.00,97.43
2779.00,97.44
2778.00,97.45
2777.00,97.44
2776.00,97.44
2775.00,97.43
2774.00,97.43
2773.00,97.43
2772.00,97.44
2771.00,97.46
2770.00,97.48
2769.00,97.48
2768.00,97.48
2767.00,97.48
2766.00,97.49
2765.00,97.49
2764.00,97.49
2763.00,97.49
2762.00,97.48
2761.00,97.47
2760.00,97.46
2759.00,97.44
2758.00,97.44
2757.00,97.44
2756.00,97.44
2755.00,97.44
2754.00,97.44
2753.00,97.45
2752.00,97.46
2751.00,97.47
2750.00,97.47
2749.00,97.47
2748.00,97.46
2747.00,97.46
2746.00,97.45
2745.00,97.44
2744.00,97.44
2743.00,97.44
2742.00,97.44
2741.00,97.44
2740.00,97.43
2739.00,97.42
2738.00,97.41
2737.00,97.41
2736.00,97.42
2735.00,97.44
2734.00,97.46
2733.00,97.46
2732.00,97.45
2731.00,97.44
2730.00,97.43
2729.00,97.44
2728.00,97.44
2727.00,97.44
2726.00,97.44
2725.00,97.44
2724.00,97.43
2723.00,97.43
2722.00,97.42
2721.00,97.42
2720.00,97.42
2719.00,97.44
2718.00,97.46
2717.00,97.48
2716.00,97.48
2715.00,97.48
2714.00,97.47
2713.00,97.47
2712.00,97.49
2711.00,97.50
2710.00,97.51
2709.00,97.50
2708.00,97.48
2707.00,97.48
2706.00,97.49
2705.00,97.50
2704.00,97.50
2703.00,97.48
2702.00,97.47
2701.00,97.45
2700.00,97.45
2699.00,97.45
2698.00,97.44
2697.00,97.44
2696.00,97.44
2695.00,97.45
2694.00,97.44
2693.00,97.44
2692.00,97.43
2691.00,97.42
2690.00,97.41
2689.00,97.41
2688.00,97.41
2687.00,97.42
2686.00,97.43
2685.00,97.43
2684.00,97.44
2683.00,97.46
2682.00,97.46
2681.00,97.46
2680.00,97.45
2679.00,97.43
2678.00,97.42
2677.00,97.43
2676.00,97.44
2675.00,97.45
2674.00,97.46
2673.00,97.46
2672.00,97.47
2671.00,97.47
2670.00,97.46
2669.00,97.46
2668.00,97.45
2667.00,97.44
2666.00,97.43
2665.00,97.43
2664.00,97.43
2663.00,97.43
2662.00,97.43
2661.00,97.42
2660.00,97.40
2659.00,97.38
2658.00,97.36
2657.00,97.34
2656.00,97.34
2655.00,97.34
2654.00,97.33
2653.00,97.31
2652.00,97.29
2651.00,97.27
2650.00,97.26
2649.00,97.24
2648.00,97.23
2647.00,97.23
2646.00,97.23
2645.00,97.23
2644.00,97.22
2643.00,97.21
2642.00,97.19
2641.00,97.17
2640.00,97.16
2639.00,97.16
2638.00,97.17
2637.00,97.17
2636.00,97.16
2635.00,97.14
2634.00,97.12
2633.00,97.10
2632.00,97.09
2631.00,97.09
2630.00,97.10
2629.00,97.12
2628.00,97.13
2627.00,97.13
2626.00,97.12
2625.00,97.09
2624.00,97.06
2623.00,97.03
2622.00,97.01
2621.00,97.02
2620.00,97.03
2619.00,97.03
2618.00,97.02
2617.00,97.01
2616.00,97.00
2615.00,96.99
2614.00,96.99
2613.00,96.99
2612.00,96.99
2611.00,96.99
2610.00,96.98
2609.00,96.98
2608.00,96.97
2607.00,96.96
2606.00,96.94
2605.00,96.93
2604.00,96.92
2603.00,96.92
2602.00,96.93
2601.00,96.93
2600.00,96.91
2599.00,96.89
2598.00,96.87
2597.00,96.86
2596.00,96.86
2595.00,96.85
2594.00,96.84
2593.00,96.83
2592.00,96.83
2591.00,96.85
2590.00,96.87
2589.00,96.87
2588.00,96.88
2587.00,96.88
2586.00,96.89
2585.00,96.88
2584.00,96.84
2583.00,96.78
2582.00,96.74
2581.00,96.72
2580.00,96.73
2579.00,96.75
2578.00,96.77
2577.00,96.79
2576.00,96.82
2575.00,96.84
2574.00,96.84
2573.00,96.82
2572.00,96.78
2571.00,96.74
2570.00,96.72
2569.00,96.71
2568.00,96.71
2567.00,96.71
2566.00,96.73
2565.00,96.75
2564.00,96.77
2563.00,96.76
2562.00,96.73
2561.00,96.69
2560.00,96.67
2559.00,96.68
2558.00,96.69
2557.00,96.71
2556.00,96.72
2555.00,96.72
2554.00,96.72
2553.00,96.72
2552.00,96.72
2551.00,96.71
2550.00,96.70
2549.00,96.70
2548.00,96.70
2547.00,96.69
2546.00,96.69
2545.00,96.68
2544.00,96.67
2543.00,96.68
2542.00,96.67
2541.00,96.66
2540.00,96.63
2539.00,96.60
2538.00,96.58
2537.00,96.57
2536.00,96.58
2535.00,96.59
2534.00,96.61
2533.00,96.62
2532.00,96.64
2531.00,96.65
2530.00,96.65
2529.00,96.66
2528.00,96.66
2527.00,96.66
2526.00,96.65
2525.00,96.65
2524.00,96.66
2523.00,96.68
2522.00,96.70
2521.00,96.69
2520.00,96.67
2519.00,96.65
2518.00,96.63
2517.00,96.62
2516.00,96.61
2515.00,96.63
2514.00,96.65
2513.00,96.68
2512.00,96.68
2511.00,96.65
2510.00,96.63
2509.00,96.61
2508.00,96.61
2507.00,96.63
2506.00,96.65
2505.00,96.68
2504.00,96.69
2503.00,96.68
2502.00,96.68
2501.00,96.68
2500.00,96.69
2499.00,96.69
2498.00,96.71
2497.00,96.72
2496.00,96.73
2495.00,96.72
2494.00,96.70
2493.00,96.68
2492.00,96.67
2491.00,96.68
2490.00,96.70
2489.00,96.70
2488.00,96.69
2487.00,96.68
2486.00,96.68
2485.00,96.69
2484.00,96.71
2483.00,96.72
2482.00,96.72
2481.00,96.72
2480.00,96.72
2479.00,96.71
2478.00,96.70
2477.00,96.69
2476.00,96.67
2475.00,96.65
2474.00,96.63
2473.00,96.61
2472.00,96.61
2471.00,96.62
2470.00,96.64
2469.00,96.66
2468.00,96.67
2467.00,96.69
2466.00,96.69
2465.00,96.69
2464.00,96.67
2463.00,96.66
2462.00,96.67
2461.00,96.69
2460.00,96.71
2459.00,96.73
2458.00,96.73
2457.00,96.73
2456.00,96.73
2455.00,96.72
2454.00,96.70
2453.00,96.68
2452.00,96.67
2451.00,96.67
2450.00,96.68
2449.00,96.69
2448.00,96.69
2447.00,96.68
2446.00,96.68
2445.00,96.68
2444.00,96.68
2443.00,96.68
2442.00,96.69
2441.00,96.70
2440.00,96.71
2439.00,96.71
2438.00,96.71
2437.00,96.71
2436.00,96.71
2435.00,96.71
2434.00,96.71
2433.00,96.71
2432.00,96.71
2431.00,96.72
2430.00,96.73
2429.00,96.74
2428.00,96.74
2427.00,96.75
2426.00,96.75
2425.00,96.75
2424.00,96.75
2423.00,96.75
2422.00,96.75
2421.00,96.74
2420.00,96.72
2419.00,96.72
2418.00,96.72
2417.00,96.74
2416.00,96.76
2415.00,96.77
2414.00,96.77
2413.00,96.77
2412.00,96.76
2411.00,96.76
2410.00,96.78
2409.00,96.80
2408.00,96.82
2407.00,96.83
2406.00,96.83
2405.00,96.83
2404.00,96.83
2403.00,96.82
2402.00,96.82
2401.00,96.82
2400.00,96.83
2399.00,96.86
2398.00,96.90
2397.00,96.94
2396.00,96.96
2395.00,96.96
2394.00,96.94
2393.00,96.93
2392.00,96.93
2391.00,96.94
2390.00,96.94
2389.00,96.94
2388.00,96.95
2387.00,96.97
2386.00,97.01
2385.00,97.06
2384.00,97.12
2383.00,97.17
2382.00,97.22
2381.00,97.26
2380.00,97.32
2379.00,97.38
2378.00,97.44
2377.00,97.48
2376.00,97.50
2375.00,97.52
2374.00,97.53
2373.00,97.51
2372.00,97.48
2371.00,97.45
2370.00,97.44
2369.00,97.44
2368.00,97.47
2367.00,97.51
2366.00,97.53
2365.00,97.54
2364.00,97.53
2363.00,97.54
2362.00,97.55
2361.00,97.56
2360.00,97.56
2359.00,97.56
2358.00,97.60
2357.00,97.66
2356.00,97.70
2355.00,97.69
2354.00,97.65
2353.00,97.60
2352.00,97.58
2351.00,97.58
2350.00,97.59
2349.00,97.61
2348.00,97.62
2347.00,97.59
2346.00,97.55
2345.00,97.53
2344.00,97.56
2343.00,97.59
2342.00,97.61
2341.00,97.60
2340.00,97.58
2339.00,97.57
2338.00,97.56
2337.00,97.54
2336.00,97.52
2335.00,97.51
2334.00,97.51
2333.00,97.53
2332.00,97.57
2331.00,97.61
2330.00,97.62
2329.00,97.59
2328.00,97.51
2327.00,97.40
2326.00,97.30
2325.00,97.24
2324.00,97.23
2323.00,97.25
2322.00,97.28
2321.00,97.27
2320.00,97.24
2319.00,97.20
2318.00,97.16
2317.00,97.13
2316.00,97.12
2315.00,97.12
2314.00,97.14
2313.00,97.16
2312.00,97.17
2311.00,97.16
2310.00,97.13
2309.00,97.09
2308.00,97.05
2307.00,97.03
2306.00,97.01
2305.00,96.99
2304.00,96.94
2303.00,96.88
2302.00,96.83
2301.00,96.79
2300.00,96.76
2299.00,96.75
2298.00,96.74
2297.00,96.71
2296.00,96.67
2295.00,96.61
2294.00,96.55
2293.00,96.51
2292.00,96.47
2291.00,96.44
2290.00,96.42
2289.00,96.40
2288.00,96.38
2287.00,96.35
2286.00,96.30
2285.00,96.24
2284.00,96.18
2283.00,96.13
2282.00,96.11
2281.00,96.11
2280.00,96.13
2279.00,96.15
2278.00,96.16
2277.00,96.15
2276.00,96.14
2275.00,96.13
2274.00,96.13
2273.00,96.12
2272.00,96.09
2271.00,96.05
2270.00,96.02
2269.00,96.00
2268.00,95.98
2267.00,95.96
2266.00,95.92
2265.00,95.88
2264.00,95.83
2263.00,95.80
2262.00,95.78
2261.00,95.78
2260.00,95.78
2259.00,95.75
2258.00,95.70
2257.00,95.63
2256.00,95.56
2255.00,95.49
2254.00,95.40
2253.00,95.28
2252.00,95.12
2251.00,94.93
2250.00,94.73
2249.00,94.55
2248.00,94.37
2247.00,94.16
2246.00,93.92
2245.00,93.66
2244.00,93.42
2243.00,93.24
2242.00,93.14
2241.00,93.14
2240.00,93.22
2239.00,93.35
2238.00,93.54
2237.00,93.77
2236.00,94.02
2235.00,94.28
2234.00,94.52
2233.00,94.73
2232.00,94.91
2231.00,95.04
2230.00,95.11
2229.00,95.12
2228.00,95.12
2227.00,95.12
2226.00,95.12
2225.00,95.14
2224.00,95.17
2223.00,95.21
2222.00,95.23
2221.00,95.24
2220.00,95.23
2219.00,95.20
2218.00,95.19
2217.00,95.18
2216.00,95.17
2215.00,95.16
2214.00,95.13
2213.00,95.11
2212.00,95.13
2211.00,95.16
2210.00,95.18
2209.00,95.16
2208.00,95.12
2207.00,95.09
2206.00,95.07
2205.00,95.06
2204.00,95.04
2203.00,95.02
2202.00,94.98
2201.00,94.95
2200.00,94.92
2199.00,94.90
2198.00,94.89
2197.00,94.88
2196.00,94.87
2195.00,94.85
2194.00,94.82
2193.00,94.79
2192.00,94.77
2191.00,94.77
2190.00,94.77
2189.00,94.78
2188.00,94.79
2187.00,94.77
2186.00,94.73
2185.00,94.68
2184.00,94.63
2183.00,94.61
2182.00,94.60
2181.00,94.60
2180.00,94.60
2179.00,94.60
2178.00,94.61
2177.00,94.62
2176.00,94.62
2175.00,94.61
2174.00,94.61
2173.00,94.61
2172.00,94.61
2171.00,94.59
2170.00,94.55
2169.00,94.50
2168.00,94.44
2167.00,94.36
2166.00,94.27
2165.00,94.20
2164.00,94.17
2163.00,94.13
2162.00,94.08
2161.00,94.05
2160.00,94.11
2159.00,94.29
2158.00,94.51
2157.00,94.68
2156.00,94.79
2155.00,94.84
2154.00,94.85
2153.00,94.84
2152.00,94.84
2151.00,94.89
2150.00,94.99
2149.00,95.08
2148.00,95.12
2147.00,95.12
2146.00,95.13
2145.00,95.15
2144.00,95.18
2143.00,95.22
2142.00,95.26
2141.00,95.30
2140.00,95.34
2139.00,95.38
2138.00,95.42
2137.00,95.48
2136.00,95.52
2135.00,95.57
2134.00,95.63
2133.00,95.69
2132.00,95.76
2131.00,95.81
2130.00,95.86
2129.00,95.90
2128.00,95.92
2127.00,95.92
2126.00,95.90
2125.00,95.87
2124.00,95.85
2123.00,95.84
2122.00,95.85
2121.00,95.87
2120.00,95.90
2119.00,95.92
2118.00,95.92
2117.00,95.90
2116.00,95.87
2115.00,95.87
2114.00,95.89
2113.00,95.92
2112.00,95.93
2111.00,95.92
2110.00,95.88
2109.00,95.84
2108.00,95.82
2107.00,95.83
2106.00,95.85
2105.00,95.84
2104.00,95.81
2103.00,95.80
2102.00,95.80
2101.00,95.82
2100.00,95.84
2099.00,95.84
2098.00,95.83
2097.00,95.83
2096.00,95.84
2095.00,95.85
2094.00,95.85
2093.00,95.84
2092.00,95.81
2091.00,95.80
2090.00,95.79
2089.00,95.80
2088.00,95.81
2087.00,95.83
2086.00,95.85
2085.00,95.87
2084.00,95.88
2083.00,95.86
2082.00,95.82
2081.00,95.76
2080.00,95.71
2079.00,95.67
2078.00,95.66
2077.00,95.66
2076.00,95.67
2075.00,95.69
2074.00,95.70
2073.00,95.69
2072.00,95.67
2071.00,95.64
2070.00,95.60
2069.00,95.57
2068.00,95.56
2067.00,95.56
2066.00,95.56
2065.00,95.55
2064.00,95.52
2063.00,95.46
2062.00,95.40
2061.00,95.36
2060.00,95.37
2059.00,95.42
2058.00,95.47
2057.00,95.49
2056.00,95.48
2055.00,95.46
2054.00,95.41
2053.00,95.34
2052.00,95.24
2051.00,95.14
2050.00,95.07
2049.00,95.03
2048.00,94.99
2047.00,94.95
2046.00,94.91
2045.00,94.90
2044.00,94.91
2043.00,94.92
2042.00,94.91
2041.00,94.87
2040.00,94.81
2039.00,94.73
2038.00,94.66
2037.00,94.62
2036.00,94.63
2035.00,94.66
2034.00,94.69
2033.00,94.69
2032.00,94.65
2031.00,94.60
2030.00,94.54
2029.00,94.52
2028.00,94.54
2027.00,94.61
2026.00,94.68
2025.00,94.71
2024.00,94.71
2023.00,94.71
2022.00,94.72
2021.00,94.75
2020.00,94.78
2019.00,94.77
2018.00,94.75
2017.00,94.74
2016.00,94.73
2015.00,94.71
2014.00,94.66
2013.00,94.62
2012.00,94.63
2011.00,94.70
2010.00,94.78
2009.00,94.82
2008.00,94.82
2007.00,94.82
2006.00,94.85
2005.00,94.90
2004.00,94.95
2003.00,94.98
2002.00,94.99
2001.00,95.00
2000.00,95.01
1999.00,95.03
1998.00,95.04
1997.00,95.05
1996.00,95.04
1995.00,95.02
1994.00,94.98
1993.00,94.92
1992.00,94.89
1991.00,94.91
1990.00,94.99
1989.00,95.07
1988.00,95.11
1987.00,95.08
1986.00,94.99
1985.00,94.88
1984.00,94.80
1983.00,94.75
1982.00,94.72
1981.00,94.69
1980.00,94.64
1979.00,94.61
1978.00,94.62
1977.00,94.67
1976.00,94.73
1975.00,94.81
1974.00,94.90
1973.00,94.99
1972.00,95.03
1971.00,95.03
1970.00,95.00
1969.00,95.00
1968.00,95.01
1967.00,95.05
1966.00,95.08
1965.00,95.11
1964.00,95.13
1963.00,95.12
1962.00,95.11
1961.00,95.11
1960.00,95.16
1959.00,95.23
1958.00,95.31
1957.00,95.36
1956.00,95.37
1955.00,95.35
1954.00,95.34
1953.00,95.36
1952.00,95.43
1951.00,95.53
1950.00,95.63
1949.00,95.69
1948.00,95.71
1947.00,95.71
1946.00,95.73
1945.00,95.76
1944.00,95.78
1943.00,95.80
1942.00,95.80
1941.00,95.81
1940.00,95.83
1939.00,95.84
1938.00,95.86
1937.00,95.88
1936.00,95.89
1935.00,95.89
1934.00,95.90
1933.00,95.92
1932.00,95.98
1931.00,96.04
1930.00,96.09
1929.00,96.11
1928.00,96.09
1927.00,96.05
1926.00,96.03
1925.00,96.03
1924.00,96.07
1923.00,96.12
1922.00,96.16
1921.00,96.16
1920.00,96.13
1919.00,96.11
1918.00,96.13
1917.00,96.16
1916.00,96.19
1915.00,96.20
1914.00,96.20
1913.00,96.21
1912.00,96.22
1911.00,96.23
1910.00,96.23
1909.00,96.24
1908.00,96.24
1907.00,96.25
1906.00,96.24
1905.00,96.24
1904.00,96.26
1903.00,96.30
1902.00,96.34
1901.00,96.38
1900.00,96.40
1899.00,96.40
1898.00,96.37
1897.00,96.34
1896.00,96.31
1895.00,96.31
1894.00,96.33
1893.00,96.35
1892.00,96.37
1891.00,96.36
1890.00,96.36
1889.00,96.35
1888.00,96.34
1887.00,96.34
1886.00,96.38
1885.00,96.42
1884.00,96.46
1883.00,96.48
1882.00,96.48
1881.00,96.49
1880.00,96.51
1879.00,96.50
1878.00,96.48
1877.00,96.45
1876.00,96.44
1875.00,96.44
1874.00,96.45
1873.00,96.47
1872.00,96.49
1871.00,96.50
1870.00,96.51
1869.00,96.52
1868.00,96.53
1867.00,96.53
1866.00,96.54
1865.00,96.53
1864.00,96.52
1863.00,96.52
1862.00,96.52
1861.00,96.53
1860.00,96.54
1859.00,96.56
1858.00,96.56
1857.00,96.57
1856.00,96.58
1855.00,96.60
1854.00,96.62
1853.00,96.64
1852.00,96.65
1851.00,96.64
1850.00,96.62
1849.00,96.59
1848.00,96.58
1847.00,96.60
1846.00,96.63
1845.00,96.65
1844.00,96.67
1843.00,96.68
1842.00,96.69
1841.00,96.69
1840.00,96.69
1839.00,96.69
1838.00,96.68
1837.00,96.68
1836.00,96.68
1835.00,96.68
1834.00,96.68
1833.00,96.67
1832.00,96.67
1831.00,96.67
1830.00,96.69
1829.00,96.72
1828.00,96.76
1827.00,96.78
1826.00,96.79
1825.00,96.78
1824.00,96.76
1823.00,96.75
1822.00,96.76
1821.00,96.77
1820.00,96.77
1819.00,96.77
1818.00,96.78
1817.00,96.79
1816.00,96.81
1815.00,96.83
1814.00,96.84
1813.00,96.85
1812.00,96.86
1811.00,96.87
1810.00,96.86
1809.00,96.85
1808.00,96.83
1807.00,96.81
1806.00,96.81
1805.00,96.81
1804.00,96.81
1803.00,96.83
1802.00,96.85
1801.00,96.87
1800.00,96.89
1799.00,96.89
1798.00,96.88
1797.00,96.85
1796.00,96.82
1795.00,96.80
1794.00,96.80
1793.00,96.82
1792.00,96.84
1791.00,96.85
1790.00,96.85
1789.00,96.86
1788.00,96.86
1787.00,96.87
1786.00,96.88
1785.00,96.89
1784.00,96.89
1783.00,96.89
1782.00,96.89
1781.00,96.89
1780.00,96.90
1779.00,96.90
1778.00,96.90
1777.00,96.88
1776.00,96.87
1775.00,96.85
1774.00,96.84
1773.00,96.84
1772.00,96.86
1771.00,96.87
1770.00,96.86
1769.00,96.86
1768.00,96.85
1767.00,96.86
1766.00,96.86
1765.00,96.85
1764.00,96.85
1763.00,96.84
1762.00,96.83
1761.00,96.82
1760.00,96.81
1759.00,96.80
1758.00,96.79
1757.00,96.78
1756.00,96.77
1755.00,96.77
1754.00,96.78
1753.00,96.80
1752.00,96.81
1751.00,96.80
1750.00,96.76
1749.00,96.72
1748.00,96.69
1747.00,96.67
1746.00,96.66
1745.00,96.66
1744.00,96.64
1743.00,96.61
1742.00,96.57
1741.00,96.55
1740.00,96.54
1739.00,96.53
1738.00,96.51
1737.00,96.49
1736.00,96.48
1735.00,96.47
1734.00,96.45
1733.00,96.43
1732.00,96.42
1731.00,96.42
1730.00,96.43
1729.00,96.45
1728.00,96.47
1727.00,96.47
1726.00,96.47
1725.00,96.47
1724.00,96.48
1723.00,96.50
1722.00,96.51
1721.00,96.52
1720.00,96.52
1719.00,96.53
1718.00,96.54
1717.00,96.55
1716.00,96.57
1715.00,96.60
1714.00,96.63
1713.00,96.64
1712.00,96.65
1711.00,96.66
1710.00,96.66
1709.00,96.67
1708.00,96.68
1707.00,96.67
1706.00,96.66
1705.00,96.64
1704.00,96.61
1703.00,96.59
1702.00,96.58
1701.00,96.59
1700.00,96.63
1699.00,96.67
1698.00,96.67
1697.00,96.67
1696.00,96.68
1695.00,96.70
1694.00,96.71
1693.00,96.71
1692.00,96.71
1691.00,96.73
1690.00,96.75
1689.00,96.75
1688.00,96.75
1687.00,96.75
1686.00,96.75
1685.00,96.75
1684.00,96.75
1683.00,96.75
1682.00,96.75
1681.00,96.76
1680.00,96.77
1679.00,96.78
1678.00,96.78
1677.00,96.78
1676.00,96.78
1675.00,96.79
1674.00,96.79
1673.00,96.78
1672.00,96.77
1671.00,96.76
1670.00,96.76
1669.00,96.76
1668.00,96.76
1667.00,96.75
1666.00,96.75
1665.00,96.75
1664.00,96.74
1663.00,96.73
1662.00,96.72
1661.00,96.71
1660.00,96.70
1659.00,96.71
1658.00,96.71
1657.00,96.72
1656.00,96.72
1655.00,96.71
1654.00,96.69
1653.00,96.67
1652.00,96.69
1651.00,96.70
1650.00,96.70
1649.00,96.70
1648.00,96.69
1647.00,96.67
1646.00,96.65
1645.00,96.65
1644.00,96.64
1643.00,96.63
1642.00,96.62
1641.00,96.62
1640.00,96.62
1639.00,96.61
1638.00,96.59
1637.00,96.56
1636.00,96.53
1635.00,96.51
1634.00,96.52
1633.00,96.51
1632.00,96.51
1631.00,96.50
1630.00,96.50
1629.00,96.50
1628.00,96.50
1627.00,96.51
1626.00,96.52
1625.00,96.53
1624.00,96.53
1623.00,96.52
1622.00,96.50
1621.00,96.49
1620.00,96.47
1619.00,96.48
1618.00,96.48
1617.00,96.50
1616.00,96.51
1615.00,96.52
1614.00,96.53
1613.00,96.54
1612.00,96.56
1611.00,96.57
1610.00,96.58
1609.00,96.60
1608.00,96.62
1607.00,96.64
1606.00,96.64
1605.00,96.64
1604.00,96.64
1603.00,96.65
1602.00,96.66
1601.00,96.68
1600.00,96.69
1599.00,96.70
1598.00,96.72
1597.00,96.73
1596.00,96.74
1595.00,96.75
1594.00,96.75
1593.00,96.77
1592.00,96.79
1591.00,96.81
1590.00,96.81
1589.00,96.80
1588.00,96.79
1587.00,96.79
1586.00,96.80
1585.00,96.82
1584.00,96.84
1583.00,96.86
1582.00,96.86
1581.00,96.86
1580.00,96.86
1579.00,96.86
1578.00,96.87
1577.00,96.88
1576.00,96.89
1575.00,96.89
1574.00,96.89
1573.00,96.88
1572.00,96.89
1571.00,96.90
1570.00,96.91
1569.00,96.93
1568.00,96.95
1567.00,96.95
1566.00,96.95
1565.00,96.94
1564.00,96.93
1563.00,96.93
1562.00,96.93
1561.00,96.95
1560.00,96.96
1559.00,96.95
1558.00,96.96
1557.00,96.98
1556.00,96.97
1555.00,96.97
1554.00,96.97
1553.00,96.97
1552.00,96.96
1551.00,96.96
1550.00,96.95
1549.00,96.95
1548.00,96.94
1547.00,96.93
1546.00,96.94
1545.00,96.95
1544.00,96.97
1543.00,96.99
1542.00,97.00
1541.00,96.98
1540.00,96.96
1539.00,96.95
1538.00,96.95
1537.00,96.96
1536.00,96.97
1535.00,96.99
1534.00,97.01
1533.00,97.00
1532.00,96.99
1531.00,96.98
1530.00,96.97
1529.00,96.97
1528.00,96.96
1527.00,96.96
1526.00,96.97
1525.00,96.97
1524.00,96.97
1523.00,96.97
1522.00,96.97
1521.00,96.96
1520.00,96.96
1519.00,96.96
1518.00,96.96
1517.00,96.97
1516.00,96.99
1515.00,97.01
1514.00,97.01
1513.00,97.01
1512.00,97.00
1511.00,97.00
1510.00,97.01
1509.00,97.01
1508.00,97.00
1507.00,96.97
1506.00,96.95
1505.00,96.95
1504.00,96.95
1503.00,96.95
1502.00,96.96
1501.00,96.96
1500.00,96.95
1499.00,96.94
1498.00,96.92
1497.00,96.90
1496.00,96.89
1495.00,96.89
1494.00,96.91
1493.00,96.92
1492.00,96.93
1491.00,96.92
1490.00,96.90
1489.00,96.88
1488.00,96.87
1487.00,96.88
1486.00,96.89
1485.00,96.88
1484.00,96.88
1483.00,96.87
1482.00,96.87
1481.00,96.86
1480.00,96.85
1479.00,96.83
1478.00,96.81
1477.00,96.79
1476.00,96.78
1475.00,96.77
1474.00,96.76
1473.00,96.75
1472.00,96.73
1471.00,96.71
1470.00,96.69
1469.00,96.66
1468.00,96.63
1467.00,96.61
1466.00,96.58
1465.00,96.55
1464.00,96.52
1463.00,96.48
1462.00,96.43
1461.00,96.38
1460.00,96.30
1459.00,96.19
1458.00,96.02
1457.00,95.77
1456.00,95.52
1455.00,95.32
1454.00,95.12
1453.00,94.91
1452.00,94.67
1451.00,94.42
1450.00,94.16
1449.00,93.88
1448.00,93.59
1447.00,93.30
1446.00,93.01
1445.00,92.71
1444.00,92.40
1443.00,92.11
1442.00,91.84
1441.00,91.60
1440.00,91.44
1439.00,91.35
1438.00,91.35
1437.00,91.40
1436.00,91.50
1435.00,91.63
1434.00,91.78
1433.00,91.96
1432.00,92.18
1431.00,92.43
1430.00,92.70
1429.00,92.95
1428.00,93.19
1427.00,93.40
1426.00,93.60
1425.00,93.82
1424.00,94.03
1423.00,94.23
1422.00,94.39
1421.00,94.54
1420.00,94.71
1419.00,94.89
1418.00,95.03
1417.00,95.15
1416.00,95.25
1415.00,95.36
1414.00,95.47
1413.00,95.57
1412.00,95.67
1411.00,95.76
1410.00,95.84
1409.00,95.91
1408.00,95.97
1407.00,96.02
1406.00,96.06
1405.00,96.11
1404.00,96.14
1403.00,96.17
1402.00,96.19
1401.00,96.22
1400.00,96.24
1399.00,96.24
1398.00,96.22
1397.00,96.20
1396.00,96.18
1395.00,96.16
1394.00,96.12
1393.00,96.08
1392.00,96.04
1391.00,96.00
1390.00,95.96
1389.00,95.92
1388.00,95.88
1387.00,95.84
1386.00,95.79
1385.00,95.74
1384.00,95.69
1383.00,95.64
1382.00,95.60
1381.00,95.57
1380.00,95.55
1379.00,95.52
1378.00,95.49
1377.00,95.45
1376.00,95.40
1375.00,95.35
1374.00,95.31
1373.00,95.27
1372.00,95.22
1371.00,95.16
1370.00,95.09
1369.00,95.04
1368.00,95.00
1367.00,94.96
1366.00,94.91
1365.00,94.86
1364.00,94.79
1363.00,94.72
1362.00,94.63
1361.00,94.54
1360.00,94.46
1359.00,94.39
1358.00,94.33
1357.00,94.29
1356.00,94.26
1355.00,94.25
1354.00,94.26
1353.00,94.27
1352.00,94.29
1351.00,94.31
1350.00,94.34
1349.00,94.38
1348.00,94.42
1347.00,94.46
1346.00,94.51
1345.00,94.55
1344.00,94.59
1343.00,94.61
1342.00,94.63
1341.00,94.63
1340.00,94.63
1339.00,94.60
1338.00,94.57
1337.00,94.53
1336.00,94.49
1335.00,94.45
1334.00,94.40
1333.00,94.36
1332.00,94.32
1331.00,94.30
1330.00,94.29
1329.00,94.28
1328.00,94.26
1327.00,94.25
1326.00,94.25
1325.00,94.25
1324.00,94.24
1323.00,94.23
1322.00,94.22
1321.00,94.23
1320.00,94.24
1319.00,94.24
1318.00,94.25
1317.00,94.25
1316.00,94.26
1315.00,94.27
1314.00,94.28
1313.00,94.28
1312.00,94.28
1311.00,94.27
1310.00,94.27
1309.00,94.28
1308.00,94.29
1307.00,94.30
1306.00,94.30
1305.00,94.29
1304.00,94.27
1303.00,94.24
1302.00,94.21
1301.00,94.17
1300.00,94.13
1299.00,94.10
1298.00,94.07
1297.00,94.04
1296.00,94.00
1295.00,93.97
1294.00,93.93
1293.00,93.89
1292.00,93.86
1291.00,93.84
1290.00,93.82
1289.00,93.80
1288.00,93.79
1287.00,93.79
1286.00,93.81
1285.00,93.83
1284.00,93.86
1283.00,93.88
1282.00,93.89
1281.00,93.90
1280.00,93.92
1279.00,93.94
1278.00,93.96
1277.00,93.96
1276.00,93.95
1275.00,93.93
1274.00,93.91
1273.00,93.86
1272.00,93.79
1271.00,93.70
1270.00,93.59
1269.00,93.48
1268.00,93.35
1267.00,93.21
1266.00,93.08
1265.00,92.95
1264.00,92.82
1263.00,92.71
1262.00,92.61
1261.00,92.53
1260.00,92.48
1259.00,92.47
1258.00,92.46
1257.00,92.45
1256.00,92.42
1255.00,92.40
1254.00,92.39
1253.00,92.40
1252.00,92.42
1251.00,92.44
1250.00,92.47
1249.00,92.50
1248.00,92.53
1247.00,92.56
1246.00,92.58
1245.00,92.59
1244.00,92.59
1243.00,92.59
1242.00,92.59
1241.00,92.59
1240.00,92.60
1239.00,92.63
1238.00,92.66
1237.00,92.71
1236.00,92.77
1235.00,92.86
1234.00,92.98
1233.00,93.10
1232.00,93.22
1231.00,93.33
1230.00,93.45
1229.00,93.57
1228.00,93.67
1227.00,93.75
1226.00,93.81
1225.00,93.85
1224.00,93.89
1223.00,93.91
1222.00,93.91
1221.00,93.89
1220.00,93.87
1219.00,93.85
1218.00,93.83
1217.00,93.79
1216.00,93.74
1215.00,93.68
1214.00,93.62
1213.00,93.58
1212.00,93.55
1211.00,93.53
1210.00,93.53
1209.00,93.53
1208.00,93.54
1207.00,93.55
1206.00,93.56
1205.00,93.58
1204.00,93.60
1203.00,93.62
1202.00,93.64
1201.00,93.67
1200.00,93.71
1199.00,93.75
1198.00,93.81
1197.00,93.86
1196.00,93.91
1195.00,93.96
1194.00,94.01
1193.00,94.06
1192.00,94.12
1191.00,94.18
1190.00,94.23
1189.00,94.27
1188.00,94.31
1187.00,94.35
1186.00,94.38
1185.00,94.41
1184.00,94.45
1183.00,94.48
1182.00,94.50
1181.00,94.50
1180.00,94.51
1179.00,94.52
1178.00,94.53
1177.00,94.53
1176.00,94.54
1175.00,94.56
1174.00,94.59
1173.00,94.61
1172.00,94.62
1171.00,94.64
1170.00,94.67
1169.00,94.71
1168.00,94.75
1167.00,94.79
1166.00,94.83
1165.00,94.87
1164.00,94.93
1163.00,95.00
1162.00,95.08
1161.00,95.16
1160.00,95.23
1159.00,95.28
1158.00,95.32
1157.00,95.34
1156.00,95.35
1155.00,95.37
1154.00,95.41
1153.00,95.46
1152.00,95.53
1151.00,95.58
1150.00,95.59
1149.00,95.58
1148.00,95.54
1147.00,95.52
1146.00,95.51
1145.00,95.51
1144.00,95.51
1143.00,95.51
1142.00,95.49
1141.00,95.48
1140.00,95.48
1139.00,95.49
1138.00,95.49
1137.00,95.48
1136.00,95.45
1135.00,95.42
1134.00,95.40
1133.00,95.39
1132.00,95.40
1131.00,95.40
1130.00,95.37
1129.00,95.34
1128.00,95.30
1127.00,95.26
1126.00,95.20
1125.00,95.12
1124.00,95.02
1123.00,94.92
1122.00,94.84
1121.00,94.78
1120.00,94.71
1119.00,94.63
1118.00,94.55
1117.00,94.49
1116.00,94.44
1115.00,94.42
1114.00,94.39
1113.00,94.34
1112.00,94.27
1111.00,94.21
1110.00,94.18
1109.00,94.16
1108.00,94.13
1107.00,94.08
1106.00,94.03
1105.00,93.98
1104.00,93.96
1103.00,93.96
1102.00,93.96
1101.00,93.96
1100.00,93.96
1099.00,93.95
1098.00,93.96
1097.00,93.97
1096.00,93.98
1095.00,93.99
1094.00,93.99
1093.00,93.99
1092.00,94.00
1091.00,94.02
1090.00,94.04
1089.00,94.06
1088.00,94.08
1087.00,94.11
1086.00,94.13
1085.00,94.14
1084.00,94.15
1083.00,94.16
1082.00,94.17
1081.00,94.19
1080.00,94.21
1079.00,94.23
1078.00,94.22
1077.00,94.19
1076.00,94.14
1075.00,94.11
1074.00,94.11
1073.00,94.13
1072.00,94.15
1071.00,94.15
1070.00,94.16
1069.00,94.15
1068.00,94.15
1067.00,94.13
1066.00,94.11
1065.00,94.07
1064.00,94.02
1063.00,93.97
1062.00,93.93
1061.00,93.92
1060.00,93.93
1059.00,93.94
1058.00,93.91
1057.00,93.87
1056.00,93.82
1055.00,93.77
1054.00,93.72
1053.00,93.66
1052.00,93.62
1051.00,93.59
1050.00,93.58
1049.00,93.57
1048.00,93.56
1047.00,93.55
1046.00,93.52
1045.00,93.48
1044.00,93.46
1043.00,93.47
1042.00,93.49
1041.00,93.49
1040.00,93.44
1039.00,93.38
1038.00,93.34
1037.00,93.32
1036.00,93.32
1035.00,93.32
1034.00,93.32
1033.00,93.32
1032.00,93.33
1031.00,93.36
1030.00,93.40
1029.00,93.44
1028.00,93.47
1027.00,93.49
1026.00,93.50
1025.00,93.50
1024.00,93.52
1023.00,93.54
1022.00,93.57
1021.00,93.56
1020.00,93.53
1019.00,93.49
1018.00,93.44
1017.00,93.40
1016.00,93.36
1015.00,93.31
1014.00,93.27
1013.00,93.23
1012.00,93.19
1011.00,93.15
1010.00,93.09
1009.00,93.02
1008.00,92.95
1007.00,92.88
1006.00,92.83
1005.00,92.77
1004.00,92.70
1003.00,92.65
1002.00,92.61
1001.00,92.59
1000.00,92.57
999.00,92.54
998.00,92.52
997.00,92.49
996.00,92.48
995.00,92.47
994.00,92.47
993.00,92.48
992.00,92.49
991.00,92.51
990.00,92.53
989.00,92.55
988.00,92.58
987.00,92.61
986.00,92.64
985.00,92.67
984.00,92.72
983.00,92.76
982.00,92.80
981.00,92.83
980.00,92.86
979.00,92.91
978.00,92.98
977.00,93.04
976.00,93.10
975.00,93.14
974.00,93.16
973.00,93.16
972.00,93.17
971.00,93.18
970.00,93.20
969.00,93.23
968.00,93.26
967.00,93.28
966.00,93.29
965.00,93.29
964.00,93.28
963.00,93.27
962.00,93.26
961.00,93.26
960.00,93.27
959.00,93.29
958.00,93.32
957.00,93.34
956.00,93.36
955.00,93.38
954.00,93.40
953.00,93.43
952.00,93.46
951.00,93.50
950.00,93.56
949.00,93.61
948.00,93.65
947.00,93.67
946.00,93.67
945.00,93.68
944.00,93.69
943.00,93.70
942.00,93.73
941.00,93.77
940.00,93.81
939.00,93.84
938.00,93.86
937.00,93.85
936.00,93.85
935.00,93.85
934.00,93.86
933.00,93.89
932.00,93.90
931.00,93.92
930.00,93.94
929.00,93.96
928.00,93.99
927.00,94.01
926.00,94.00
925.00,93.98
924.00,93.95
923.00,93.92
922.00,93.90
921.00,93.90
920.00,93.91
919.00,93.93
918.00,93.96
917.00,93.99
916.00,94.03
915.00,94.06
914.00,94.08
913.00,94.09
912.00,94.09
911.00,94.10
910.00,94.11
909.00,94.13
908.00,94.14
907.00,94.15
906.00,94.16
905.00,94.17
904.00,94.17
903.00,94.18
902.00,94.19
901.00,94.21
900.00,94.21
899.00,94.20
898.00,94.20
897.00,94.22
896.00,94.26
895.00,94.28
894.00,94.28
893.00,94.24
892.00,94.19
891.00,94.15
890.00,94.15
889.00,94.18
888.00,94.22
887.00,94.26
886.00,94.28
885.00,94.29
884.00,94.28
883.00,94.28
882.00,94.27
881.00,94.27
880.00,94.26
879.00,94.25
878.00,94.25
877.00,94.27
876.00,94.32
875.00,94.37
874.00,94.41
873.00,94.43
872.00,94.43
871.00,94.42
870.00,94.40
869.00,94.37
868.00,94.37
867.00,94.40
866.00,94.43
865.00,94.47
864.00,94.50
863.00,94.52
862.00,94.53
861.00,94.52
860.00,94.50
859.00,94.48
858.00,94.47
857.00,94.48
856.00,94.49
855.00,94.51
854.00,94.54
853.00,94.59
852.00,94.64
851.00,94.68
850.00,94.70
849.00,94.69
848.00,94.68
847.00,94.69
846.00,94.72
845.00,94.77
844.00,94.82
843.00,94.86
842.00,94.89
841.00,94.91
840.00,94.94
839.00,94.96
838.00,94.98
837.00,95.00
836.00,95.02
835.00,95.04
834.00,95.07
833.00,95.10
832.00,95.12
831.00,95.14
830.00,95.18
829.00,95.21
828.00,95.24
827.00,95.25
826.00,95.24
825.00,95.23
824.00,95.22
823.00,95.20
822.00,95.18
821.00,95.17
820.00,95.18
819.00,95.19
818.00,95.20
817.00,95.19
816.00,95.20
815.00,95.23
814.00,95.25
813.00,95.24
812.00,95.19
811.00,95.14
810.00,95.11
809.00,95.09
808.00,95.08
807.00,95.09
806.00,95.08
805.00,95.07
804.00,95.06
803.00,95.08
802.00,95.10
801.00,95.12
800.00,95.11
799.00,95.08
798.00,95.07
797.00,95.06
796.00,95.04
795.00,95.01
794.00,94.99
793.00,94.98
792.00,94.99
791.00,95.00
790.00,94.98
789.00,94.93
788.00,94.89
787.00,94.87
786.00,94.88
785.00,94.90
784.00,94.89
783.00,94.86
782.00,94.82
781.00,94.79
780.00,94.76
779.00,94.72
778.00,94.67
777.00,94.64
776.00,94.63
775.00,94.65
774.00,94.66
773.00,94.67
772.00,94.68
771.00,94.71
770.00,94.75
769.00,94.79
768.00,94.81
767.00,94.82
766.00,94.81
765.00,94.79
764.00,94.79
763.00,94.82
762.00,94.87
761.00,94.94
760.00,95.00
759.00,95.04
758.00,95.05
757.00,95.02
756.00,95.00
755.00,94.99
754.00,94.99
753.00,94.97
752.00,94.95
751.00,94.93
750.00,94.94
749.00,94.96
748.00,94.98
747.00,95.00
746.00,95.01
745.00,95.03
744.00,95.05
743.00,95.07
742.00,95.08
741.00,95.09
740.00,95.07
739.00,95.05
738.00,95.02
737.00,95.01
736.00,95.00
735.00,94.99
734.00,94.97
733.00,94.95
732.00,94.91
731.00,94.87
730.00,94.83
729.00,94.80
728.00,94.78
727.00,94.79
726.00,94.80
725.00,94.80
724.00,94.79
723.00,94.77
722.00,94.76
721.00,94.74
720.00,94.69
719.00,94.60
718.00,94.49
717.00,94.37
716.00,94.27
715.00,94.19
714.00,94.13
713.00,94.05
712.00,93.92
711.00,93.77
710.00,93.60
709.00,93.46
708.00,93.34
707.00,93.22
706.00,93.09
705.00,92.94
704.00,92.81
703.00,92.69
702.00,92.58
701.00,92.48
700.00,92.39
699.00,92.32
698.00,92.28
697.00,92.25
696.00,92.21
695.00,92.18
694.00,92.16
693.00,92.13
692.00,92.07
691.00,92.01
690.00,91.97
689.00,91.97
688.00,91.98
687.00,91.98
686.00,91.98
685.00,92.01
684.00,92.07
683.00,92.11
682.00,92.11
681.00,92.08
680.00,92.07
679.00,92.12
678.00,92.19
677.00,92.25
676.00,92.27
675.00,92.28
674.00,92.30
673.00,92.35
672.00,92.43
671.00,92.50
670.00,92.55
669.00,92.54
668.00,92.42
667.00,92.22
666.00,92.13
665.00,92.18
664.00,92.21
663.00,92.19
662.00,92.15
661.00,92.12
660.00,92.13
659.00,92.13
658.00,92.08
657.00,91.92
656.00,91.67
655.00,91.40
654.00,91.17
653.00,90.99
652.00,90.83
651.00,90.68
650.00,90.50
649.00,90.29
648.00,90.11
647.00,89.98
646.00,89.87
645.00,89.67
644.00,89.39
643.00,89.08
642.00,88.80
641.00,88.50
640.00,88.14
639.00,87.75
638.00,87.39
637.00,87.04
636.00,86.74
635.00,86.57
634.00,86.54
633.00,86.55
632.00,86.50
631.00,86.38
630.00,86.19
629.00,85.89
628.00,85.48
627.00,85.13
626.00,84.98
625.00,85.03
624.00,85.16
623.00,85.34
622.00,85.52
621.00,85.56
620.00,85.39
619.00,85.18
618.00,85.16
617.00,85.33
616.00,85.48
615.00,85.49
614.00,85.39
613.00,85.29
612.00,85.28
611.00,85.37
610.00,85.44
609.00,85.35
608.00,85.14
607.00,85.01
606.00,85.08
605.00,85.33
604.00,85.78
603.00,86.51
602.00,87.41
601.00,88.08
600.00,88.13
599.00,87.61
598.00,86.97
597.00,86.59
596.00,86.57
595.00,86.88
594.00,87.40
593.00,87.99
592.00,88.40
591.00,88.49
590.00,88.37
589.00,88.38
588.00,88.72
587.00,89.23
586.00,89.63
585.00,89.84
584.00,90.08
583.00,90.40
582.00,90.55
581.00,90.35
580.00,90.06
579.00,90.12
578.00,90.58
577.00,91.13
576.00,91.46
575.00,91.51
574.00,91.31
573.00,90.93
572.00,90.53
571.00,90.26
570.00,90.10
569.00,89.84
568.00,89.48
567.00,89.33
566.00,89.59
565.00,90.09
564.00,90.48
563.00,90.52
562.00,90.25
561.00,89.87
560.00,89.70
559.00,90.00
558.00,90.65
557.00,91.22
556.00,91.35
555.00,90.97
554.00,90.28
553.00,89.57
552.00,89.14
551.00,89.22
550.00,89.77
