Created as New Dataset,70. Waxman
cm-1,%T
4000.00,100.19
3999.00,100.18
3998.00,100.17
3997.00,100.15
3996.00,100.14
3995.00,100.13
3994.00,100.13
3993.00,100.13
3992.00,100.15
3991.00,100.16
3990.00,100.16
3989.00,100.16
3988.00,100.15
3987.00,100.13
3986.00,100.12
3985.00,100.11
3984.00,100.11
3983.00,100.11
3982.00,100.11
3981.00,100.10
3980.00,100.09
3979.00,100.08
3978.00,100.09
3977.00,100.11
3976.00,100.13
3975.00,100.14
3974.00,100.14
3973.00,100.14
3972.00,100.14
3971.00,100.15
3970.00,100.14
3969.00,100.13
3968.00,100.12
3967.00,100.11
3966.00,100.12
3965.00,100.13
3964.00,100.15
3963.00,100.15
3962.00,100.14
3961.00,100.12
3960.00,100.11
3959.00,100.11
3958.00,100.12
3957.00,100.15
3956.00,100.17
3955.00,100.17
3954.00,100.17
3953.00,100.15
3952.00,100.13
3951.00,100.12
3950.00,100.10
3949.00,100.10
3948.00,100.11
3947.00,100.13
3946.00,100.15
3945.00,100.17
3944.00,100.17
3943.00,100.16
3942.00,100.15
3941.00,100.14
3940.00,100.14
3939.00,100.14
3938.00,100.14
3937.00,100.14
3936.00,100.12
3935.00,100.10
3934.00,100.09
3933.00,100.08
3932.00,100.09
3931.00,100.10
3930.00,100.12
3929.00,100.13
3928.00,100.14
3927.00,100.13
3926.00,100.12
3925.00,100.10
3924.00,100.08
3923.00,100.06
3922.00,100.05
3921.00,100.04
3920.00,100.05
3919.00,100.07
3918.00,100.08
3917.00,100.09
3916.00,100.08
3915.00,100.08
3914.00,100.08
3913.00,100.08
3912.00,100.08
3911.00,100.07
3910.00,100.07
3909.00,100.08
3908.00,100.09
3907.00,100.11
3906.00,100.12
3905.00,100.13
3904.00,100.12
3903.00,100.11
3902.00,100.10
3901.00,100.10
3900.00,100.10
3899.00,100.10
3898.00,100.11
3897.00,100.12
3896.00,100.13
3895.00,100.14
3894.00,100.15
3893.00,100.15
3892.00,100.14
3891.00,100.14
3890.00,100.14
3889.00,100.15
3888.00,100.14
3887.00,100.13
3886.00,100.12
3885.00,100.11
3884.00,100.12
3883.00,100.14
3882.00,100.14
3881.00,100.12
3880.00,100.09
3879.00,100.07
3878.00,100.05
3877.00,100.04
3876.00,100.03
3875.00,100.02
3874.00,100.02
3873.00,100.04
3872.00,100.08
3871.00,100.13
3870.00,100.15
3869.00,100.14
3868.00,100.13
3867.00,100.11
3866.00,100.09
3865.00,100.08
3864.00,100.07
3863.00,100.07
3862.00,100.07
3861.00,100.07
3860.00,100.08
3859.00,100.09
3858.00,100.12
3857.00,100.15
3856.00,100.17
3855.00,100.18
3854.00,100.18
3853.00,100.19
3852.00,100.20
3851.00,100.20
3850.00,100.17
3849.00,100.13
3848.00,100.10
3847.00,100.08
3846.00,100.08
3845.00,100.09
3844.00,100.09
3843.00,100.10
3842.00,100.10
3841.00,100.11
3840.00,100.11
3839.00,100.10
3838.00,100.10
3837.00,100.10
3836.00,100.09
3835.00,100.08
3834.00,100.06
3833.00,100.04
3832.00,100.03
3831.00,100.02
3830.00,100.02
3829.00,100.01
3828.00,100.01
3827.00,100.02
3826.00,100.04
3825.00,100.06
3824.00,100.08
3823.00,100.09
3822.00,100.08
3821.00,100.07
3820.00,100.09
3819.00,100.13
3818.00,100.16
3817.00,100.16
3816.00,100.13
3815.00,100.08
3814.00,100.04
3813.00,100.01
3812.00,99.99
3811.00,99.98
3810.00,99.99
3809.00,100.01
3808.00,100.03
3807.00,100.04
3806.00,100.04
3805.00,100.03
3804.00,100.01
3803.00,99.99
3802.00,99.98
3801.00,99.98
3800.00,100.02
3799.00,100.06
3798.00,100.09
3797.00,100.08
3796.00,100.04
3795.00,100.00
3794.00,99.97
3793.00,99.96
3792.00,99.97
3791.00,99.98
3790.00,99.98
3789.00,99.97
3788.00,99.97
3787.00,99.96
3786.00,99.96
3785.00,99.97
3784.00,99.97
3783.00,99.97
3782.00,99.96
3781.00,99.96
3780.00,99.94
3779.00,99.93
3778.00,99.91
3777.00,99.90
3776.00,99.89
3775.00,99.89
3774.00,99.90
3773.00,99.91
3772.00,99.92
3771.00,99.92
3770.00,99.90
3769.00,99.88
3768.00,99.88
3767.00,99.88
3766.00,99.88
3765.00,99.88
3764.00,99.88
3763.00,99.88
3762.00,99.89
3761.00,99.89
3760.00,99.88
3759.00,99.87
3758.00,99.87
3757.00,99.87
3756.00,99.88
3755.00,99.90
3754.00,99.93
3753.00,99.96
3752.00,99.97
3751.00,99.97
3750.00,99.99
3749.00,100.02
3748.00,100.04
3747.00,100.04
3746.00,100.03
3745.00,100.00
3744.00,99.98
3743.00,99.96
3742.00,99.95
3741.00,99.94
3740.00,99.92
3739.00,99.91
3738.00,99.92
3737.00,99.96
3736.00,99.99
3735.00,99.99
3734.00,99.97
3733.00,99.94
3732.00,99.92
3731.00,99.91
3730.00,99.89
3729.00,99.87
3728.00,99.83
3727.00,99.81
3726.00,99.80
3725.00,99.80
3724.00,99.82
3723.00,99.82
3722.00,99.82
3721.00,99.81
3720.00,99.80
3719.00,99.80
3718.00,99.80
3717.00,99.80
3716.00,99.80
3715.00,99.80
3714.00,99.80
3713.00,99.79
3712.00,99.79
3711.00,99.82
3710.00,99.86
3709.00,99.88
3708.00,99.86
3707.00,99.82
3706.00,99.78
3705.00,99.76
3704.00,99.76
3703.00,99.76
3702.00,99.76
3701.00,99.75
3700.00,99.74
3699.00,99.74
3698.00,99.75
3697.00,99.77
3696.00,99.78
3695.00,99.79
3694.00,99.79
3693.00,99.80
3692.00,99.82
3691.00,99.83
3690.00,99.84
3689.00,99.83
3688.00,99.83
3687.00,99.84
3686.00,99.84
3685.00,99.83
3684.00,99.81
3683.00,99.79
3682.00,99.77
3681.00,99.75
3680.00,99.73
3679.00,99.73
3678.00,99.73
3677.00,99.74
3676.00,99.75
3675.00,99.77
3674.00,99.81
3673.00,99.83
3672.00,99.82
3671.00,99.79
3670.00,99.74
3669.00,99.69
3668.00,99.65
3667.00,99.62
3666.00,99.59
3665.00,99.56
3664.00,99.53
3663.00,99.51
3662.00,99.50
3661.00,99.50
3660.00,99.52
3659.00,99.54
3658.00,99.55
3657.00,99.55
3656.00,99.54
3655.00,99.53
3654.00,99.53
3653.00,99.54
3652.00,99.56
3651.00,99.57
3650.00,99.57
3649.00,99.57
3648.00,99.58
3647.00,99.58
3646.00,99.57
3645.00,99.55
3644.00,99.53
3643.00,99.52
3642.00,99.51
3641.00,99.49
3640.00,99.48
3639.00,99.46
3638.00,99.45
3637.00,99.45
3636.00,99.45
3635.00,99.45
3634.00,99.46
3633.00,99.46
3632.00,99.47
3631.00,99.47
3630.00,99.46
3629.00,99.44
3628.00,99.43
3627.00,99.43
3626.00,99.45
3625.00,99.46
3624.00,99.47
3623.00,99.47
3622.00,99.48
3621.00,99.50
3620.00,99.52
3619.00,99.55
3618.00,99.57
3617.00,99.57
3616.00,99.56
3615.00,99.55
3614.00,99.54
3613.00,99.53
3612.00,99.53
3611.00,99.52
3610.00,99.50
3609.00,99.47
3608.00,99.45
3607.00,99.43
3606.00,99.42
3605.00,99.42
3604.00,99.43
3603.00,99.45
3602.00,99.46
3601.00,99.47
3600.00,99.46
3599.00,99.45
3598.00,99.45
3597.00,99.46
3596.00,99.48
3595.00,99.48
3594.00,99.48
3593.00,99.47
3592.00,99.47
3591.00,99.49
3590.00,99.49
3589.00,99.48
3588.00,99.46
3587.00,99.44
3586.00,99.43
3585.00,99.44
3584.00,99.43
3583.00,99.41
3582.00,99.39
3581.00,99.38
3580.00,99.40
3579.00,99.43
3578.00,99.45
3577.00,99.44
3576.00,99.41
3575.00,99.39
3574.00,99.38
3573.00,99.39
3572.00,99.40
3571.00,99.42
3570.00,99.42
3569.00,99.41
3568.00,99.40
3567.00,99.39
3566.00,99.38
3565.00,99.39
3564.00,99.40
3563.00,99.41
3562.00,99.42
3561.00,99.44
3560.00,99.44
3559.00,99.43
3558.00,99.42
3557.00,99.42
3556.00,99.41
3555.00,99.40
3554.00,99.39
3553.00,99.39
3552.00,99.39
3551.00,99.39
3550.00,99.38
3549.00,99.37
3548.00,99.35
3547.00,99.34
3546.00,99.35
3545.00,99.35
3544.00,99.35
3543.00,99.34
3542.00,99.32
3541.00,99.31
3540.00,99.32
3539.00,99.34
3538.00,99.36
3537.00,99.36
3536.00,99.36
3535.00,99.37
3534.00,99.37
3533.00,99.37
3532.00,99.36
3531.00,99.36
3530.00,99.35
3529.00,99.35
3528.00,99.33
3527.00,99.32
3526.00,99.30
3525.00,99.30
3524.00,99.31
3523.00,99.32
3522.00,99.33
3521.00,99.35
3520.00,99.35
3519.00,99.36
3518.00,99.35
3517.00,99.34
3516.00,99.34
3515.00,99.34
3514.00,99.34
3513.00,99.35
3512.00,99.36
3511.00,99.37
3510.00,99.38
3509.00,99.38
3508.00,99.39
3507.00,99.40
3506.00,99.39
3505.00,99.37
3504.00,99.34
3503.00,99.32
3502.00,99.32
3501.00,99.33
3500.00,99.34
3499.00,99.35
3498.00,99.34
3497.00,99.33
3496.00,99.31
3495.00,99.30
3494.00,99.30
3493.00,99.32
3492.00,99.34
3491.00,99.36
3490.00,99.37
3489.00,99.37
3488.00,99.36
3487.00,99.36
3486.00,99.35
3485.00,99.34
3484.00,99.32
3483.00,99.30
3482.00,99.28
3481.00,99.28
3480.00,99.30
3479.00,99.33
3478.00,99.35
3477.00,99.35
3476.00,99.34
3475.00,99.34
3474.00,99.35
3473.00,99.36
3472.00,99.36
3471.00,99.35
3470.00,99.34
3469.00,99.34
3468.00,99.35
3467.00,99.37
3466.00,99.37
3465.00,99.36
3464.00,99.35
3463.00,99.33
3462.00,99.32
3461.00,99.32
3460.00,99.32
3459.00,99.31
3458.00,99.30
3457.00,99.28
3456.00,99.26
3455.00,99.26
3454.00,99.26
3453.00,99.26
3452.00,99.27
3451.00,99.28
3450.00,99.30
3449.00,99.33
3448.00,99.35
3447.00,99.36
3446.00,99.36
3445.00,99.34
3444.00,99.33
3443.00,99.33
3442.00,99.34
3441.00,99.36
3440.00,99.37
3439.00,99.36
3438.00,99.34
3437.00,99.32
3436.00,99.31
3435.00,99.31
3434.00,99.31
3433.00,99.31
3432.00,99.29
3431.00,99.27
3430.00,99.26
3429.00,99.25
3428.00,99.25
3427.00,99.26
3426.00,99.28
3425.00,99.30
3424.00,99.31
3423.00,99.32
3422.00,99.32
3421.00,99.33
3420.00,99.34
3419.00,99.35
3418.00,99.36
3417.00,99.36
3416.00,99.36
3415.00,99.34
3414.00,99.31
3413.00,99.28
3412.00,99.27
3411.00,99.28
3410.00,99.30
3409.00,99.31
3408.00,99.32
3407.00,99.32
3406.00,99.31
3405.00,99.31
3404.00,99.31
3403.00,99.31
3402.00,99.31
3401.00,99.31
3400.00,99.30
3399.00,99.30
3398.00,99.29
3397.00,99.29
3396.00,99.29
3395.00,99.30
3394.00,99.32
3393.00,99.33
3392.00,99.34
3391.00,99.34
3390.00,99.33
3389.00,99.32
3388.00,99.31
3387.00,99.29
3386.00,99.27
3385.00,99.25
3384.00,99.24
3383.00,99.24
3382.00,99.26
3381.00,99.28
3380.00,99.30
3379.00,99.31
3378.00,99.32
3377.00,99.33
3376.00,99.33
3375.00,99.33
3374.00,99.31
3373.00,99.30
3372.00,99.29
3371.00,99.28
3370.00,99.26
3369.00,99.24
3368.00,99.22
3367.00,99.21
3366.00,99.22
3365.00,99.24
3364.00,99.27
3363.00,99.29
3362.00,99.29
3361.00,99.29
3360.00,99.28
3359.00,99.29
3358.00,99.29
3357.00,99.30
3356.00,99.30
3355.00,99.30
3354.00,99.30
3353.00,99.29
3352.00,99.29
3351.00,99.29
3350.00,99.29
3349.00,99.30
3348.00,99.31
3347.00,99.33
3346.00,99.34
3345.00,99.34
3344.00,99.31
3343.00,99.29
3342.00,99.27
3341.00,99.26
3340.00,99.27
3339.00,99.29
3338.00,99.31
3337.00,99.32
3336.00,99.32
3335.00,99.31
3334.00,99.30
3333.00,99.31
3332.00,99.31
3331.00,99.31
3330.00,99.30
3329.00,99.28
3328.00,99.25
3327.00,99.23
3326.00,99.22
3325.00,99.23
3324.00,99.25
3323.00,99.28
3322.00,99.31
3321.00,99.32
3320.00,99.33
3319.00,99.32
3318.00,99.32
3317.00,99.31
3316.00,99.30
3315.00,99.30
3314.00,99.30
3313.00,99.31
3312.00,99.30
3311.00,99.29
3310.00,99.27
3309.00,99.26
3308.00,99.27
3307.00,99.28
3306.00,99.30
3305.00,99.30
3304.00,99.29
3303.00,99.29
3302.00,99.27
3301.00,99.25
3300.00,99.23
3299.00,99.22
3298.00,99.22
3297.00,99.22
3296.00,99.22
3295.00,99.21
3294.00,99.20
3293.00,99.19
3292.00,99.19
3291.00,99.20
3290.00,99.22
3289.00,99.24
3288.00,99.26
3287.00,99.27
3286.00,99.28
3285.00,99.28
3284.00,99.28
3283.00,99.28
3282.00,99.28
3281.00,99.27
3280.00,99.25
3279.00,99.22
3278.00,99.21
3277.00,99.20
3276.00,99.22
3275.00,99.24
3274.00,99.26
3273.00,99.26
3272.00,99.25
3271.00,99.23
3270.00,99.21
3269.00,99.21
3268.00,99.21
3267.00,99.21
3266.00,99.21
3265.00,99.21
3264.00,99.20
3263.00,99.20
3262.00,99.21
3261.00,99.23
3260.00,99.24
3259.00,99.24
3258.00,99.24
3257.00,99.25
3256.00,99.25
3255.00,99.25
3254.00,99.24
3253.00,99.23
3252.00,99.22
3251.00,99.22
3250.00,99.22
3249.00,99.22
3248.00,99.23
3247.00,99.23
3246.00,99.25
3245.00,99.26
3244.00,99.27
3243.00,99.26
3242.00,99.26
3241.00,99.25
3240.00,99.25
3239.00,99.25
3238.00,99.24
3237.00,99.23
3236.00,99.21
3235.00,99.20
3234.00,99.21
3233.00,99.22
3232.00,99.24
3231.00,99.26
3230.00,99.26
3229.00,99.25
3228.00,99.24
3227.00,99.22
3226.00,99.21
3225.00,99.19
3224.00,99.17
3223.00,99.17
3222.00,99.18
3221.00,99.20
3220.00,99.22
3219.00,99.22
3218.00,99.21
3217.00,99.20
3216.00,99.21
3215.00,99.22
3214.00,99.23
3213.00,99.24
3212.00,99.23
3211.00,99.23
3210.00,99.22
3209.00,99.22
3208.00,99.22
3207.00,99.21
3206.00,99.21
3205.00,99.20
3204.00,99.21
3203.00,99.22
3202.00,99.24
3201.00,99.25
3200.00,99.23
3199.00,99.21
3198.00,99.20
3197.00,99.19
3196.00,99.21
3195.00,99.23
3194.00,99.24
3193.00,99.25
3192.00,99.24
3191.00,99.23
3190.00,99.23
3189.00,99.23
3188.00,99.24
3187.00,99.25
3186.00,99.25
3185.00,99.25
3184.00,99.25
3183.00,99.26
3182.00,99.26
3181.00,99.27
3180.00,99.26
3179.00,99.25
3178.00,99.23
3177.00,99.21
3176.00,99.19
3175.00,99.18
3174.00,99.19
3173.00,99.20
3172.00,99.22
3171.00,99.23
3170.00,99.23
3169.00,99.23
3168.00,99.23
3167.00,99.23
3166.00,99.23
3165.00,99.22
3164.00,99.22
3163.00,99.23
3162.00,99.24
3161.00,99.24
3160.00,99.24
3159.00,99.24
3158.00,99.24
3157.00,99.24
3156.00,99.24
3155.00,99.25
3154.00,99.25
3153.00,99.25
3152.00,99.26
3151.00,99.28
3150.00,99.29
3149.00,99.29
3148.00,99.28
3147.00,99.25
3146.00,99.24
3145.00,99.22
3144.00,99.22
3143.00,99.23
3142.00,99.24
3141.00,99.25
3140.00,99.25
3139.00,99.24
3138.00,99.23
3137.00,99.22
3136.00,99.22
3135.00,99.23
3134.00,99.23
3133.00,99.24
3132.00,99.24
3131.00,99.23
3130.00,99.22
3129.00,99.21
3128.00,99.19
3127.00,99.19
3126.00,99.20
3125.00,99.22
3124.00,99.24
3123.00,99.25
3122.00,99.26
3121.00,99.26
3120.00,99.26
3119.00,99.26
3118.00,99.26
3117.00,99.26
3116.00,99.26
3115.00,99.27
3114.00,99.26
3113.00,99.26
3112.00,99.25
3111.00,99.25
3110.00,99.24
3109.00,99.23
3108.00,99.22
3107.00,99.22
3106.00,99.21
3105.00,99.21
3104.00,99.21
3103.00,99.22
3102.00,99.23
3101.00,99.23
3100.00,99.23
3099.00,99.22
3098.00,99.22
3097.00,99.23
3096.00,99.25
3095.00,99.26
3094.00,99.26
3093.00,99.25
3092.00,99.24
3091.00,99.23
3090.00,99.22
3089.00,99.21
3088.00,99.20
3087.00,99.19
3086.00,99.19
3085.00,99.19
3084.00,99.20
3083.00,99.20
3082.00,99.19
3081.00,99.17
3080.00,99.15
3079.00,99.15
3078.00,99.16
3077.00,99.17
3076.00,99.16
3075.00,99.15
3074.00,99.14
3073.00,99.13
3072.00,99.14
3071.00,99.14
3070.00,99.15
3069.00,99.15
3068.00,99.15
3067.00,99.15
3066.00,99.16
3065.00,99.16
3064.00,99.17
3063.00,99.17
3062.00,99.17
3061.00,99.16
3060.00,99.15
3059.00,99.15
3058.00,99.15
3057.00,99.16
3056.00,99.17
3055.00,99.17
3054.00,99.16
3053.00,99.15
3052.00,99.16
3051.00,99.17
3050.00,99.17
3049.00,99.17
3048.00,99.16
3047.00,99.16
3046.00,99.15
3045.00,99.15
3044.00,99.15
3043.00,99.15
3042.00,99.16
3041.00,99.16
3040.00,99.16
3039.00,99.16
3038.00,99.15
3037.00,99.13
3036.00,99.12
3035.00,99.11
3034.00,99.11
3033.00,99.13
3032.00,99.14
3031.00,99.16
3030.00,99.16
3029.00,99.15
3028.00,99.14
3027.00,99.12
3026.00,99.10
3025.00,99.09
3024.00,99.07
3023.00,99.06
3022.00,99.07
3021.00,99.08
3020.00,99.10
3019.00,99.09
3018.00,99.09
3017.00,99.08
3016.00,99.07
3015.00,99.07
3014.00,99.06
3013.00,99.05
3012.00,99.05
3011.00,99.04
3010.00,99.03
3009.00,99.01
3008.00,99.00
3007.00,98.99
3006.00,98.98
3005.00,98.97
3004.00,98.97
3003.00,98.96
3002.00,98.96
3001.00,98.97
3000.00,98.96
2999.00,98.95
2998.00,98.94
2997.00,98.92
2996.00,98.90
2995.00,98.89
2994.00,98.88
2993.00,98.87
2992.00,98.86
2991.00,98.85
2990.00,98.84
2989.00,98.83
2988.00,98.81
2987.00,98.79
2986.00,98.77
2985.00,98.76
2984.00,98.75
2983.00,98.75
2982.00,98.73
2981.00,98.71
2980.00,98.67
2979.00,98.64
2978.00,98.62
2977.00,98.61
2976.00,98.60
2975.00,98.59
2974.00,98.58
2973.00,98.56
2972.00,98.53
2971.00,98.50
2970.00,98.46
2969.00,98.43
2968.00,98.41
2967.00,98.38
2966.00,98.37
2965.00,98.35
2964.00,98.33
2963.00,98.31
2962.00,98.27
2961.00,98.23
2960.00,98.20
2959.00,98.19
2958.00,98.19
2957.00,98.20
2956.00,98.20
2955.00,98.19
2954.00,98.19
2953.00,98.18
2952.00,98.19
2951.00,98.19
2950.00,98.19
2949.00,98.17
2948.00,98.14
2947.00,98.11
2946.00,98.09
2945.00,98.06
2944.00,98.03
2943.00,98.00
2942.00,97.97
2941.00,97.93
2940.00,97.89
2939.00,97.85
2938.00,97.81
2937.00,97.78
2936.00,97.75
2935.00,97.72
2934.00,97.69
2933.00,97.66
2932.00,97.62
2931.00,97.59
2930.00,97.56
2929.00,97.53
2928.00,97.50
2927.00,97.47
2926.00,97.46
2925.00,97.46
2924.00,97.46
2923.00,97.46
2922.00,97.45
2921.00,97.44
2920.00,97.44
2919.00,97.45
2918.00,97.47
2917.00,97.52
2916.00,97.59
2915.00,97.67
2914.00,97.74
2913.00,97.80
2912.00,97.85
2911.00,97.91
2910.00,97.97
2909.00,98.03
2908.00,98.09
2907.00,98.15
2906.00,98.22
2905.00,98.28
2904.00,98.33
2903.00,98.37
2902.00,98.40
2901.00,98.44
2900.00,98.48
2899.00,98.52
2898.00,98.55
2897.00,98.57
2896.00,98.59
2895.00,98.60
2894.00,98.62
2893.00,98.63
2892.00,98.65
2891.00,98.65
2890.00,98.65
2889.00,98.66
2888.00,98.66
2887.00,98.66
2886.00,98.66
2885.00,98.67
2884.00,98.69
2883.00,98.70
2882.00,98.71
2881.00,98.71
2880.00,98.72
2879.00,98.71
2878.00,98.71
2877.00,98.71
2876.00,98.71
2875.00,98.72
2874.00,98.73
2873.00,98.72
2872.00,98.71
2871.00,98.69
2870.00,98.67
2869.00,98.67
2868.00,98.67
2867.00,98.68
2866.00,98.67
2865.00,98.67
2864.00,98.66
2863.00,98.67
2862.00,98.67
2861.00,98.67
2860.00,98.65
2859.00,98.62
2858.00,98.59
2857.00,98.56
2856.00,98.54
2855.00,98.54
2854.00,98.53
2853.00,98.53
2852.00,98.51
2851.00,98.50
2850.00,98.51
2849.00,98.53
2848.00,98.57
2847.00,98.62
2846.00,98.68
2845.00,98.72
2844.00,98.75
2843.00,98.78
2842.00,98.79
2841.00,98.79
2840.00,98.79
2839.00,98.79
2838.00,98.80
2837.00,98.81
2836.00,98.84
2835.00,98.87
2834.00,98.90
2833.00,98.93
2832.00,98.95
2831.00,98.95
2830.00,98.95
2829.00,98.94
2828.00,98.93
2827.00,98.94
2826.00,98.94
2825.00,98.94
2824.00,98.94
2823.00,98.94
2822.00,98.94
2821.00,98.94
2820.00,98.96
2819.00,98.97
2818.00,98.99
2817.00,98.99
2816.00,98.98
2815.00,98.97
2814.00,98.97
2813.00,98.97
2812.00,98.97
2811.00,98.98
2810.00,98.98
2809.00,98.98
2808.00,98.98
2807.00,98.99
2806.00,99.00
2805.00,99.01
2804.00,99.01
2803.00,99.01
2802.00,99.00
2801.00,99.00
2800.00,99.01
2799.00,99.02
2798.00,99.04
2797.00,99.05
2796.00,99.05
2795.00,99.04
2794.00,99.02
2793.00,99.01
2792.00,99.00
2791.00,98.99
2790.00,98.99
2789.00,98.99
2788.00,98.99
2787.00,98.99
2786.00,99.00
2785.00,99.01
2784.00,99.02
2783.00,99.02
2782.00,99.00
2781.00,98.98
2780.00,98.98
2779.00,98.99
2778.00,99.01
2777.00,99.03
2776.00,99.05
2775.00,99.06
2774.00,99.07
2773.00,99.07
2772.00,99.06
2771.00,99.05
2770.00,99.05
2769.00,99.05
2768.00,99.04
2767.00,99.04
2766.00,99.05
2765.00,99.06
2764.00,99.06
2763.00,99.06
2762.00,99.05
2761.00,99.03
2760.00,99.02
2759.00,99.01
2758.00,99.00
2757.00,99.00
2756.00,99.00
2755.00,99.00
2754.00,99.01
2753.00,99.02
2752.00,99.03
2751.00,99.04
2750.00,99.05
2749.00,99.05
2748.00,99.04
2747.00,99.04
2746.00,99.04
2745.00,99.05
2744.00,99.05
2743.00,99.05
2742.00,99.04
2741.00,99.04
2740.00,99.03
2739.00,99.03
2738.00,99.03
2737.00,99.02
2736.00,99.02
2735.00,99.01
2734.00,99.02
2733.00,99.02
2732.00,99.03
2731.00,99.02
2730.00,99.01
2729.00,98.99
2728.00,98.98
2727.00,98.99
2726.00,99.00
2725.00,99.02
2724.00,99.03
2723.00,99.03
2722.00,99.01
2721.00,99.00
2720.00,98.99
2719.00,98.98
2718.00,98.98
2717.00,98.99
2716.00,99.00
2715.00,99.01
2714.00,99.01
2713.00,99.01
2712.00,99.00
2711.00,98.99
2710.00,98.99
2709.00,98.99
2708.00,98.99
2707.00,98.99
2706.00,98.99
2705.00,98.98
2704.00,98.99
2703.00,98.99
2702.00,98.99
2701.00,98.98
2700.00,98.97
2699.00,98.97
2698.00,98.97
2697.00,98.97
2696.00,98.98
2695.00,98.98
2694.00,98.98
2693.00,98.98
2692.00,98.98
2691.00,98.98
2690.00,98.99
2689.00,98.99
2688.00,99.00
2687.00,99.00
2686.00,99.00
2685.00,99.00
2684.00,98.98
2683.00,98.97
2682.00,98.97
2681.00,98.97
2680.00,98.97
2679.00,98.97
2678.00,98.96
2677.00,98.95
2676.00,98.95
2675.00,98.96
2674.00,98.97
2673.00,98.98
2672.00,98.98
2671.00,98.97
2670.00,98.96
2669.00,98.96
2668.00,98.96
2667.00,98.96
2666.00,98.95
2665.00,98.93
2664.00,98.92
2663.00,98.91
2662.00,98.91
2661.00,98.91
2660.00,98.91
2659.00,98.90
2658.00,98.89
2657.00,98.88
2656.00,98.87
2655.00,98.86
2654.00,98.86
2653.00,98.86
2652.00,98.85
2651.00,98.84
2650.00,98.83
2649.00,98.82
2648.00,98.81
2647.00,98.80
2646.00,98.80
2645.00,98.80
2644.00,98.78
2643.00,98.76
2642.00,98.74
2641.00,98.72
2640.00,98.71
2639.00,98.72
2638.00,98.72
2637.00,98.72
2636.00,98.71
2635.00,98.71
2634.00,98.71
2633.00,98.71
2632.00,98.70
2631.00,98.69
2630.00,98.67
2629.00,98.65
2628.00,98.64
2627.00,98.64
2626.00,98.64
2625.00,98.63
2624.00,98.63
2623.00,98.63
2622.00,98.62
2621.00,98.62
2620.00,98.62
2619.00,98.63
2618.00,98.63
2617.00,98.62
2616.00,98.61
2615.00,98.60
2614.00,98.58
2613.00,98.57
2612.00,98.57
2611.00,98.57
2610.00,98.56
2609.00,98.56
2608.00,98.57
2607.00,98.56
2606.00,98.55
2605.00,98.52
2604.00,98.49
2603.00,98.47
2602.00,98.47
2601.00,98.48
2600.00,98.49
2599.00,98.49
2598.00,98.49
2597.00,98.48
2596.00,98.47
2595.00,98.47
2594.00,98.47
2593.00,98.46
2592.00,98.44
2591.00,98.41
2590.00,98.39
2589.00,98.38
2588.00,98.38
2587.00,98.38
2586.00,98.38
2585.00,98.39
2584.00,98.40
2583.00,98.42
2582.00,98.43
2581.00,98.42
2580.00,98.39
2579.00,98.37
2578.00,98.35
2577.00,98.35
2576.00,98.37
2575.00,98.38
2574.00,98.39
2573.00,98.38
2572.00,98.36
2571.00,98.35
2570.00,98.33
2569.00,98.32
2568.00,98.32
2567.00,98.33
2566.00,98.34
2565.00,98.35
2564.00,98.35
2563.00,98.36
2562.00,98.37
2561.00,98.37
2560.00,98.37
2559.00,98.36
2558.00,98.36
2557.00,98.36
2556.00,98.38
2555.00,98.38
2554.00,98.38
2553.00,98.36
2552.00,98.34
2551.00,98.33
2550.00,98.33
2549.00,98.34
2548.00,98.33
2547.00,98.33
2546.00,98.33
2545.00,98.32
2544.00,98.30
2543.00,98.28
2542.00,98.27
2541.00,98.26
2540.00,98.26
2539.00,98.27
2538.00,98.27
2537.00,98.27
2536.00,98.27
2535.00,98.27
2534.00,98.26
2533.00,98.25
2532.00,98.24
2531.00,98.25
2530.00,98.26
2529.00,98.27
2528.00,98.28
2527.00,98.28
2526.00,98.29
2525.00,98.30
2524.00,98.30
2523.00,98.28
2522.00,98.26
2521.00,98.24
2520.00,98.22
2519.00,98.20
2518.00,98.20
2517.00,98.21
2516.00,98.24
2515.00,98.27
2514.00,98.30
2513.00,98.31
2512.00,98.30
2511.00,98.28
2510.00,98.26
2509.00,98.25
2508.00,98.24
2507.00,98.24
2506.00,98.26
2505.00,98.27
2504.00,98.27
2503.00,98.27
2502.00,98.26
2501.00,98.25
2500.00,98.26
2499.00,98.26
2498.00,98.27
2497.00,98.27
2496.00,98.28
2495.00,98.28
2494.00,98.28
2493.00,98.28
2492.00,98.28
2491.00,98.28
2490.00,98.28
2489.00,98.28
2488.00,98.27
2487.00,98.26
2486.00,98.26
2485.00,98.26
2484.00,98.27
2483.00,98.28
2482.00,98.30
2481.00,98.31
2480.00,98.32
2479.00,98.31
2478.00,98.30
2477.00,98.29
2476.00,98.29
2475.00,98.29
2474.00,98.29
2473.00,98.29
2472.00,98.29
2471.00,98.28
2470.00,98.27
2469.00,98.25
2468.00,98.25
2467.00,98.24
2466.00,98.23
2465.00,98.21
2464.00,98.21
2463.00,98.23
2462.00,98.26
2461.00,98.29
2460.00,98.29
2459.00,98.26
2458.00,98.23
2457.00,98.21
2456.00,98.20
2455.00,98.19
2454.00,98.19
2453.00,98.20
2452.00,98.21
2451.00,98.23
2450.00,98.25
2449.00,98.27
2448.00,98.28
2447.00,98.28
2446.00,98.27
2445.00,98.24
2444.00,98.21
2443.00,98.20
2442.00,98.22
2441.00,98.25
2440.00,98.27
2439.00,98.28
2438.00,98.27
2437.00,98.26
2436.00,98.25
2435.00,98.25
2434.00,98.25
2433.00,98.23
2432.00,98.21
2431.00,98.20
2430.00,98.21
2429.00,98.23
2428.00,98.26
2427.00,98.28
2426.00,98.29
2425.00,98.29
2424.00,98.28
2423.00,98.27
2422.00,98.25
2421.00,98.23
2420.00,98.22
2419.00,98.22
2418.00,98.24
2417.00,98.27
2416.00,98.30
2415.00,98.32
2414.00,98.32
2413.00,98.31
2412.00,98.30
2411.00,98.28
2410.00,98.27
2409.00,98.26
2408.00,98.25
2407.00,98.24
2406.00,98.25
2405.00,98.26
2404.00,98.28
2403.00,98.31
2402.00,98.33
2401.00,98.36
2400.00,98.38
2399.00,98.39
2398.00,98.39
2397.00,98.37
2396.00,98.35
2395.00,98.35
2394.00,98.35
2393.00,98.37
2392.00,98.39
2391.00,98.40
2390.00,98.40
2389.00,98.40
2388.00,98.41
2387.00,98.42
2386.00,98.43
2385.00,98.44
2384.00,98.45
2383.00,98.46
2382.00,98.49
2381.00,98.54
2380.00,98.61
2379.00,98.68
2378.00,98.72
2377.00,98.74
2376.00,98.73
2375.00,98.71
2374.00,98.71
2373.00,98.73
2372.00,98.76
2371.00,98.80
2370.00,98.83
2369.00,98.83
2368.00,98.81
2367.00,98.78
2366.00,98.77
2365.00,98.77
2364.00,98.79
2363.00,98.80
2362.00,98.82
2361.00,98.84
2360.00,98.84
2359.00,98.81
2358.00,98.78
2357.00,98.79
2356.00,98.82
2355.00,98.86
2354.00,98.87
2353.00,98.85
2352.00,98.84
2351.00,98.84
2350.00,98.84
2349.00,98.84
2348.00,98.83
2347.00,98.83
2346.00,98.83
2345.00,98.83
2344.00,98.82
2343.00,98.78
2342.00,98.75
2341.00,98.74
2340.00,98.76
2339.00,98.78
2338.00,98.79
2337.00,98.79
2336.00,98.79
2335.00,98.79
2334.00,98.77
2333.00,98.75
2332.00,98.74
2331.00,98.76
2330.00,98.76
2329.00,98.73
2328.00,98.68
2327.00,98.59
2326.00,98.49
2325.00,98.40
2324.00,98.37
2323.00,98.40
2322.00,98.45
2321.00,98.48
2320.00,98.49
2319.00,98.50
2318.00,98.49
2317.00,98.47
2316.00,98.43
2315.00,98.40
2314.00,98.39
2313.00,98.38
2312.00,98.38
2311.00,98.39
2310.00,98.42
2309.00,98.44
2308.00,98.43
2307.00,98.39
2306.00,98.33
2305.00,98.28
2304.00,98.24
2303.00,98.22
2302.00,98.21
2301.00,98.20
2300.00,98.19
2299.00,98.18
2298.00,98.16
2297.00,98.12
2296.00,98.07
2295.00,98.02
2294.00,97.98
2293.00,97.95
2292.00,97.92
2291.00,97.90
2290.00,97.88
2289.00,97.86
2288.00,97.86
2287.00,97.87
2286.00,97.86
2285.00,97.85
2284.00,97.81
2283.00,97.78
2282.00,97.76
2281.00,97.76
2280.00,97.76
2279.00,97.75
2278.00,97.73
2277.00,97.68
2276.00,97.63
2275.00,97.60
2274.00,97.59
2273.00,97.59
2272.00,97.59
2271.00,97.58
2270.00,97.57
2269.00,97.56
2268.00,97.55
2267.00,97.54
2266.00,97.52
2265.00,97.48
2264.00,97.42
2263.00,97.37
2262.00,97.31
2261.00,97.27
2260.00,97.22
2259.00,97.18
2258.00,97.16
2257.00,97.15
2256.00,97.13
2255.00,97.06
2254.00,96.94
2253.00,96.75
2252.00,96.52
2251.00,96.26
2250.00,96.02
2249.00,95.79
2248.00,95.59
2247.00,95.40
2246.00,95.21
2245.00,95.02
2244.00,94.84
2243.00,94.70
2242.00,94.64
2241.00,94.66
2240.00,94.78
2239.00,94.97
2238.00,95.20
2237.00,95.44
2236.00,95.68
2235.00,95.89
2234.00,96.10
2233.00,96.29
2232.00,96.44
2231.00,96.55
2230.00,96.64
2229.00,96.71
2228.00,96.76
2227.00,96.79
2226.00,96.82
2225.00,96.86
2224.00,96.92
2223.00,96.95
2222.00,96.94
2221.00,96.90
2220.00,96.88
2219.00,96.88
2218.00,96.89
2217.00,96.89
2216.00,96.88
2215.00,96.87
2214.00,96.86
2213.00,96.86
2212.00,96.84
2211.00,96.80
2210.00,96.76
2209.00,96.76
2208.00,96.79
2207.00,96.81
2206.00,96.80
2205.00,96.75
2204.00,96.70
2203.00,96.67
2202.00,96.68
2201.00,96.71
2200.00,96.72
2199.00,96.71
2198.00,96.68
2197.00,96.64
2196.00,96.60
2195.00,96.56
2194.00,96.51
2193.00,96.48
2192.00,96.44
2191.00,96.38
2190.00,96.33
2189.00,96.32
2188.00,96.36
2187.00,96.41
2186.00,96.42
2185.00,96.41
2184.00,96.40
2183.00,96.42
2182.00,96.45
2181.00,96.47
2180.00,96.47
2179.00,96.46
2178.00,96.48
2177.00,96.51
2176.00,96.52
2175.00,96.50
2174.00,96.46
2173.00,96.41
2172.00,96.36
2171.00,96.29
2170.00,96.22
2169.00,96.15
2168.00,96.10
2167.00,96.07
2166.00,96.00
2165.00,95.92
2164.00,95.86
2163.00,95.83
2162.00,95.85
2161.00,95.89
2160.00,95.97
2159.00,96.11
2158.00,96.31
2157.00,96.51
2156.00,96.68
2155.00,96.78
2154.00,96.81
2153.00,96.75
2152.00,96.64
2151.00,96.56
2150.00,96.53
2149.00,96.58
2148.00,96.66
2147.00,96.74
2146.00,96.81
2145.00,96.85
2144.00,96.87
2143.00,96.91
2142.00,96.96
2141.00,97.01
2140.00,97.05
2139.00,97.09
2138.00,97.12
2137.00,97.16
2136.00,97.22
2135.00,97.28
2134.00,97.33
2133.00,97.35
2132.00,97.36
2131.00,97.36
2130.00,97.37
2129.00,97.38
2128.00,97.40
2127.00,97.41
2126.00,97.43
2125.00,97.45
2124.00,97.45
2123.00,97.47
2122.00,97.48
2121.00,97.47
2120.00,97.45
2119.00,97.41
2118.00,97.37
2117.00,97.33
2116.00,97.29
2115.00,97.28
2114.00,97.28
2113.00,97.31
2112.00,97.33
2111.00,97.34
2110.00,97.32
2109.00,97.29
2108.00,97.27
2107.00,97.27
2106.00,97.29
2105.00,97.33
2104.00,97.36
2103.00,97.38
2102.00,97.38
2101.00,97.36
2100.00,97.33
2099.00,97.31
2098.00,97.31
2097.00,97.32
2096.00,97.34
2095.00,97.34
2094.00,97.34
2093.00,97.33
2092.00,97.33
2091.00,97.33
2090.00,97.34
2089.00,97.36
2088.00,97.37
2087.00,97.37
2086.00,97.36
2085.00,97.34
2084.00,97.31
2083.00,97.28
2082.00,97.24
2081.00,97.22
2080.00,97.20
2079.00,97.18
2078.00,97.16
2077.00,97.16
2076.00,97.16
2075.00,97.16
2074.00,97.15
2073.00,97.14
2072.00,97.14
2071.00,97.13
2070.00,97.13
2069.00,97.12
2068.00,97.10
2067.00,97.08
2066.00,97.06
2065.00,97.05
2064.00,97.06
2063.00,97.08
2062.00,97.09
2061.00,97.09
2060.00,97.06
2059.00,97.02
2058.00,96.98
2057.00,96.95
2056.00,96.93
2055.00,96.91
2054.00,96.87
2053.00,96.81
2052.00,96.72
2051.00,96.64
2050.00,96.62
2049.00,96.64
2048.00,96.66
2047.00,96.66
2046.00,96.62
2045.00,96.57
2044.00,96.53
2043.00,96.48
2042.00,96.43
2041.00,96.38
2040.00,96.34
2039.00,96.29
2038.00,96.22
2037.00,96.18
2036.00,96.17
2035.00,96.17
2034.00,96.17
2033.00,96.14
2032.00,96.12
2031.00,96.12
2030.00,96.15
2029.00,96.21
2028.00,96.29
2027.00,96.36
2026.00,96.38
2025.00,96.35
2024.00,96.28
2023.00,96.21
2022.00,96.18
2021.00,96.20
2020.00,96.23
2019.00,96.24
2018.00,96.23
2017.00,96.20
2016.00,96.21
2015.00,96.28
2014.00,96.38
2013.00,96.49
2012.00,96.56
2011.00,96.57
2010.00,96.53
2009.00,96.48
2008.00,96.45
2007.00,96.45
2006.00,96.47
2005.00,96.49
2004.00,96.51
2003.00,96.53
2002.00,96.57
2001.00,96.62
2000.00,96.68
1999.00,96.70
1998.00,96.68
1997.00,96.65
1996.00,96.62
1995.00,96.60
1994.00,96.60
1993.00,96.61
1992.00,96.63
1991.00,96.64
1990.00,96.61
1989.00,96.55
1988.00,96.50
1987.00,96.45
1986.00,96.42
1985.00,96.39
1984.00,96.37
1983.00,96.34
1982.00,96.28
1981.00,96.19
1980.00,96.14
1979.00,96.16
1978.00,96.24
1977.00,96.35
1976.00,96.43
1975.00,96.47
1974.00,96.47
1973.00,96.44
1972.00,96.41
1971.00,96.38
1970.00,96.37
1969.00,96.39
1968.00,96.41
1967.00,96.44
1966.00,96.47
1965.00,96.52
1964.00,96.58
1963.00,96.65
1962.00,96.72
1961.00,96.80
1960.00,96.85
1959.00,96.87
1958.00,96.89
1957.00,96.91
1956.00,96.94
1955.00,96.98
1954.00,97.03
1953.00,97.08
1952.00,97.11
1951.00,97.10
1950.00,97.07
1949.00,97.04
1948.00,97.05
1947.00,97.10
1946.00,97.17
1945.00,97.23
1944.00,97.24
1943.00,97.22
1942.00,97.18
1941.00,97.15
1940.00,97.15
1939.00,97.18
1938.00,97.22
1937.00,97.27
1936.00,97.32
1935.00,97.34
1934.00,97.34
1933.00,97.32
1932.00,97.30
1931.00,97.31
1930.00,97.33
1929.00,97.36
1928.00,97.38
1927.00,97.38
1926.00,97.35
1925.00,97.32
1924.00,97.31
1923.00,97.32
1922.00,97.33
1921.00,97.33
1920.00,97.33
1919.00,97.35
1918.00,97.38
1917.00,97.41
1916.00,97.43
1915.00,97.43
1914.00,97.44
1913.00,97.45
1912.00,97.48
1911.00,97.51
1910.00,97.53
1909.00,97.53
1908.00,97.52
1907.00,97.53
1906.00,97.55
1905.00,97.56
1904.00,97.55
1903.00,97.53
1902.00,97.52
1901.00,97.52
1900.00,97.52
1899.00,97.52
1898.00,97.52
1897.00,97.51
1896.00,97.50
1895.00,97.52
1894.00,97.56
1893.00,97.60
1892.00,97.64
1891.00,97.65
1890.00,97.64
1889.00,97.64
1888.00,97.65
1887.00,97.66
1886.00,97.65
1885.00,97.64
1884.00,97.63
1883.00,97.63
1882.00,97.64
1881.00,97.65
1880.00,97.65
1879.00,97.65
1878.00,97.64
1877.00,97.65
1876.00,97.66
1875.00,97.68
1874.00,97.69
1873.00,97.70
1872.00,97.69
1871.00,97.67
1870.00,97.66
1869.00,97.64
1868.00,97.63
1867.00,97.63
1866.00,97.63
1865.00,97.64
1864.00,97.65
1863.00,97.67
1862.00,97.68
1861.00,97.69
1860.00,97.71
1859.00,97.72
1858.00,97.73
1857.00,97.72
1856.00,97.72
1855.00,97.72
1854.00,97.74
1853.00,97.76
1852.00,97.77
1851.00,97.79
1850.00,97.80
1849.00,97.81
1848.00,97.82
1847.00,97.82
1846.00,97.82
1845.00,97.81
1844.00,97.80
1843.00,97.80
1842.00,97.79
1841.00,97.79
1840.00,97.81
1839.00,97.82
1838.00,97.83
1837.00,97.82
1836.00,97.81
1835.00,97.81
1834.00,97.82
1833.00,97.83
1832.00,97.84
1831.00,97.83
1830.00,97.82
1829.00,97.82
1828.00,97.82
1827.00,97.84
1826.00,97.85
1825.00,97.86
1824.00,97.86
1823.00,97.86
1822.00,97.86
1821.00,97.86
1820.00,97.88
1819.00,97.90
1818.00,97.93
1817.00,97.94
1816.00,97.94
1815.00,97.93
1814.00,97.92
1813.00,97.91
1812.00,97.91
1811.00,97.91
1810.00,97.92
1809.00,97.94
1808.00,97.95
1807.00,97.95
1806.00,97.95
1805.00,97.94
1804.00,97.93
1803.00,97.93
1802.00,97.93
1801.00,97.94
1800.00,97.94
1799.00,97.94
1798.00,97.94
1797.00,97.95
1796.00,97.96
1795.00,97.97
1794.00,97.97
1793.00,97.96
1792.00,97.95
1791.00,97.94
1790.00,97.95
1789.00,97.96
1788.00,97.97
1787.00,97.98
1786.00,97.99
1785.00,97.99
1784.00,97.98
1783.00,97.97
1782.00,97.95
1781.00,97.95
1780.00,97.96
1779.00,97.97
1778.00,97.98
1777.00,97.99
1776.00,97.99
1775.00,97.98
1774.00,97.98
1773.00,97.99
1772.00,98.00
1771.00,98.00
1770.00,97.98
1769.00,97.94
1768.00,97.91
1767.00,97.90
1766.00,97.90
1765.00,97.91
1764.00,97.91
1763.00,97.90
1762.00,97.90
1761.00,97.90
1760.00,97.91
1759.00,97.90
1758.00,97.88
1757.00,97.86
1756.00,97.84
1755.00,97.83
1754.00,97.81
1753.00,97.78
1752.00,97.73
1751.00,97.69
1750.00,97.66
1749.00,97.64
1748.00,97.63
1747.00,97.60
1746.00,97.55
1745.00,97.50
1744.00,97.44
1743.00,97.39
1742.00,97.33
1741.00,97.27
1740.00,97.21
1739.00,97.17
1738.00,97.15
1737.00,97.12
1736.00,97.08
1735.00,97.04
1734.00,97.02
1733.00,97.00
1732.00,96.98
1731.00,96.97
1730.00,96.97
1729.00,96.98
1728.00,96.99
1727.00,97.00
1726.00,97.02
1725.00,97.04
1724.00,97.08
1723.00,97.12
1722.00,97.15
1721.00,97.15
1720.00,97.16
1719.00,97.17
1718.00,97.20
1717.00,97.25
1716.00,97.31
1715.00,97.36
1714.00,97.41
1713.00,97.46
1712.00,97.50
1711.00,97.51
1710.00,97.52
1709.00,97.52
1708.00,97.53
1707.00,97.54
1706.00,97.56
1705.00,97.59
1704.00,97.61
1703.00,97.61
1702.00,97.62
1701.00,97.62
1700.00,97.63
1699.00,97.65
1698.00,97.66
1697.00,97.66
1696.00,97.67
1695.00,97.69
1694.00,97.72
1693.00,97.73
1692.00,97.74
1691.00,97.74
1690.00,97.73
1689.00,97.73
1688.00,97.73
1687.00,97.72
1686.00,97.72
1685.00,97.72
1684.00,97.74
1683.00,97.76
1682.00,97.76
1681.00,97.75
1680.00,97.74
1679.00,97.74
1678.00,97.73
1677.00,97.72
1676.00,97.71
1675.00,97.70
1674.00,97.70
1673.00,97.70
1672.00,97.71
1671.00,97.72
1670.00,97.73
1669.00,97.73
1668.00,97.72
1667.00,97.70
1666.00,97.69
1665.00,97.68
1664.00,97.67
1663.00,97.66
1662.00,97.66
1661.00,97.67
1660.00,97.68
1659.00,97.69
1658.00,97.69
1657.00,97.67
1656.00,97.64
1655.00,97.60
1654.00,97.56
1653.00,97.55
1652.00,97.58
1651.00,97.59
1650.00,97.59
1649.00,97.59
1648.00,97.58
1647.00,97.58
1646.00,97.58
1645.00,97.57
1644.00,97.57
1643.00,97.57
1642.00,97.57
1641.00,97.57
1640.00,97.57
1639.00,97.57
1638.00,97.55
1637.00,97.52
1636.00,97.50
1635.00,97.50
1634.00,97.50
1633.00,97.50
1632.00,97.50
1631.00,97.50
1630.00,97.49
1629.00,97.48
1628.00,97.46
1627.00,97.45
1626.00,97.44
1625.00,97.43
1624.00,97.43
1623.00,97.45
1622.00,97.47
1621.00,97.48
1620.00,97.48
1619.00,97.47
1618.00,97.48
1617.00,97.49
1616.00,97.49
1615.00,97.49
1614.00,97.49
1613.00,97.50
1612.00,97.51
1611.00,97.53
1610.00,97.54
1609.00,97.55
1608.00,97.56
1607.00,97.58
1606.00,97.59
1605.00,97.60
1604.00,97.61
1603.00,97.62
1602.00,97.62
1601.00,97.63
1600.00,97.63
1599.00,97.65
1598.00,97.66
1597.00,97.67
1596.00,97.67
1595.00,97.67
1594.00,97.67
1593.00,97.69
1592.00,97.70
1591.00,97.72
1590.00,97.73
1589.00,97.74
1588.00,97.74
1587.00,97.75
1586.00,97.76
1585.00,97.77
1584.00,97.77
1583.00,97.78
1582.00,97.79
1581.00,97.79
1580.00,97.79
1579.00,97.79
1578.00,97.78
1577.00,97.77
1576.00,97.76
1575.00,97.76
1574.00,97.76
1573.00,97.76
1572.00,97.75
1571.00,97.76
1570.00,97.78
1569.00,97.81
1568.00,97.82
1567.00,97.82
1566.00,97.82
1565.00,97.81
1564.00,97.80
1563.00,97.80
1562.00,97.79
1561.00,97.79
1560.00,97.79
1559.00,97.79
1558.00,97.79
1557.00,97.78
1556.00,97.77
1555.00,97.77
1554.00,97.79
1553.00,97.79
1552.00,97.80
1551.00,97.80
1550.00,97.80
1549.00,97.80
1548.00,97.79
1547.00,97.77
1546.00,97.77
1545.00,97.79
1544.00,97.82
1543.00,97.86
1542.00,97.88
1541.00,97.88
1540.00,97.85
1539.00,97.81
1538.00,97.78
1537.00,97.77
1536.00,97.76
1535.00,97.76
1534.00,97.77
1533.00,97.79
1532.00,97.79
1531.00,97.78
1530.00,97.77
1529.00,97.76
1528.00,97.76
1527.00,97.78
1526.00,97.79
1525.00,97.81
1524.00,97.82
1523.00,97.82
1522.00,97.82
1521.00,97.82
1520.00,97.81
1519.00,97.81
1518.00,97.80
1517.00,97.81
1516.00,97.83
1515.00,97.83
1514.00,97.81
1513.00,97.80
1512.00,97.79
1511.00,97.80
1510.00,97.80
1509.00,97.81
1508.00,97.80
1507.00,97.78
1506.00,97.79
1505.00,97.79
1504.00,97.79
1503.00,97.79
1502.00,97.78
1501.00,97.77
1500.00,97.75
1499.00,97.73
1498.00,97.73
1497.00,97.72
1496.00,97.72
1495.00,97.71
1494.00,97.70
1493.00,97.69
1492.00,97.68
1491.00,97.68
1490.00,97.69
1489.00,97.68
1488.00,97.66
1487.00,97.64
1486.00,97.62
1485.00,97.61
1484.00,97.60
1483.00,97.60
1482.00,97.60
1481.00,97.60
1480.00,97.60
1479.00,97.60
1478.00,97.60
1477.00,97.60
1476.00,97.58
1475.00,97.57
1474.00,97.55
1473.00,97.54
1472.00,97.54
1471.00,97.54
1470.00,97.52
1469.00,97.50
1468.00,97.49
1467.00,97.49
1466.00,97.47
1465.00,97.42
1464.00,97.34
1463.00,97.26
1462.00,97.18
1461.00,97.09
1460.00,96.98
1459.00,96.83
1458.00,96.62
1457.00,96.35
1456.00,96.07
1455.00,95.84
1454.00,95.63
1453.00,95.41
1452.00,95.18
1451.00,94.97
1450.00,94.78
1449.00,94.58
1448.00,94.40
1447.00,94.24
1446.00,94.10
1445.00,93.94
1444.00,93.77
1443.00,93.61
1442.00,93.45
1441.00,93.32
1440.00,93.22
1439.00,93.15
1438.00,93.13
1437.00,93.14
1436.00,93.21
1435.00,93.32
1434.00,93.43
1433.00,93.56
1432.00,93.71
1431.00,93.89
1430.00,94.08
1429.00,94.26
1428.00,94.44
1427.00,94.61
1426.00,94.77
1425.00,94.94
1424.00,95.12
1423.00,95.29
1422.00,95.44
1421.00,95.57
1420.00,95.71
1419.00,95.86
1418.00,96.00
1417.00,96.12
1416.00,96.21
1415.00,96.29
1414.00,96.37
1413.00,96.45
1412.00,96.53
1411.00,96.61
1410.00,96.68
1409.00,96.75
1408.00,96.80
1407.00,96.85
1406.00,96.90
1405.00,96.93
1404.00,96.97
1403.00,96.99
1402.00,97.02
1401.00,97.03
1400.00,97.04
1399.00,97.05
1398.00,97.05
1397.00,97.06
1396.00,97.06
1395.00,97.04
1394.00,97.01
1393.00,96.98
1392.00,96.95
1391.00,96.93
1390.00,96.90
1389.00,96.87
1388.00,96.83
1387.00,96.79
1386.00,96.76
1385.00,96.74
1384.00,96.72
1383.00,96.69
1382.00,96.66
1381.00,96.62
1380.00,96.59
1379.00,96.55
1378.00,96.52
1377.00,96.50
1376.00,96.48
1375.00,96.45
1374.00,96.41
1373.00,96.35
1372.00,96.30
1371.00,96.24
1370.00,96.19
1369.00,96.13
1368.00,96.07
1367.00,96.00
1366.00,95.95
1365.00,95.90
1364.00,95.85
1363.00,95.79
1362.00,95.74
1361.00,95.69
1360.00,95.65
1359.00,95.62
1358.00,95.60
1357.00,95.59
1356.00,95.59
1355.00,95.59
1354.00,95.60
1353.00,95.60
1352.00,95.61
1351.00,95.63
1350.00,95.66
1349.00,95.70
1348.00,95.73
1347.00,95.75
1346.00,95.78
1345.00,95.80
1344.00,95.84
1343.00,95.87
1342.00,95.91
1341.00,95.95
1340.00,95.98
1339.00,96.00
1338.00,96.01
1337.00,96.02
1336.00,96.02
1335.00,96.03
1334.00,96.03
1333.00,96.03
1332.00,96.01
1331.00,96.00
1330.00,96.00
1329.00,95.99
1328.00,95.99
1327.00,95.99
1326.00,96.00
1325.00,96.01
1324.00,96.01
1323.00,96.00
1322.00,96.00
1321.00,95.99
1320.00,95.99
1319.00,95.98
1318.00,95.97
1317.00,95.96
1316.00,95.95
1315.00,95.94
1314.00,95.93
1313.00,95.91
1312.00,95.89
1311.00,95.87
1310.00,95.86
1309.00,95.86
1308.00,95.85
1307.00,95.85
1306.00,95.84
1305.00,95.82
1304.00,95.81
1303.00,95.79
1302.00,95.78
1301.00,95.77
1300.00,95.75
1299.00,95.72
1298.00,95.68
1297.00,95.66
1296.00,95.64
1295.00,95.63
1294.00,95.60
1293.00,95.57
1292.00,95.55
1291.00,95.54
1290.00,95.54
1289.00,95.53
1288.00,95.51
1287.00,95.50
1286.00,95.50
1285.00,95.50
1284.00,95.50
1283.00,95.50
1282.00,95.50
1281.00,95.49
1280.00,95.47
1279.00,95.46
1278.00,95.44
1277.00,95.42
1276.00,95.39
1275.00,95.37
1274.00,95.34
1273.00,95.30
1272.00,95.26
1271.00,95.20
1270.00,95.14
1269.00,95.08
1268.00,95.02
1267.00,94.96
1266.00,94.92
1265.00,94.87
1264.00,94.81
1263.00,94.75
1262.00,94.69
1261.00,94.63
1260.00,94.58
1259.00,94.53
1258.00,94.50
1257.00,94.48
1256.00,94.47
1255.00,94.46
1254.00,94.44
1253.00,94.42
1252.00,94.39
1251.00,94.37
1250.00,94.35
1249.00,94.34
1248.00,94.33
1247.00,94.32
1246.00,94.32
1245.00,94.31
1244.00,94.29
1243.00,94.27
1242.00,94.24
1241.00,94.24
1240.00,94.24
1239.00,94.26
1238.00,94.28
1237.00,94.30
1236.00,94.31
1235.00,94.32
1234.00,94.32
1233.00,94.32
1232.00,94.33
1231.00,94.36
1230.00,94.39
1229.00,94.42
1228.00,94.44
1227.00,94.45
1226.00,94.46
1225.00,94.45
1224.00,94.45
1223.00,94.44
1222.00,94.44
1221.00,94.44
1220.00,94.46
1219.00,94.47
1218.00,94.49
1217.00,94.48
1216.00,94.47
1215.00,94.45
1214.00,94.45
1213.00,94.45
1212.00,94.46
1211.00,94.46
1210.00,94.48
1209.00,94.50
1208.00,94.51
1207.00,94.52
1206.00,94.53
1205.00,94.55
1204.00,94.58
1203.00,94.62
1202.00,94.65
1201.00,94.66
1200.00,94.67
1199.00,94.67
1198.00,94.68
1197.00,94.69
1196.00,94.71
1195.00,94.72
1194.00,94.74
1193.00,94.75
1192.00,94.77
1191.00,94.78
1190.00,94.79
1189.00,94.80
1188.00,94.80
1187.00,94.81
1186.00,94.80
1185.00,94.79
1184.00,94.77
1183.00,94.77
1182.00,94.77
1181.00,94.76
1180.00,94.76
1179.00,94.76
1178.00,94.78
1177.00,94.84
1176.00,94.90
1175.00,94.96
1174.00,95.01
1173.00,95.05
1172.00,95.09
1171.00,95.13
1170.00,95.19
1169.00,95.25
1168.00,95.31
1167.00,95.35
1166.00,95.40
1165.00,95.45
1164.00,95.52
1163.00,95.58
1162.00,95.63
1161.00,95.67
1160.00,95.70
1159.00,95.74
1158.00,95.77
1157.00,95.78
1156.00,95.79
1155.00,95.78
1154.00,95.75
1153.00,95.72
1152.00,95.69
1151.00,95.68
1150.00,95.69
1149.00,95.72
1148.00,95.75
1147.00,95.76
1146.00,95.76
1145.00,95.76
1144.00,95.78
1143.00,95.81
1142.00,95.84
1141.00,95.87
1140.00,95.89
1139.00,95.90
1138.00,95.90
1137.00,95.87
1136.00,95.83
1135.00,95.79
1134.00,95.74
1133.00,95.69
1132.00,95.64
1131.00,95.61
1130.00,95.59
1129.00,95.57
1128.00,95.55
1127.00,95.53
1126.00,95.51
1125.00,95.47
1124.00,95.43
1123.00,95.37
1122.00,95.32
1121.00,95.28
1120.00,95.24
1119.00,95.19
1118.00,95.14
1117.00,95.08
1116.00,95.04
1115.00,95.01
1114.00,94.98
1113.00,94.93
1112.00,94.86
1111.00,94.79
1110.00,94.73
1109.00,94.68
1108.00,94.63
1107.00,94.57
1106.00,94.52
1105.00,94.48
1104.00,94.45
1103.00,94.42
1102.00,94.39
1101.00,94.37
1100.00,94.35
1099.00,94.31
1098.00,94.27
1097.00,94.23
1096.00,94.19
1095.00,94.16
1094.00,94.14
1093.00,94.12
1092.00,94.10
1091.00,94.08
1090.00,94.05
1089.00,94.02
1088.00,94.00
1087.00,94.00
1086.00,94.01
1085.00,94.01
1084.00,93.98
1083.00,93.94
1082.00,93.89
1081.00,93.84
1080.00,93.81
1079.00,93.79
1078.00,93.77
1077.00,93.75
1076.00,93.71
1075.00,93.66
1074.00,93.62
1073.00,93.58
1072.00,93.55
1071.00,93.53
1070.00,93.52
1069.00,93.50
1068.00,93.49
1067.00,93.48
1066.00,93.48
1065.00,93.47
1064.00,93.44
1063.00,93.40
1062.00,93.36
1061.00,93.33
1060.00,93.32
1059.00,93.30
1058.00,93.28
1057.00,93.24
1056.00,93.22
1055.00,93.20
1054.00,93.20
1053.00,93.19
1052.00,93.19
1051.00,93.18
1050.00,93.18
1049.00,93.18
1048.00,93.17
1047.00,93.15
1046.00,93.12
1045.00,93.08
1044.00,93.05
1043.00,93.04
1042.00,93.04
1041.00,93.06
1040.00,93.07
1039.00,93.08
1038.00,93.09
1037.00,93.10
1036.00,93.14
1035.00,93.19
1034.00,93.25
1033.00,93.31
1032.00,93.35
1031.00,93.39
1030.00,93.44
1029.00,93.49
1028.00,93.56
1027.00,93.64
1026.00,93.74
1025.00,93.82
1024.00,93.87
1023.00,93.88
1022.00,93.87
1021.00,93.87
1020.00,93.88
1019.00,93.91
1018.00,93.94
1017.00,93.96
1016.00,93.95
1015.00,93.92
1014.00,93.88
1013.00,93.83
1012.00,93.78
1011.00,93.74
1010.00,93.73
1009.00,93.75
1008.00,93.78
1007.00,93.81
1006.00,93.85
1005.00,93.89
1004.00,93.91
1003.00,93.92
1002.00,93.92
1001.00,93.92
1000.00,93.90
999.00,93.90
998.00,93.90
997.00,93.93
996.00,93.96
995.00,93.98
994.00,93.98
993.00,93.97
992.00,93.98
991.00,94.00
990.00,94.02
989.00,94.04
988.00,94.06
987.00,94.07
986.00,94.09
985.00,94.10
984.00,94.12
983.00,94.14
982.00,94.15
981.00,94.16
980.00,94.18
979.00,94.20
978.00,94.22
977.00,94.25
976.00,94.28
975.00,94.31
974.00,94.32
973.00,94.33
972.00,94.33
971.00,94.34
970.00,94.35
969.00,94.35
968.00,94.35
967.00,94.36
966.00,94.37
965.00,94.39
964.00,94.39
963.00,94.40
962.00,94.41
961.00,94.41
960.00,94.42
959.00,94.43
958.00,94.43
957.00,94.43
956.00,94.43
955.00,94.43
954.00,94.45
953.00,94.47
952.00,94.51
951.00,94.55
950.00,94.57
949.00,94.56
948.00,94.55
947.00,94.56
946.00,94.59
945.00,94.62
944.00,94.64
943.00,94.64
942.00,94.63
941.00,94.62
940.00,94.62
939.00,94.63
938.00,94.65
937.00,94.66
936.00,94.68
935.00,94.69
934.00,94.70
933.00,94.72
932.00,94.74
931.00,94.77
930.00,94.79
929.00,94.79
928.00,94.78
927.00,94.79
926.00,94.82
925.00,94.84
924.00,94.85
923.00,94.85
922.00,94.84
921.00,94.82
920.00,94.81
919.00,94.82
918.00,94.84
917.00,94.86
916.00,94.85
915.00,94.85
914.00,94.85
913.00,94.85
912.00,94.86
911.00,94.85
910.00,94.84
909.00,94.83
908.00,94.82
907.00,94.82
906.00,94.84
905.00,94.86
904.00,94.88
903.00,94.89
902.00,94.92
901.00,94.95
900.00,94.98
899.00,95.00
898.00,95.03
897.00,95.05
896.00,95.06
895.00,95.05
894.00,95.05
893.00,95.06
892.00,95.07
891.00,95.09
890.00,95.10
889.00,95.11
888.00,95.12
887.00,95.13
886.00,95.15
885.00,95.18
884.00,95.21
883.00,95.24
882.00,95.26
881.00,95.26
880.00,95.26
879.00,95.25
878.00,95.26
877.00,95.27
876.00,95.28
875.00,95.30
874.00,95.33
873.00,95.36
872.00,95.37
871.00,95.37
870.00,95.37
869.00,95.38
868.00,95.40
867.00,95.41
866.00,95.42
865.00,95.43
864.00,95.45
863.00,95.46
862.00,95.47
861.00,95.47
860.00,95.45
859.00,95.42
858.00,95.40
857.00,95.41
856.00,95.44
855.00,95.48
854.00,95.51
853.00,95.52
852.00,95.49
851.00,95.46
850.00,95.44
849.00,95.46
848.00,95.49
847.00,95.52
846.00,95.55
845.00,95.59
844.00,95.63
843.00,95.65
842.00,95.64
841.00,95.61
840.00,95.60
839.00,95.61
838.00,95.63
837.00,95.66
836.00,95.70
835.00,95.75
834.00,95.79
833.00,95.81
832.00,95.81
831.00,95.79
830.00,95.79
829.00,95.81
828.00,95.85
827.00,95.89
826.00,95.92
825.00,95.93
824.00,95.92
823.00,95.89
822.00,95.86
821.00,95.84
820.00,95.86
819.00,95.89
818.00,95.89
817.00,95.87
816.00,95.85
815.00,95.85
814.00,95.85
813.00,95.83
812.00,95.80
811.00,95.78
810.00,95.79
809.00,95.82
808.00,95.85
807.00,95.86
806.00,95.87
805.00,95.88
804.00,95.89
803.00,95.90
802.00,95.90
801.00,95.89
800.00,95.88
799.00,95.87
798.00,95.87
797.00,95.88
796.00,95.88
795.00,95.86
794.00,95.82
793.00,95.79
792.00,95.78
791.00,95.79
790.00,95.78
789.00,95.76
788.00,95.72
787.00,95.67
786.00,95.60
785.00,95.51
784.00,95.42
783.00,95.32
782.00,95.24
781.00,95.18
780.00,95.16
779.00,95.16
778.00,95.16
777.00,95.15
776.00,95.12
775.00,95.10
774.00,95.07
773.00,95.02
772.00,94.93
771.00,94.80
770.00,94.66
769.00,94.51
768.00,94.39
767.00,94.29
766.00,94.20
765.00,94.12
764.00,94.04
763.00,93.96
762.00,93.87
761.00,93.79
760.00,93.69
759.00,93.57
758.00,93.41
757.00,93.23
756.00,93.03
755.00,92.82
754.00,92.62
753.00,92.43
752.00,92.28
751.00,92.15
750.00,92.01
749.00,91.86
748.00,91.72
747.00,91.58
746.00,91.45
745.00,91.32
744.00,91.23
743.00,91.18
742.00,91.18
741.00,91.22
740.00,91.28
739.00,91.34
738.00,91.41
737.00,91.51
736.00,91.62
735.00,91.73
734.00,91.81
733.00,91.90
732.00,92.01
731.00,92.12
730.00,92.23
729.00,92.33
728.00,92.43
727.00,92.53
726.00,92.63
725.00,92.73
724.00,92.82
723.00,92.88
722.00,92.93
721.00,92.98
720.00,93.04
719.00,93.12
718.00,93.19
717.00,93.23
716.00,93.26
715.00,93.26
714.00,93.26
713.00,93.26
712.00,93.27
711.00,93.29
710.00,93.29
709.00,93.28
708.00,93.26
707.00,93.24
706.00,93.22
705.00,93.18
704.00,93.14
703.00,93.08
702.00,93.03
701.00,93.00
700.00,92.99
699.00,93.01
698.00,93.02
697.00,93.02
696.00,92.99
695.00,92.98
694.00,92.97
693.00,92.95
692.00,92.93
691.00,92.94
690.00,93.01
689.00,93.11
688.00,93.22
687.00,93.30
686.00,93.31
685.00,93.25
684.00,93.15
683.00,93.06
682.00,93.02
681.00,93.01
680.00,93.02
679.00,93.02
678.00,93.00
677.00,92.95
676.00,92.88
675.00,92.83
674.00,92.80
673.00,92.75
672.00,92.67
671.00,92.59
670.00,92.51
669.00,92.42
668.00,92.30
667.00,92.14
666.00,92.05
665.00,92.06
664.00,92.07
663.00,92.02
662.00,91.95
661.00,91.85
660.00,91.71
659.00,91.54
658.00,91.38
657.00,91.22
656.00,91.08
655.00,90.96
654.00,90.85
653.00,90.74
652.00,90.63
651.00,90.55
650.00,90.50
649.00,90.40
648.00,90.21
647.00,89.93
646.00,89.66
645.00,89.47
644.00,89.36
643.00,89.33
642.00,89.35
641.00,89.34
640.00,89.24
639.00,89.05
638.00,88.82
637.00,88.57
636.00,88.35
635.00,88.19
634.00,88.13
633.00,88.12
632.00,88.16
631.00,88.23
630.00,88.29
629.00,88.30
628.00,88.22
627.00,88.09
626.00,87.95
625.00,87.84
624.00,87.82
623.00,87.93
622.00,88.08
621.00,88.11
620.00,87.97
619.00,87.84
618.00,87.90
617.00,88.09
616.00,88.25
615.00,88.30
614.00,88.27
613.00,88.21
612.00,88.14
611.00,88.08
610.00,88.03
609.00,87.92
608.00,87.76
607.00,87.62
606.00,87.54
605.00,87.56
604.00,87.80
603.00,88.34
602.00,89.10
601.00,89.77
600.00,90.09
599.00,89.97
598.00,89.56
597.00,89.12
596.00,88.89
595.00,89.04
594.00,89.48
593.00,89.88
592.00,89.98
591.00,89.78
590.00,89.49
589.00,89.29
588.00,89.20
587.00,89.26
586.00,89.53
585.00,89.95
584.00,90.41
583.00,90.82
582.00,91.09
581.00,91.16
580.00,91.05
579.00,90.98
578.00,91.20
577.00,91.67
576.00,92.11
575.00,92.29
574.00,92.34
573.00,92.50
572.00,92.84
571.00,93.20
570.00,93.39
569.00,93.26
568.00,92.73
567.00,91.88
566.00,91.11
565.00,90.79
564.00,90.89
563.00,91.13
562.00,91.31
561.00,91.64
560.00,92.28
559.00,92.99
558.00,93.26
557.00,93.00
556.00,92.60
555.00,92.44
554.00,92.52
553.00,92.58
552.00,92.48
551.00,92.18
550.00,91.71
