Created as New Dataset,57 Bayer
cm-1,%T
4000.00,99.88
3999.00,99.89
3998.00,99.90
3997.00,99.90
3996.00,99.91
3995.00,99.91
3994.00,99.90
3993.00,99.88
3992.00,99.86
3991.00,99.85
3990.00,99.83
3989.00,99.83
3988.00,99.84
3987.00,99.85
3986.00,99.85
3985.00,99.85
3984.00,99.85
3983.00,99.84
3982.00,99.83
3981.00,99.82
3980.00,99.80
3979.00,99.80
3978.00,99.80
3977.00,99.82
3976.00,99.84
3975.00,99.85
3974.00,99.85
3973.00,99.85
3972.00,99.85
3971.00,99.86
3970.00,99.88
3969.00,99.90
3968.00,99.91
3967.00,99.92
3966.00,99.92
3965.00,99.91
3964.00,99.90
3963.00,99.89
3962.00,99.90
3961.00,99.91
3960.00,99.92
3959.00,99.92
3958.00,99.90
3957.00,99.88
3956.00,99.87
3955.00,99.87
3954.00,99.86
3953.00,99.86
3952.00,99.86
3951.00,99.86
3950.00,99.88
3949.00,99.90
3948.00,99.91
3947.00,99.92
3946.00,99.91
3945.00,99.90
3944.00,99.88
3943.00,99.86
3942.00,99.86
3941.00,99.86
3940.00,99.87
3939.00,99.87
3938.00,99.87
3937.00,99.87
3936.00,99.88
3935.00,99.88
3934.00,99.88
3933.00,99.88
3932.00,99.87
3931.00,99.86
3930.00,99.85
3929.00,99.83
3928.00,99.81
3927.00,99.81
3926.00,99.82
3925.00,99.84
3924.00,99.85
3923.00,99.84
3922.00,99.83
3921.00,99.82
3920.00,99.82
3919.00,99.83
3918.00,99.84
3917.00,99.85
3916.00,99.85
3915.00,99.84
3914.00,99.83
3913.00,99.82
3912.00,99.82
3911.00,99.82
3910.00,99.84
3909.00,99.86
3908.00,99.86
3907.00,99.86
3906.00,99.84
3905.00,99.84
3904.00,99.86
3903.00,99.90
3902.00,99.94
3901.00,99.95
3900.00,99.93
3899.00,99.90
3898.00,99.87
3897.00,99.85
3896.00,99.84
3895.00,99.83
3894.00,99.83
3893.00,99.83
3892.00,99.84
3891.00,99.85
3890.00,99.85
3889.00,99.86
3888.00,99.85
3887.00,99.84
3886.00,99.82
3885.00,99.82
3884.00,99.84
3883.00,99.87
3882.00,99.88
3881.00,99.88
3880.00,99.86
3879.00,99.85
3878.00,99.85
3877.00,99.86
3876.00,99.87
3875.00,99.87
3874.00,99.85
3873.00,99.84
3872.00,99.83
3871.00,99.83
3870.00,99.83
3869.00,99.82
3868.00,99.82
3867.00,99.83
3866.00,99.83
3865.00,99.83
3864.00,99.83
3863.00,99.84
3862.00,99.85
3861.00,99.85
3860.00,99.85
3859.00,99.85
3858.00,99.85
3857.00,99.86
3856.00,99.86
3855.00,99.85
3854.00,99.84
3853.00,99.83
3852.00,99.83
3851.00,99.84
3850.00,99.84
3849.00,99.83
3848.00,99.83
3847.00,99.84
3846.00,99.85
3845.00,99.87
3844.00,99.87
3843.00,99.85
3842.00,99.83
3841.00,99.80
3840.00,99.79
3839.00,99.78
3838.00,99.78
3837.00,99.78
3836.00,99.78
3835.00,99.79
3834.00,99.80
3833.00,99.82
3832.00,99.84
3831.00,99.84
3830.00,99.84
3829.00,99.82
3828.00,99.80
3827.00,99.77
3826.00,99.74
3825.00,99.73
3824.00,99.73
3823.00,99.73
3822.00,99.73
3821.00,99.72
3820.00,99.71
3819.00,99.72
3818.00,99.73
3817.00,99.74
3816.00,99.73
3815.00,99.71
3814.00,99.70
3813.00,99.71
3812.00,99.72
3811.00,99.72
3810.00,99.73
3809.00,99.74
3808.00,99.74
3807.00,99.73
3806.00,99.72
3805.00,99.72
3804.00,99.72
3803.00,99.72
3802.00,99.71
3801.00,99.72
3800.00,99.74
3799.00,99.77
3798.00,99.77
3797.00,99.76
3796.00,99.73
3795.00,99.73
3794.00,99.73
3793.00,99.74
3792.00,99.74
3791.00,99.74
3790.00,99.74
3789.00,99.75
3788.00,99.77
3787.00,99.77
3786.00,99.76
3785.00,99.75
3784.00,99.74
3783.00,99.74
3782.00,99.75
3781.00,99.75
3780.00,99.75
3779.00,99.73
3778.00,99.72
3777.00,99.71
3776.00,99.70
3775.00,99.68
3774.00,99.67
3773.00,99.67
3772.00,99.69
3771.00,99.71
3770.00,99.71
3769.00,99.70
3768.00,99.69
3767.00,99.68
3766.00,99.67
3765.00,99.66
3764.00,99.66
3763.00,99.67
3762.00,99.69
3761.00,99.70
3760.00,99.70
3759.00,99.68
3758.00,99.66
3757.00,99.67
3756.00,99.68
3755.00,99.70
3754.00,99.70
3753.00,99.68
3752.00,99.67
3751.00,99.66
3750.00,99.67
3749.00,99.68
3748.00,99.70
3747.00,99.72
3746.00,99.75
3745.00,99.76
3744.00,99.73
3743.00,99.69
3742.00,99.66
3741.00,99.64
3740.00,99.65
3739.00,99.67
3738.00,99.69
3737.00,99.70
3736.00,99.68
3735.00,99.65
3734.00,99.62
3733.00,99.59
3732.00,99.58
3731.00,99.58
3730.00,99.61
3729.00,99.64
3728.00,99.68
3727.00,99.69
3726.00,99.69
3725.00,99.67
3724.00,99.66
3723.00,99.66
3722.00,99.65
3721.00,99.65
3720.00,99.64
3719.00,99.61
3718.00,99.58
3717.00,99.55
3716.00,99.53
3715.00,99.52
3714.00,99.51
3713.00,99.50
3712.00,99.50
3711.00,99.51
3710.00,99.53
3709.00,99.54
3708.00,99.55
3707.00,99.55
3706.00,99.55
3705.00,99.56
3704.00,99.57
3703.00,99.58
3702.00,99.58
3701.00,99.58
3700.00,99.59
3699.00,99.59
3698.00,99.60
3697.00,99.60
3696.00,99.59
3695.00,99.59
3694.00,99.59
3693.00,99.59
3692.00,99.60
3691.00,99.59
3690.00,99.58
3689.00,99.58
3688.00,99.58
3687.00,99.58
3686.00,99.57
3685.00,99.56
3684.00,99.54
3683.00,99.52
3682.00,99.51
3681.00,99.51
3680.00,99.52
3679.00,99.54
3678.00,99.55
3677.00,99.54
3676.00,99.51
3675.00,99.47
3674.00,99.45
3673.00,99.46
3672.00,99.48
3671.00,99.48
3670.00,99.47
3669.00,99.45
3668.00,99.45
3667.00,99.45
3666.00,99.44
3665.00,99.42
3664.00,99.39
3663.00,99.38
3662.00,99.38
3661.00,99.39
3660.00,99.40
3659.00,99.40
3658.00,99.38
3657.00,99.36
3656.00,99.36
3655.00,99.37
3654.00,99.38
3653.00,99.38
3652.00,99.35
3651.00,99.32
3650.00,99.29
3649.00,99.29
3648.00,99.30
3647.00,99.29
3646.00,99.28
3645.00,99.27
3644.00,99.27
3643.00,99.27
3642.00,99.28
3641.00,99.29
3640.00,99.27
3639.00,99.25
3638.00,99.24
3637.00,99.24
3636.00,99.25
3635.00,99.26
3634.00,99.26
3633.00,99.25
3632.00,99.25
3631.00,99.25
3630.00,99.25
3629.00,99.26
3628.00,99.27
3627.00,99.29
3626.00,99.31
3625.00,99.32
3624.00,99.31
3623.00,99.30
3622.00,99.29
3621.00,99.27
3620.00,99.26
3619.00,99.26
3618.00,99.26
3617.00,99.26
3616.00,99.25
3615.00,99.23
3614.00,99.22
3613.00,99.25
3612.00,99.29
3611.00,99.33
3610.00,99.37
3609.00,99.37
3608.00,99.35
3607.00,99.32
3606.00,99.29
3605.00,99.27
3604.00,99.26
3603.00,99.25
3602.00,99.25
3601.00,99.25
3600.00,99.26
3599.00,99.26
3598.00,99.24
3597.00,99.23
3596.00,99.23
3595.00,99.24
3594.00,99.25
3593.00,99.26
3592.00,99.27
3591.00,99.27
3590.00,99.27
3589.00,99.28
3588.00,99.28
3587.00,99.28
3586.00,99.27
3585.00,99.28
3584.00,99.28
3583.00,99.28
3582.00,99.27
3581.00,99.26
3580.00,99.25
3579.00,99.26
3578.00,99.27
3577.00,99.29
3576.00,99.30
3575.00,99.30
3574.00,99.29
3573.00,99.27
3572.00,99.25
3571.00,99.24
3570.00,99.25
3569.00,99.26
3568.00,99.26
3567.00,99.25
3566.00,99.22
3565.00,99.20
3564.00,99.19
3563.00,99.20
3562.00,99.22
3561.00,99.25
3560.00,99.28
3559.00,99.28
3558.00,99.27
3557.00,99.24
3556.00,99.21
3555.00,99.18
3554.00,99.16
3553.00,99.16
3552.00,99.17
3551.00,99.19
3550.00,99.20
3549.00,99.19
3548.00,99.17
3547.00,99.15
3546.00,99.14
3545.00,99.16
3544.00,99.18
3543.00,99.20
3542.00,99.22
3541.00,99.23
3540.00,99.24
3539.00,99.23
3538.00,99.22
3537.00,99.21
3536.00,99.19
3535.00,99.17
3534.00,99.15
3533.00,99.14
3532.00,99.15
3531.00,99.18
3530.00,99.19
3529.00,99.21
3528.00,99.22
3527.00,99.25
3526.00,99.28
3525.00,99.30
3524.00,99.28
3523.00,99.25
3522.00,99.22
3521.00,99.20
3520.00,99.19
3519.00,99.20
3518.00,99.21
3517.00,99.22
3516.00,99.23
3515.00,99.23
3514.00,99.22
3513.00,99.22
3512.00,99.22
3511.00,99.23
3510.00,99.24
3509.00,99.23
3508.00,99.21
3507.00,99.20
3506.00,99.20
3505.00,99.22
3504.00,99.24
3503.00,99.27
3502.00,99.29
3501.00,99.30
3500.00,99.29
3499.00,99.28
3498.00,99.28
3497.00,99.28
3496.00,99.28
3495.00,99.27
3494.00,99.24
3493.00,99.22
3492.00,99.21
3491.00,99.21
3490.00,99.22
3489.00,99.23
3488.00,99.22
3487.00,99.21
3486.00,99.21
3485.00,99.21
3484.00,99.21
3483.00,99.21
3482.00,99.22
3481.00,99.24
3480.00,99.25
3479.00,99.26
3478.00,99.25
3477.00,99.23
3476.00,99.22
3475.00,99.21
3474.00,99.20
3473.00,99.20
3472.00,99.20
3471.00,99.20
3470.00,99.20
3469.00,99.19
3468.00,99.18
3467.00,99.16
3466.00,99.15
3465.00,99.15
3464.00,99.17
3463.00,99.19
3462.00,99.21
3461.00,99.20
3460.00,99.19
3459.00,99.18
3458.00,99.19
3457.00,99.21
3456.00,99.22
3455.00,99.24
3454.00,99.25
3453.00,99.25
3452.00,99.24
3451.00,99.22
3450.00,99.18
3449.00,99.16
3448.00,99.17
3447.00,99.20
3446.00,99.24
3445.00,99.25
3444.00,99.24
3443.00,99.22
3442.00,99.22
3441.00,99.22
3440.00,99.23
3439.00,99.24
3438.00,99.22
3437.00,99.21
3436.00,99.19
3435.00,99.20
3434.00,99.22
3433.00,99.26
3432.00,99.28
3431.00,99.29
3430.00,99.28
3429.00,99.25
3428.00,99.23
3427.00,99.22
3426.00,99.21
3425.00,99.20
3424.00,99.20
3423.00,99.21
3422.00,99.22
3421.00,99.23
3420.00,99.24
3419.00,99.23
3418.00,99.23
3417.00,99.22
3416.00,99.21
3415.00,99.20
3414.00,99.19
3413.00,99.19
3412.00,99.21
3411.00,99.23
3410.00,99.26
3409.00,99.28
3408.00,99.30
3407.00,99.30
3406.00,99.29
3405.00,99.25
3404.00,99.22
3403.00,99.21
3402.00,99.23
3401.00,99.27
3400.00,99.31
3399.00,99.32
3398.00,99.32
3397.00,99.30
3396.00,99.28
3395.00,99.27
3394.00,99.26
3393.00,99.25
3392.00,99.25
3391.00,99.25
3390.00,99.26
3389.00,99.28
3388.00,99.29
3387.00,99.29
3386.00,99.28
3385.00,99.28
3384.00,99.27
3383.00,99.27
3382.00,99.27
3381.00,99.26
3380.00,99.26
3379.00,99.25
3378.00,99.24
3377.00,99.23
3376.00,99.24
3375.00,99.25
3374.00,99.26
3373.00,99.27
3372.00,99.28
3371.00,99.27
3370.00,99.26
3369.00,99.25
3368.00,99.24
3367.00,99.24
3366.00,99.24
3365.00,99.25
3364.00,99.25
3363.00,99.25
3362.00,99.25
3361.00,99.26
3360.00,99.26
3359.00,99.27
3358.00,99.28
3357.00,99.29
3356.00,99.29
3355.00,99.29
3354.00,99.29
3353.00,99.29
3352.00,99.28
3351.00,99.27
3350.00,99.25
3349.00,99.23
3348.00,99.23
3347.00,99.23
3346.00,99.23
3345.00,99.23
3344.00,99.23
3343.00,99.23
3342.00,99.23
3341.00,99.23
3340.00,99.23
3339.00,99.23
3338.00,99.23
3337.00,99.22
3336.00,99.21
3335.00,99.19
3334.00,99.18
3333.00,99.19
3332.00,99.21
3331.00,99.24
3330.00,99.25
3329.00,99.24
3328.00,99.25
3327.00,99.27
3326.00,99.30
3325.00,99.33
3324.00,99.34
3323.00,99.33
3322.00,99.32
3321.00,99.30
3320.00,99.29
3319.00,99.28
3318.00,99.27
3317.00,99.25
3316.00,99.25
3315.00,99.24
3314.00,99.25
3313.00,99.25
3312.00,99.25
3311.00,99.26
3310.00,99.27
3309.00,99.28
3308.00,99.28
3307.00,99.28
3306.00,99.28
3305.00,99.29
3304.00,99.30
3303.00,99.30
3302.00,99.30
3301.00,99.30
3300.00,99.29
3299.00,99.29
3298.00,99.27
3297.00,99.24
3296.00,99.22
3295.00,99.22
3294.00,99.23
3293.00,99.26
3292.00,99.29
3291.00,99.30
3290.00,99.30
3289.00,99.28
3288.00,99.27
3287.00,99.26
3286.00,99.25
3285.00,99.24
3284.00,99.24
3283.00,99.24
3282.00,99.25
3281.00,99.26
3280.00,99.27
3279.00,99.27
3278.00,99.26
3277.00,99.26
3276.00,99.26
3275.00,99.25
3274.00,99.25
3273.00,99.25
3272.00,99.24
3271.00,99.24
3270.00,99.24
3269.00,99.25
3268.00,99.26
3267.00,99.26
3266.00,99.27
3265.00,99.26
3264.00,99.26
3263.00,99.25
3262.00,99.24
3261.00,99.23
3260.00,99.21
3259.00,99.20
3258.00,99.19
3257.00,99.19
3256.00,99.19
3255.00,99.20
3254.00,99.22
3253.00,99.24
3252.00,99.25
3251.00,99.26
3250.00,99.26
3249.00,99.26
3248.00,99.25
3247.00,99.25
3246.00,99.26
3245.00,99.27
3244.00,99.28
3243.00,99.28
3242.00,99.27
3241.00,99.26
3240.00,99.24
3239.00,99.23
3238.00,99.23
3237.00,99.23
3236.00,99.24
3235.00,99.25
3234.00,99.25
3233.00,99.25
3232.00,99.26
3231.00,99.26
3230.00,99.26
3229.00,99.25
3228.00,99.24
3227.00,99.24
3226.00,99.24
3225.00,99.26
3224.00,99.26
3223.00,99.27
3222.00,99.26
3221.00,99.25
3220.00,99.25
3219.00,99.25
3218.00,99.27
3217.00,99.29
3216.00,99.31
3215.00,99.31
3214.00,99.30
3213.00,99.29
3212.00,99.28
3211.00,99.27
3210.00,99.26
3209.00,99.24
3208.00,99.22
3207.00,99.20
3206.00,99.20
3205.00,99.22
3204.00,99.24
3203.00,99.26
3202.00,99.27
3201.00,99.27
3200.00,99.26
3199.00,99.24
3198.00,99.24
3197.00,99.24
3196.00,99.24
3195.00,99.24
3194.00,99.24
3193.00,99.24
3192.00,99.25
3191.00,99.26
3190.00,99.27
3189.00,99.28
3188.00,99.28
3187.00,99.28
3186.00,99.28
3185.00,99.29
3184.00,99.29
3183.00,99.29
3182.00,99.29
3181.00,99.29
3180.00,99.30
3179.00,99.31
3178.00,99.31
3177.00,99.31
3176.00,99.31
3175.00,99.30
3174.00,99.30
3173.00,99.30
3172.00,99.29
3171.00,99.28
3170.00,99.27
3169.00,99.26
3168.00,99.27
3167.00,99.27
3166.00,99.29
3165.00,99.30
3164.00,99.31
3163.00,99.31
3162.00,99.31
3161.00,99.31
3160.00,99.32
3159.00,99.33
3158.00,99.33
3157.00,99.34
3156.00,99.35
3155.00,99.36
3154.00,99.35
3153.00,99.33
3152.00,99.30
3151.00,99.26
3150.00,99.25
3149.00,99.27
3148.00,99.29
3147.00,99.31
3146.00,99.32
3145.00,99.32
3144.00,99.33
3143.00,99.35
3142.00,99.36
3141.00,99.36
3140.00,99.34
3139.00,99.33
3138.00,99.33
3137.00,99.33
3136.00,99.34
3135.00,99.36
3134.00,99.37
3133.00,99.39
3132.00,99.40
3131.00,99.39
3130.00,99.37
3129.00,99.34
3128.00,99.31
3127.00,99.30
3126.00,99.31
3125.00,99.33
3124.00,99.33
3123.00,99.33
3122.00,99.33
3121.00,99.33
3120.00,99.33
3119.00,99.34
3118.00,99.33
3117.00,99.32
3116.00,99.30
3115.00,99.30
3114.00,99.31
3113.00,99.31
3112.00,99.32
3111.00,99.31
3110.00,99.31
3109.00,99.31
3108.00,99.32
3107.00,99.33
3106.00,99.35
3105.00,99.35
3104.00,99.35
3103.00,99.33
3102.00,99.32
3101.00,99.32
3100.00,99.33
3099.00,99.33
3098.00,99.32
3097.00,99.32
3096.00,99.33
3095.00,99.34
3094.00,99.35
3093.00,99.35
3092.00,99.35
3091.00,99.34
3090.00,99.35
3089.00,99.37
3088.00,99.39
3087.00,99.39
3086.00,99.37
3085.00,99.33
3084.00,99.30
3083.00,99.30
3082.00,99.32
3081.00,99.35
3080.00,99.38
3079.00,99.40
3078.00,99.40
3077.00,99.39
3076.00,99.38
3075.00,99.36
3074.00,99.35
3073.00,99.34
3072.00,99.34
3071.00,99.34
3070.00,99.35
3069.00,99.36
3068.00,99.36
3067.00,99.35
3066.00,99.34
3065.00,99.34
3064.00,99.33
3063.00,99.33
3062.00,99.33
3061.00,99.35
3060.00,99.37
3059.00,99.39
3058.00,99.40
3057.00,99.39
3056.00,99.37
3055.00,99.36
3054.00,99.35
3053.00,99.35
3052.00,99.35
3051.00,99.34
3050.00,99.33
3049.00,99.32
3048.00,99.33
3047.00,99.35
3046.00,99.37
3045.00,99.38
3044.00,99.37
3043.00,99.35
3042.00,99.33
3041.00,99.32
3040.00,99.31
3039.00,99.32
3038.00,99.32
3037.00,99.33
3036.00,99.34
3035.00,99.36
3034.00,99.37
3033.00,99.38
3032.00,99.38
3031.00,99.36
3030.00,99.35
3029.00,99.35
3028.00,99.36
3027.00,99.36
3026.00,99.36
3025.00,99.35
3024.00,99.33
3023.00,99.32
3022.00,99.30
3021.00,99.29
3020.00,99.28
3019.00,99.28
3018.00,99.27
3017.00,99.26
3016.00,99.25
3015.00,99.25
3014.00,99.26
3013.00,99.26
3012.00,99.26
3011.00,99.26
3010.00,99.26
3009.00,99.26
3008.00,99.26
3007.00,99.26
3006.00,99.24
3005.00,99.22
3004.00,99.21
3003.00,99.20
3002.00,99.20
3001.00,99.21
3000.00,99.21
2999.00,99.20
2998.00,99.18
2997.00,99.15
2996.00,99.12
2995.00,99.10
2994.00,99.09
2993.00,99.08
2992.00,99.07
2991.00,99.06
2990.00,99.05
2989.00,99.05
2988.00,99.04
2987.00,99.04
2986.00,99.03
2985.00,99.01
2984.00,98.99
2983.00,98.98
2982.00,98.98
2981.00,98.98
2980.00,98.98
2979.00,98.98
2978.00,98.97
2977.00,98.97
2976.00,98.97
2975.00,98.97
2974.00,98.97
2973.00,98.97
2972.00,98.96
2971.00,98.95
2970.00,98.94
2969.00,98.95
2968.00,98.96
2967.00,98.97
2966.00,98.97
2965.00,98.97
2964.00,98.96
2963.00,98.97
2962.00,98.99
2961.00,99.00
2960.00,99.00
2959.00,98.99
2958.00,98.98
2957.00,98.98
2956.00,98.97
2955.00,98.95
2954.00,98.93
2953.00,98.90
2952.00,98.87
2951.00,98.84
2950.00,98.81
2949.00,98.79
2948.00,98.77
2947.00,98.74
2946.00,98.72
2945.00,98.70
2944.00,98.68
2943.00,98.67
2942.00,98.67
2941.00,98.66
2940.00,98.63
2939.00,98.59
2938.00,98.57
2937.00,98.55
2936.00,98.55
2935.00,98.55
2934.00,98.55
2933.00,98.54
2932.00,98.54
2931.00,98.55
2930.00,98.55
2929.00,98.55
2928.00,98.55
2927.00,98.55
2926.00,98.54
2925.00,98.54
2924.00,98.54
2923.00,98.54
2922.00,98.53
2921.00,98.53
2920.00,98.55
2919.00,98.58
2918.00,98.63
2917.00,98.67
2916.00,98.70
2915.00,98.74
2914.00,98.78
2913.00,98.84
2912.00,98.88
2911.00,98.92
2910.00,98.95
2909.00,98.98
2908.00,99.00
2907.00,99.03
2906.00,99.05
2905.00,99.06
2904.00,99.08
2903.00,99.09
2902.00,99.11
2901.00,99.14
2900.00,99.16
2899.00,99.19
2898.00,99.20
2897.00,99.20
2896.00,99.19
2895.00,99.18
2894.00,99.17
2893.00,99.17
2892.00,99.17
2891.00,99.18
2890.00,99.19
2889.00,99.20
2888.00,99.20
2887.00,99.20
2886.00,99.19
2885.00,99.18
2884.00,99.17
2883.00,99.18
2882.00,99.20
2881.00,99.22
2880.00,99.24
2879.00,99.24
2878.00,99.24
2877.00,99.24
2876.00,99.24
2875.00,99.23
2874.00,99.22
2873.00,99.23
2872.00,99.24
2871.00,99.25
2870.00,99.26
2869.00,99.26
2868.00,99.26
2867.00,99.25
2866.00,99.25
2865.00,99.24
2864.00,99.23
2863.00,99.21
2862.00,99.20
2861.00,99.19
2860.00,99.19
2859.00,99.19
2858.00,99.18
2857.00,99.18
2856.00,99.18
2855.00,99.18
2854.00,99.18
2853.00,99.19
2852.00,99.19
2851.00,99.21
2850.00,99.23
2849.00,99.25
2848.00,99.27
2847.00,99.28
2846.00,99.30
2845.00,99.32
2844.00,99.35
2843.00,99.37
2842.00,99.38
2841.00,99.38
2840.00,99.37
2839.00,99.36
2838.00,99.36
2837.00,99.37
2836.00,99.39
2835.00,99.40
2834.00,99.40
2833.00,99.40
2832.00,99.41
2831.00,99.42
2830.00,99.43
2829.00,99.43
2828.00,99.43
2827.00,99.42
2826.00,99.41
2825.00,99.42
2824.00,99.43
2823.00,99.44
2822.00,99.45
2821.00,99.45
2820.00,99.45
2819.00,99.44
2818.00,99.43
2817.00,99.43
2816.00,99.44
2815.00,99.44
2814.00,99.46
2813.00,99.47
2812.00,99.49
2811.00,99.49
2810.00,99.48
2809.00,99.47
2808.00,99.45
2807.00,99.43
2806.00,99.42
2805.00,99.41
2804.00,99.41
2803.00,99.41
2802.00,99.42
2801.00,99.43
2800.00,99.45
2799.00,99.46
2798.00,99.46
2797.00,99.46
2796.00,99.46
2795.00,99.46
2794.00,99.47
2793.00,99.47
2792.00,99.48
2791.00,99.48
2790.00,99.48
2789.00,99.48
2788.00,99.48
2787.00,99.49
2786.00,99.50
2785.00,99.51
2784.00,99.51
2783.00,99.50
2782.00,99.49
2781.00,99.47
2780.00,99.46
2779.00,99.47
2778.00,99.49
2777.00,99.52
2776.00,99.54
2775.00,99.53
2774.00,99.51
2773.00,99.49
2772.00,99.46
2771.00,99.45
2770.00,99.46
2769.00,99.47
2768.00,99.49
2767.00,99.51
2766.00,99.51
2765.00,99.52
2764.00,99.52
2763.00,99.52
2762.00,99.52
2761.00,99.52
2760.00,99.52
2759.00,99.52
2758.00,99.52
2757.00,99.51
2756.00,99.50
2755.00,99.48
2754.00,99.47
2753.00,99.47
2752.00,99.48
2751.00,99.49
2750.00,99.50
2749.00,99.50
2748.00,99.49
2747.00,99.49
2746.00,99.49
2745.00,99.50
2744.00,99.50
2743.00,99.50
2742.00,99.49
2741.00,99.48
2740.00,99.47
2739.00,99.46
2738.00,99.46
2737.00,99.47
2736.00,99.47
2735.00,99.48
2734.00,99.49
2733.00,99.50
2732.00,99.49
2731.00,99.48
2730.00,99.46
2729.00,99.46
2728.00,99.47
2727.00,99.48
2726.00,99.48
2725.00,99.48
2724.00,99.48
2723.00,99.48
2722.00,99.49
2721.00,99.49
2720.00,99.48
2719.00,99.46
2718.00,99.46
2717.00,99.47
2716.00,99.48
2715.00,99.50
2714.00,99.51
2713.00,99.51
2712.00,99.51
2711.00,99.50
2710.00,99.50
2709.00,99.50
2708.00,99.50
2707.00,99.50
2706.00,99.50
2705.00,99.50
2704.00,99.50
2703.00,99.49
2702.00,99.48
2701.00,99.47
2700.00,99.47
2699.00,99.47
2698.00,99.48
2697.00,99.49
2696.00,99.50
2695.00,99.51
2694.00,99.51
2693.00,99.51
2692.00,99.51
2691.00,99.52
2690.00,99.51
2689.00,99.49
2688.00,99.46
2687.00,99.45
2686.00,99.46
2685.00,99.47
2684.00,99.48
2683.00,99.49
2682.00,99.49
2681.00,99.48
2680.00,99.49
2679.00,99.48
2678.00,99.48
2677.00,99.47
2676.00,99.47
2675.00,99.47
2674.00,99.47
2673.00,99.48
2672.00,99.48
2671.00,99.47
2670.00,99.46
2669.00,99.46
2668.00,99.46
2667.00,99.47
2666.00,99.48
2665.00,99.50
2664.00,99.50
2663.00,99.49
2662.00,99.48
2661.00,99.47
2660.00,99.47
2659.00,99.46
2658.00,99.46
2657.00,99.46
2656.00,99.45
2655.00,99.44
2654.00,99.42
2653.00,99.41
2652.00,99.41
2651.00,99.41
2650.00,99.40
2649.00,99.39
2648.00,99.38
2647.00,99.37
2646.00,99.36
2645.00,99.36
2644.00,99.34
2643.00,99.33
2642.00,99.31
2641.00,99.30
2640.00,99.30
2639.00,99.30
2638.00,99.31
2637.00,99.31
2636.00,99.31
2635.00,99.31
2634.00,99.31
2633.00,99.30
2632.00,99.30
2631.00,99.29
2630.00,99.27
2629.00,99.25
2628.00,99.24
2627.00,99.22
2626.00,99.20
2625.00,99.19
2624.00,99.19
2623.00,99.20
2622.00,99.21
2621.00,99.23
2620.00,99.24
2619.00,99.23
2618.00,99.22
2617.00,99.20
2616.00,99.18
2615.00,99.17
2614.00,99.17
2613.00,99.17
2612.00,99.16
2611.00,99.15
2610.00,99.14
2609.00,99.13
2608.00,99.14
2607.00,99.16
2606.00,99.17
2605.00,99.16
2604.00,99.15
2603.00,99.13
2602.00,99.13
2601.00,99.12
2600.00,99.11
2599.00,99.10
2598.00,99.09
2597.00,99.09
2596.00,99.10
2595.00,99.09
2594.00,99.09
2593.00,99.09
2592.00,99.09
2591.00,99.09
2590.00,99.09
2589.00,99.08
2588.00,99.08
2587.00,99.08
2586.00,99.07
2585.00,99.05
2584.00,99.04
2583.00,99.04
2582.00,99.05
2581.00,99.06
2580.00,99.06
2579.00,99.04
2578.00,99.01
2577.00,98.99
2576.00,98.98
2575.00,98.96
2574.00,98.96
2573.00,98.97
2572.00,99.00
2571.00,99.03
2570.00,99.04
2569.00,99.03
2568.00,99.02
2567.00,99.02
2566.00,99.02
2565.00,99.00
2564.00,98.97
2563.00,98.94
2562.00,98.92
2561.00,98.90
2560.00,98.90
2559.00,98.91
2558.00,98.92
2557.00,98.95
2556.00,98.97
2555.00,99.00
2554.00,99.02
2553.00,99.03
2552.00,99.02
2551.00,99.01
2550.00,99.00
2549.00,98.99
2548.00,98.99
2547.00,98.99
2546.00,98.99
2545.00,99.00
2544.00,99.01
2543.00,99.01
2542.00,99.00
2541.00,98.97
2540.00,98.95
2539.00,98.95
2538.00,98.95
2537.00,98.94
2536.00,98.94
2535.00,98.94
2534.00,98.96
2533.00,98.97
2532.00,98.97
2531.00,98.95
2530.00,98.93
2529.00,98.90
2528.00,98.89
2527.00,98.90
2526.00,98.92
2525.00,98.95
2524.00,98.96
2523.00,98.95
2522.00,98.95
2521.00,98.95
2520.00,98.95
2519.00,98.94
2518.00,98.93
2517.00,98.92
2516.00,98.93
2515.00,98.94
2514.00,98.95
2513.00,98.95
2512.00,98.95
2511.00,98.95
2510.00,98.95
2509.00,98.95
2508.00,98.95
2507.00,98.96
2506.00,98.95
2505.00,98.94
2504.00,98.92
2503.00,98.92
2502.00,98.93
2501.00,98.93
2500.00,98.94
2499.00,98.94
2498.00,98.95
2497.00,98.96
2496.00,98.95
2495.00,98.93
2494.00,98.91
2493.00,98.90
2492.00,98.90
2491.00,98.90
2490.00,98.90
2489.00,98.90
2488.00,98.92
2487.00,98.94
2486.00,98.97
2485.00,98.99
2484.00,98.99
2483.00,98.98
2482.00,98.98
2481.00,98.98
2480.00,98.99
2479.00,99.00
2478.00,99.00
2477.00,98.99
2476.00,98.96
2475.00,98.93
2474.00,98.91
2473.00,98.90
2472.00,98.89
2471.00,98.90
2470.00,98.90
2469.00,98.92
2468.00,98.93
2467.00,98.95
2466.00,98.97
2465.00,98.97
2464.00,98.97
2463.00,98.97
2462.00,98.97
2461.00,98.98
2460.00,98.98
2459.00,98.97
2458.00,98.95
2457.00,98.93
2456.00,98.93
2455.00,98.93
2454.00,98.95
2453.00,98.96
2452.00,98.96
2451.00,98.97
2450.00,98.97
2449.00,98.97
2448.00,98.97
2447.00,98.96
2446.00,98.96
2445.00,98.96
2444.00,98.96
2443.00,98.95
2442.00,98.95
2441.00,98.93
2440.00,98.92
2439.00,98.91
2438.00,98.90
2437.00,98.91
2436.00,98.93
2435.00,98.96
2434.00,98.99
2433.00,99.00
2432.00,99.01
2431.00,99.02
2430.00,99.01
2429.00,99.01
2428.00,99.00
2427.00,98.99
2426.00,99.00
2425.00,99.01
2424.00,99.02
2423.00,99.02
2422.00,99.02
2421.00,99.02
2420.00,99.01
2419.00,99.01
2418.00,98.99
2417.00,98.99
2416.00,99.00
2415.00,99.03
2414.00,99.07
2413.00,99.09
2412.00,99.09
2411.00,99.07
2410.00,99.04
2409.00,99.01
2408.00,98.99
2407.00,98.99
2406.00,99.01
2405.00,99.06
2404.00,99.10
2403.00,99.13
2402.00,99.14
2401.00,99.14
2400.00,99.14
2399.00,99.13
2398.00,99.12
2397.00,99.12
2396.00,99.12
2395.00,99.11
2394.00,99.12
2393.00,99.13
2392.00,99.16
2391.00,99.18
2390.00,99.19
2389.00,99.18
2388.00,99.18
2387.00,99.18
2386.00,99.19
2385.00,99.20
2384.00,99.22
2383.00,99.25
2382.00,99.29
2381.00,99.34
2380.00,99.40
2379.00,99.44
2378.00,99.48
2377.00,99.51
2376.00,99.54
2375.00,99.58
2374.00,99.62
2373.00,99.66
2372.00,99.68
2371.00,99.69
2370.00,99.66
2369.00,99.62
2368.00,99.58
2367.00,99.58
2366.00,99.60
2365.00,99.62
2364.00,99.62
2363.00,99.64
2362.00,99.68
2361.00,99.73
2360.00,99.74
2359.00,99.71
2358.00,99.64
2357.00,99.60
2356.00,99.61
2355.00,99.64
2354.00,99.68
2353.00,99.69
2352.00,99.69
2351.00,99.69
2350.00,99.69
2349.00,99.68
2348.00,99.68
2347.00,99.67
2346.00,99.67
2345.00,99.67
2344.00,99.67
2343.00,99.66
2342.00,99.65
2341.00,99.65
2340.00,99.66
2339.00,99.69
2338.00,99.69
2337.00,99.66
2336.00,99.62
2335.00,99.60
2334.00,99.59
2333.00,99.59
2332.00,99.60
2331.00,99.60
2330.00,99.59
2329.00,99.57
2328.00,99.54
2327.00,99.50
2326.00,99.46
2325.00,99.42
2324.00,99.40
2323.00,99.41
2322.00,99.45
2321.00,99.47
2320.00,99.46
2319.00,99.42
2318.00,99.37
2317.00,99.32
2316.00,99.29
2315.00,99.26
2314.00,99.24
2313.00,99.23
2312.00,99.22
2311.00,99.21
2310.00,99.20
2309.00,99.18
2308.00,99.18
2307.00,99.18
2306.00,99.18
2305.00,99.16
2304.00,99.13
2303.00,99.09
2302.00,99.05
2301.00,99.00
2300.00,98.96
2299.00,98.92
2298.00,98.89
2297.00,98.88
2296.00,98.87
2295.00,98.86
2294.00,98.87
2293.00,98.88
2292.00,98.88
2291.00,98.86
2290.00,98.82
2289.00,98.77
2288.00,98.72
2287.00,98.69
2286.00,98.66
2285.00,98.64
2284.00,98.61
2283.00,98.59
2282.00,98.56
2281.00,98.55
2280.00,98.55
2279.00,98.55
2278.00,98.54
2277.00,98.53
2276.00,98.50
2275.00,98.48
2274.00,98.45
2273.00,98.42
2272.00,98.41
2271.00,98.40
2270.00,98.41
2269.00,98.42
2268.00,98.41
2267.00,98.38
2266.00,98.33
2265.00,98.29
2264.00,98.28
2263.00,98.28
2262.00,98.27
2261.00,98.21
2260.00,98.09
2259.00,97.95
2258.00,97.84
2257.00,97.76
2256.00,97.68
2255.00,97.59
2254.00,97.48
2253.00,97.34
2252.00,97.18
2251.00,97.00
2250.00,96.82
2249.00,96.65
2248.00,96.50
2247.00,96.37
2246.00,96.26
2245.00,96.17
2244.00,96.10
2243.00,96.08
2242.00,96.10
2241.00,96.19
2240.00,96.34
2239.00,96.56
2238.00,96.81
2237.00,97.06
2236.00,97.27
2235.00,97.41
2234.00,97.51
2233.00,97.58
2232.00,97.64
2231.00,97.70
2230.00,97.74
2229.00,97.75
2228.00,97.75
2227.00,97.76
2226.00,97.78
2225.00,97.79
2224.00,97.80
2223.00,97.79
2222.00,97.79
2221.00,97.80
2220.00,97.79
2219.00,97.77
2218.00,97.76
2217.00,97.79
2216.00,97.83
2215.00,97.86
2214.00,97.85
2213.00,97.81
2212.00,97.77
2211.00,97.75
2210.00,97.74
2209.00,97.72
2208.00,97.70
2207.00,97.70
2206.00,97.72
2205.00,97.75
2204.00,97.77
2203.00,97.76
2202.00,97.72
2201.00,97.66
2200.00,97.62
2199.00,97.63
2198.00,97.68
2197.00,97.71
2196.00,97.66
2195.00,97.57
2194.00,97.47
2193.00,97.42
2192.00,97.42
2191.00,97.46
2190.00,97.51
2189.00,97.55
2188.00,97.53
2187.00,97.48
2186.00,97.42
2185.00,97.38
2184.00,97.38
2183.00,97.40
2182.00,97.46
2181.00,97.51
2180.00,97.55
2179.00,97.54
2178.00,97.51
2177.00,97.48
2176.00,97.46
2175.00,97.44
2174.00,97.40
2173.00,97.35
2172.00,97.30
2171.00,97.26
2170.00,97.22
2169.00,97.17
2168.00,97.11
2167.00,97.03
2166.00,96.95
2165.00,96.89
2164.00,96.88
2163.00,96.88
2162.00,96.89
2161.00,96.90
2160.00,96.96
2159.00,97.08
2158.00,97.21
2157.00,97.29
2156.00,97.33
2155.00,97.36
2154.00,97.39
2153.00,97.40
2152.00,97.40
2151.00,97.42
2150.00,97.47
2149.00,97.56
2148.00,97.66
2147.00,97.76
2146.00,97.84
2145.00,97.87
2144.00,97.84
2143.00,97.78
2142.00,97.75
2141.00,97.77
2140.00,97.81
2139.00,97.84
2138.00,97.87
2137.00,97.93
2136.00,98.01
2135.00,98.10
2134.00,98.17
2133.00,98.22
2132.00,98.28
2131.00,98.33
2130.00,98.37
2129.00,98.39
2128.00,98.40
2127.00,98.40
2126.00,98.40
2125.00,98.38
2124.00,98.36
2123.00,98.35
2122.00,98.38
2121.00,98.43
2120.00,98.45
2119.00,98.44
2118.00,98.42
2117.00,98.40
2116.00,98.40
2115.00,98.40
2114.00,98.38
2113.00,98.35
2112.00,98.35
2111.00,98.37
2110.00,98.40
2109.00,98.41
2108.00,98.38
2107.00,98.32
2106.00,98.27
2105.00,98.25
2104.00,98.26
2103.00,98.29
2102.00,98.33
2101.00,98.36
2100.00,98.35
2099.00,98.32
2098.00,98.30
2097.00,98.30
2096.00,98.31
2095.00,98.33
2094.00,98.33
2093.00,98.31
2092.00,98.28
2091.00,98.28
2090.00,98.30
2089.00,98.32
2088.00,98.33
2087.00,98.31
2086.00,98.28
2085.00,98.25
2084.00,98.23
2083.00,98.23
2082.00,98.23
2081.00,98.23
2080.00,98.23
2079.00,98.23
2078.00,98.23
2077.00,98.23
2076.00,98.22
2075.00,98.20
2074.00,98.18
2073.00,98.16
2072.00,98.13
2071.00,98.09
2070.00,98.05
2069.00,98.01
2068.00,98.02
2067.00,98.06
2066.00,98.11
2065.00,98.16
2064.00,98.18
2063.00,98.17
2062.00,98.14
2061.00,98.09
2060.00,98.04
2059.00,97.99
2058.00,97.95
2057.00,97.94
2056.00,97.95
2055.00,97.96
2054.00,97.95
2053.00,97.89
2052.00,97.78
2051.00,97.69
2050.00,97.65
2049.00,97.65
2048.00,97.65
2047.00,97.61
2046.00,97.54
2045.00,97.49
2044.00,97.48
2043.00,97.48
2042.00,97.49
2041.00,97.50
2040.00,97.49
2039.00,97.45
2038.00,97.42
2037.00,97.38
2036.00,97.34
2035.00,97.30
2034.00,97.27
2033.00,97.26
2032.00,97.28
2031.00,97.30
2030.00,97.33
2029.00,97.37
2028.00,97.40
2027.00,97.42
2026.00,97.42
2025.00,97.42
2024.00,97.41
2023.00,97.40
2022.00,97.39
2021.00,97.38
2020.00,97.37
2019.00,97.35
2018.00,97.35
2017.00,97.39
2016.00,97.46
2015.00,97.50
2014.00,97.49
2013.00,97.45
2012.00,97.42
2011.00,97.44
2010.00,97.47
2009.00,97.50
2008.00,97.51
2007.00,97.52
2006.00,97.52
2005.00,97.55
2004.00,97.61
2003.00,97.66
2002.00,97.70
2001.00,97.71
2000.00,97.68
1999.00,97.63
1998.00,97.57
1997.00,97.52
1996.00,97.52
1995.00,97.57
1994.00,97.63
1993.00,97.65
1992.00,97.59
1991.00,97.48
1990.00,97.39
1989.00,97.36
1988.00,97.39
1987.00,97.45
1986.00,97.49
1985.00,97.50
1984.00,97.48
1983.00,97.43
1982.00,97.36
1981.00,97.29
1980.00,97.26
1979.00,97.27
1978.00,97.32
1977.00,97.39
1976.00,97.43
1975.00,97.44
1974.00,97.42
1973.00,97.40
1972.00,97.42
1971.00,97.46
1970.00,97.51
1969.00,97.56
1968.00,97.60
1967.00,97.64
1966.00,97.68
1965.00,97.71
1964.00,97.74
1963.00,97.76
1962.00,97.77
1961.00,97.78
1960.00,97.81
1959.00,97.90
1958.00,98.01
1957.00,98.09
1956.00,98.09
1955.00,98.04
1954.00,97.99
1953.00,97.97
1952.00,97.98
1951.00,98.01
1950.00,98.04
1949.00,98.10
1948.00,98.16
1947.00,98.22
1946.00,98.26
1945.00,98.26
1944.00,98.25
1943.00,98.23
1942.00,98.23
1941.00,98.22
1940.00,98.23
1939.00,98.24
1938.00,98.25
1937.00,98.28
1936.00,98.31
1935.00,98.35
1934.00,98.38
1933.00,98.39
1932.00,98.37
1931.00,98.34
1930.00,98.33
1929.00,98.37
1928.00,98.42
1927.00,98.47
1926.00,98.48
1925.00,98.47
1924.00,98.45
1923.00,98.46
1922.00,98.49
1921.00,98.54
1920.00,98.57
1919.00,98.57
1918.00,98.54
1917.00,98.51
1916.00,98.50
1915.00,98.53
1914.00,98.57
1913.00,98.60
1912.00,98.61
1911.00,98.59
1910.00,98.58
1909.00,98.58
1908.00,98.59
1907.00,98.58
1906.00,98.57
1905.00,98.57
1904.00,98.58
1903.00,98.61
1902.00,98.63
1901.00,98.63
1900.00,98.62
1899.00,98.61
1898.00,98.60
1897.00,98.60
1896.00,98.62
1895.00,98.64
1894.00,98.64
1893.00,98.64
1892.00,98.65
1891.00,98.66
1890.00,98.67
1889.00,98.68
1888.00,98.68
1887.00,98.68
1886.00,98.69
1885.00,98.70
1884.00,98.73
1883.00,98.76
1882.00,98.77
1881.00,98.77
1880.00,98.75
1879.00,98.74
1878.00,98.74
1877.00,98.75
1876.00,98.75
1875.00,98.76
1874.00,98.77
1873.00,98.78
1872.00,98.78
1871.00,98.78
1870.00,98.78
1869.00,98.79
1868.00,98.80
1867.00,98.81
1866.00,98.80
1865.00,98.80
1864.00,98.80
1863.00,98.81
1862.00,98.80
1861.00,98.79
1860.00,98.79
1859.00,98.80
1858.00,98.80
1857.00,98.80
1856.00,98.81
1855.00,98.84
1854.00,98.88
1853.00,98.93
1852.00,98.96
1851.00,98.97
1850.00,98.95
1849.00,98.93
1848.00,98.90
1847.00,98.90
1846.00,98.91
1845.00,98.94
1844.00,98.96
1843.00,98.96
1842.00,98.95
1841.00,98.95
1840.00,98.94
1839.00,98.93
1838.00,98.91
1837.00,98.91
1836.00,98.92
1835.00,98.94
1834.00,98.96
1833.00,98.97
1832.00,98.96
1831.00,98.94
1830.00,98.93
1829.00,98.94
1828.00,98.97
1827.00,98.99
1826.00,99.00
1825.00,98.99
1824.00,98.97
1823.00,98.95
1822.00,98.95
1821.00,98.96
1820.00,98.96
1819.00,98.97
1818.00,98.97
1817.00,98.99
1816.00,99.01
1815.00,99.03
1814.00,99.04
1813.00,99.06
1812.00,99.06
1811.00,99.07
1810.00,99.07
1809.00,99.06
1808.00,99.04
1807.00,99.03
1806.00,99.02
1805.00,99.02
1804.00,99.03
1803.00,99.03
1802.00,99.02
1801.00,99.02
1800.00,99.03
1799.00,99.03
1798.00,99.03
1797.00,99.03
1796.00,99.03
1795.00,99.04
1794.00,99.05
1793.00,99.06
1792.00,99.07
1791.00,99.07
1790.00,99.06
1789.00,99.05
1788.00,99.04
1787.00,99.05
1786.00,99.07
1785.00,99.09
1784.00,99.10
1783.00,99.11
1782.00,99.10
1781.00,99.10
1780.00,99.08
1779.00,99.07
1778.00,99.06
1777.00,99.07
1776.00,99.08
1775.00,99.09
1774.00,99.09
1773.00,99.08
1772.00,99.07
1771.00,99.05
1770.00,99.05
1769.00,99.04
1768.00,99.04
1767.00,99.03
1766.00,99.02
1765.00,99.02
1764.00,99.01
1763.00,99.02
1762.00,99.03
1761.00,99.03
1760.00,99.01
1759.00,99.00
1758.00,99.00
1757.00,99.00
1756.00,99.00
1755.00,99.00
1754.00,99.01
1753.00,99.03
1752.00,99.04
1751.00,99.04
1750.00,99.02
1749.00,99.01
1748.00,98.99
1747.00,98.97
1746.00,98.94
1745.00,98.93
1744.00,98.93
1743.00,98.94
1742.00,98.96
1741.00,98.96
1740.00,98.95
1739.00,98.93
1738.00,98.92
1737.00,98.92
1736.00,98.92
1735.00,98.92
1734.00,98.92
1733.00,98.93
1732.00,98.93
1731.00,98.94
1730.00,98.95
1729.00,98.96
1728.00,98.97
1727.00,98.96
1726.00,98.94
1725.00,98.93
1724.00,98.93
1723.00,98.93
1722.00,98.93
1721.00,98.94
1720.00,98.95
1719.00,98.96
1718.00,98.97
1717.00,98.97
1716.00,98.96
1715.00,98.95
1714.00,98.95
1713.00,98.95
1712.00,98.96
1711.00,98.98
1710.00,98.99
1709.00,98.99
1708.00,99.00
1707.00,99.00
1706.00,98.99
1705.00,98.99
1704.00,98.98
1703.00,98.97
1702.00,98.95
1701.00,98.94
1700.00,98.94
1699.00,98.97
1698.00,98.98
1697.00,98.99
1696.00,98.99
1695.00,98.99
1694.00,99.00
1693.00,99.00
1692.00,98.98
1691.00,98.96
1690.00,98.93
1689.00,98.91
1688.00,98.90
1687.00,98.90
1686.00,98.90
1685.00,98.89
1684.00,98.86
1683.00,98.84
1682.00,98.83
1681.00,98.82
1680.00,98.81
1679.00,98.80
1678.00,98.78
1677.00,98.76
1676.00,98.72
1675.00,98.69
1674.00,98.68
1673.00,98.67
1672.00,98.66
1671.00,98.64
1670.00,98.60
1669.00,98.56
1668.00,98.53
1667.00,98.52
1666.00,98.51
1665.00,98.51
1664.00,98.51
1663.00,98.51
1662.00,98.51
1661.00,98.51
1660.00,98.50
1659.00,98.49
1658.00,98.48
1657.00,98.48
1656.00,98.48
1655.00,98.49
1654.00,98.48
1653.00,98.48
1652.00,98.49
1651.00,98.51
1650.00,98.53
1649.00,98.54
1648.00,98.52
1647.00,98.50
1646.00,98.48
1645.00,98.49
1644.00,98.50
1643.00,98.52
1642.00,98.53
1641.00,98.53
1640.00,98.51
1639.00,98.48
1638.00,98.46
1637.00,98.43
1636.00,98.43
1635.00,98.44
1634.00,98.46
1633.00,98.47
1632.00,98.48
1631.00,98.48
1630.00,98.47
1629.00,98.44
1628.00,98.43
1627.00,98.43
1626.00,98.45
1625.00,98.46
1624.00,98.47
1623.00,98.47
1622.00,98.46
1621.00,98.47
1620.00,98.47
1619.00,98.48
1618.00,98.49
1617.00,98.50
1616.00,98.49
1615.00,98.49
1614.00,98.50
1613.00,98.51
1612.00,98.54
1611.00,98.57
1610.00,98.61
1609.00,98.65
1608.00,98.67
1607.00,98.68
1606.00,98.69
1605.00,98.69
1604.00,98.70
1603.00,98.71
1602.00,98.71
1601.00,98.72
1600.00,98.73
1599.00,98.74
1598.00,98.74
1597.00,98.75
1596.00,98.75
1595.00,98.77
1594.00,98.78
1593.00,98.80
1592.00,98.81
1591.00,98.82
1590.00,98.83
1589.00,98.84
1588.00,98.86
1587.00,98.87
1586.00,98.88
1585.00,98.88
1584.00,98.89
1583.00,98.89
1582.00,98.89
1581.00,98.90
1580.00,98.90
1579.00,98.90
1578.00,98.89
1577.00,98.89
1576.00,98.89
1575.00,98.91
1574.00,98.94
1573.00,98.97
1572.00,98.99
1571.00,99.01
1570.00,99.01
1569.00,98.98
1568.00,98.95
1567.00,98.93
1566.00,98.93
1565.00,98.93
1564.00,98.94
1563.00,98.95
1562.00,98.97
1561.00,98.98
1560.00,98.99
1559.00,98.98
1558.00,98.99
1557.00,98.99
1556.00,98.98
1555.00,98.98
1554.00,98.98
1553.00,98.98
1552.00,98.98
1551.00,98.97
1550.00,98.95
1549.00,98.95
1548.00,98.95
1547.00,98.97
1546.00,98.98
1545.00,98.98
1544.00,98.97
1543.00,98.96
1542.00,98.96
1541.00,98.96
1540.00,98.98
1539.00,98.99
1538.00,98.99
1537.00,98.99
1536.00,98.99
1535.00,98.99
1534.00,98.98
1533.00,98.96
1532.00,98.95
1531.00,98.95
1530.00,98.95
1529.00,98.96
1528.00,98.97
1527.00,98.98
1526.00,98.98
1525.00,98.99
1524.00,99.01
1523.00,99.03
1522.00,99.02
1521.00,99.00
1520.00,98.98
1519.00,98.98
1518.00,99.00
1517.00,99.02
1516.00,99.02
1515.00,99.01
1514.00,99.00
1513.00,98.99
1512.00,98.97
1511.00,98.95
1510.00,98.95
1509.00,98.94
1508.00,98.94
1507.00,98.93
1506.00,98.92
1505.00,98.92
1504.00,98.92
1503.00,98.92
1502.00,98.93
1501.00,98.93
1500.00,98.95
1499.00,98.96
1498.00,98.97
1497.00,98.97
1496.00,98.97
1495.00,98.97
1494.00,98.96
1493.00,98.95
1492.00,98.93
1491.00,98.92
1490.00,98.91
1489.00,98.90
1488.00,98.91
1487.00,98.90
1486.00,98.89
1485.00,98.88
1484.00,98.86
1483.00,98.86
1482.00,98.86
1481.00,98.85
1480.00,98.83
1479.00,98.82
1478.00,98.81
1477.00,98.79
1476.00,98.77
1475.00,98.75
1474.00,98.74
1473.00,98.70
1472.00,98.65
1471.00,98.61
1470.00,98.59
1469.00,98.58
1468.00,98.58
1467.00,98.59
1466.00,98.58
1465.00,98.53
1464.00,98.42
1463.00,98.30
1462.00,98.18
1461.00,98.06
1460.00,97.93
1459.00,97.76
1458.00,97.53
1457.00,97.22
1456.00,96.96
1455.00,96.79
1454.00,96.67
1453.00,96.56
1452.00,96.46
1451.00,96.38
1450.00,96.31
1449.00,96.25
1448.00,96.21
1447.00,96.20
1446.00,96.20
1445.00,96.21
1444.00,96.22
1443.00,96.23
1442.00,96.22
1441.00,96.23
1440.00,96.25
1439.00,96.28
1438.00,96.31
1437.00,96.33
1436.00,96.36
1435.00,96.40
1434.00,96.45
1433.00,96.51
1432.00,96.58
1431.00,96.67
1430.00,96.77
1429.00,96.88
1428.00,96.98
1427.00,97.08
1426.00,97.18
1425.00,97.29
1424.00,97.40
1423.00,97.51
1422.00,97.60
1421.00,97.68
1420.00,97.74
1419.00,97.79
1418.00,97.85
1417.00,97.91
1416.00,97.97
1415.00,98.02
1414.00,98.05
1413.00,98.08
1412.00,98.11
1411.00,98.15
1410.00,98.19
1409.00,98.22
1408.00,98.26
1407.00,98.29
1406.00,98.33
1405.00,98.37
1404.00,98.41
1403.00,98.42
1402.00,98.43
1401.00,98.44
1400.00,98.46
1399.00,98.47
1398.00,98.48
1397.00,98.47
1396.00,98.45
1395.00,98.42
1394.00,98.40
1393.00,98.38
1392.00,98.37
1391.00,98.36
1390.00,98.35
1389.00,98.33
1388.00,98.31
1387.00,98.29
1386.00,98.27
1385.00,98.26
1384.00,98.25
1383.00,98.23
1382.00,98.20
1381.00,98.17
1380.00,98.13
1379.00,98.09
1378.00,98.06
1377.00,98.04
1376.00,98.01
1375.00,97.97
1374.00,97.94
1373.00,97.91
1372.00,97.89
1371.00,97.89
1370.00,97.88
1369.00,97.86
1368.00,97.83
1367.00,97.80
1366.00,97.77
1365.00,97.76
1364.00,97.75
1363.00,97.74
1362.00,97.72
1361.00,97.71
1360.00,97.70
1359.00,97.68
1358.00,97.65
1357.00,97.64
1356.00,97.64
1355.00,97.64
1354.00,97.65
1353.00,97.65
1352.00,97.66
1351.00,97.68
1350.00,97.71
1349.00,97.75
1348.00,97.78
1347.00,97.81
1346.00,97.83
1345.00,97.85
1344.00,97.87
1343.00,97.90
1342.00,97.94
1341.00,97.97
1340.00,98.00
1339.00,98.03
1338.00,98.06
1337.00,98.08
1336.00,98.09
1335.00,98.09
1334.00,98.09
1333.00,98.10
1332.00,98.11
1331.00,98.12
1330.00,98.13
1329.00,98.14
1328.00,98.15
1327.00,98.16
1326.00,98.16
1325.00,98.16
1324.00,98.16
1323.00,98.15
1322.00,98.15
1321.00,98.15
1320.00,98.14
1319.00,98.14
1318.00,98.14
1317.00,98.14
1316.00,98.15
1315.00,98.15
1314.00,98.14
1313.00,98.13
1312.00,98.12
1311.00,98.11
1310.00,98.11
1309.00,98.12
1308.00,98.13
1307.00,98.13
1306.00,98.12
1305.00,98.11
1304.00,98.10
1303.00,98.09
1302.00,98.08
1301.00,98.08
1300.00,98.09
1299.00,98.09
1298.00,98.08
1297.00,98.06
1296.00,98.05
1295.00,98.04
1294.00,98.03
1293.00,98.01
1292.00,98.00
1291.00,97.99
1290.00,97.99
1289.00,97.99
1288.00,97.98
1287.00,97.97
1286.00,97.95
1285.00,97.93
1284.00,97.90
1283.00,97.87
1282.00,97.86
1281.00,97.84
1280.00,97.83
1279.00,97.81
1278.00,97.80
1277.00,97.79
1276.00,97.78
1275.00,97.76
1274.00,97.74
1273.00,97.71
1272.00,97.68
1271.00,97.64
1270.00,97.61
1269.00,97.59
1268.00,97.57
1267.00,97.56
1266.00,97.55
1265.00,97.53
1264.00,97.51
1263.00,97.48
1262.00,97.45
1261.00,97.42
1260.00,97.39
1259.00,97.35
1258.00,97.32
1257.00,97.28
1256.00,97.25
1255.00,97.23
1254.00,97.20
1253.00,97.17
1252.00,97.15
1251.00,97.12
1250.00,97.10
1249.00,97.08
1248.00,97.06
1247.00,97.04
1246.00,97.03
1245.00,97.01
1244.00,96.99
1243.00,96.98
1242.00,96.98
1241.00,96.98
1240.00,96.97
1239.00,96.96
1238.00,96.96
1237.00,96.96
1236.00,96.96
1235.00,96.95
1234.00,96.93
1233.00,96.92
1232.00,96.91
1231.00,96.89
1230.00,96.88
1229.00,96.87
1228.00,96.87
1227.00,96.85
1226.00,96.83
1225.00,96.81
1224.00,96.81
1223.00,96.81
1222.00,96.80
1221.00,96.78
1220.00,96.76
1219.00,96.74
1218.00,96.73
1217.00,96.72
1216.00,96.70
1215.00,96.68
1214.00,96.66
1213.00,96.65
1212.00,96.64
1211.00,96.63
1210.00,96.63
1209.00,96.63
1208.00,96.65
1207.00,96.67
1206.00,96.70
1205.00,96.71
1204.00,96.70
1203.00,96.69
1202.00,96.68
1201.00,96.70
1200.00,96.72
1199.00,96.73
1198.00,96.72
1197.00,96.71
1196.00,96.71
1195.00,96.73
1194.00,96.76
1193.00,96.79
1192.00,96.80
1191.00,96.81
1190.00,96.80
1189.00,96.80
1188.00,96.80
1187.00,96.81
1186.00,96.81
1185.00,96.80
1184.00,96.78
1183.00,96.76
1182.00,96.76
1181.00,96.78
1180.00,96.80
1179.00,96.83
1178.00,96.85
1177.00,96.87
1176.00,96.90
1175.00,96.92
1174.00,96.95
1173.00,96.97
1172.00,97.00
1171.00,97.04
1170.00,97.08
1169.00,97.11
1168.00,97.13
1167.00,97.17
1166.00,97.21
1165.00,97.24
1164.00,97.26
1163.00,97.26
1162.00,97.27
1161.00,97.30
1160.00,97.35
1159.00,97.41
1158.00,97.45
1157.00,97.47
1156.00,97.48
1155.00,97.50
1154.00,97.51
1153.00,97.52
1152.00,97.52
1151.00,97.52
1150.00,97.54
1149.00,97.56
1148.00,97.57
1147.00,97.56
1146.00,97.55
1145.00,97.54
1144.00,97.55
1143.00,97.56
1142.00,97.57
1141.00,97.58
1140.00,97.59
1139.00,97.61
1138.00,97.62
1137.00,97.62
1136.00,97.62
1135.00,97.63
1134.00,97.63
1133.00,97.64
1132.00,97.62
1131.00,97.60
1130.00,97.58
1129.00,97.59
1128.00,97.61
1127.00,97.63
1126.00,97.63
1125.00,97.62
1124.00,97.60
1123.00,97.57
1122.00,97.51
1121.00,97.46
1120.00,97.41
1119.00,97.38
1118.00,97.35
1117.00,97.32
1116.00,97.30
1115.00,97.28
1114.00,97.26
1113.00,97.22
1112.00,97.17
1111.00,97.11
1110.00,97.04
1109.00,96.95
1108.00,96.87
1107.00,96.80
1106.00,96.76
1105.00,96.70
1104.00,96.62
1103.00,96.54
1102.00,96.46
1101.00,96.39
1100.00,96.31
1099.00,96.23
1098.00,96.16
1097.00,96.12
1096.00,96.09
1095.00,96.04
1094.00,95.98
1093.00,95.92
1092.00,95.88
1091.00,95.86
1090.00,95.83
1089.00,95.77
1088.00,95.69
1087.00,95.61
1086.00,95.54
1085.00,95.48
1084.00,95.43
1083.00,95.36
1082.00,95.29
1081.00,95.23
1080.00,95.19
1079.00,95.15
1078.00,95.10
1077.00,95.06
1076.00,95.01
1075.00,94.98
1074.00,94.96
1073.00,94.94
1072.00,94.93
1071.00,94.91
1070.00,94.87
1069.00,94.83
1068.00,94.81
1067.00,94.81
1066.00,94.80
1065.00,94.78
1064.00,94.74
1063.00,94.73
1062.00,94.76
1061.00,94.79
1060.00,94.82
1059.00,94.82
1058.00,94.82
1057.00,94.81
1056.00,94.84
1055.00,94.89
1054.00,94.94
1053.00,94.97
1052.00,94.99
1051.00,94.99
1050.00,94.97
1049.00,94.91
1048.00,94.83
1047.00,94.77
1046.00,94.71
1045.00,94.67
1044.00,94.64
1043.00,94.62
1042.00,94.61
1041.00,94.61
1040.00,94.61
1039.00,94.63
1038.00,94.68
1037.00,94.75
1036.00,94.86
1035.00,94.99
1034.00,95.13
1033.00,95.28
1032.00,95.42
1031.00,95.54
1030.00,95.66
1029.00,95.74
1028.00,95.80
1027.00,95.85
1026.00,95.88
1025.00,95.91
1024.00,95.96
1023.00,96.02
1022.00,96.09
1021.00,96.16
1020.00,96.23
1019.00,96.30
1018.00,96.35
1017.00,96.37
1016.00,96.38
1015.00,96.38
1014.00,96.38
1013.00,96.40
1012.00,96.43
1011.00,96.46
1010.00,96.48
1009.00,96.50
1008.00,96.51
1007.00,96.53
1006.00,96.54
1005.00,96.53
1004.00,96.52
1003.00,96.51
1002.00,96.52
1001.00,96.54
1000.00,96.57
999.00,96.59
998.00,96.60
997.00,96.60
996.00,96.61
995.00,96.63
994.00,96.66
993.00,96.68
992.00,96.69
991.00,96.70
990.00,96.72
989.00,96.73
988.00,96.73
987.00,96.75
986.00,96.77
985.00,96.79
984.00,96.81
983.00,96.83
982.00,96.82
981.00,96.81
980.00,96.80
979.00,96.79
978.00,96.79
977.00,96.79
976.00,96.78
975.00,96.77
974.00,96.78
973.00,96.80
972.00,96.80
971.00,96.78
970.00,96.76
969.00,96.75
968.00,96.75
967.00,96.76
966.00,96.77
965.00,96.78
964.00,96.80
963.00,96.83
962.00,96.84
961.00,96.85
960.00,96.85
959.00,96.85
958.00,96.85
957.00,96.85
956.00,96.85
955.00,96.86
954.00,96.87
953.00,96.86
952.00,96.84
951.00,96.82
950.00,96.80
949.00,96.77
948.00,96.75
947.00,96.71
946.00,96.69
945.00,96.69
944.00,96.70
943.00,96.71
942.00,96.73
941.00,96.74
940.00,96.75
939.00,96.73
938.00,96.71
937.00,96.70
936.00,96.71
935.00,96.72
934.00,96.73
933.00,96.73
932.00,96.72
931.00,96.72
930.00,96.71
929.00,96.70
928.00,96.70
927.00,96.71
926.00,96.73
925.00,96.74
924.00,96.74
923.00,96.73
922.00,96.72
921.00,96.72
920.00,96.73
919.00,96.73
918.00,96.73
917.00,96.72
916.00,96.72
915.00,96.73
914.00,96.74
913.00,96.74
912.00,96.74
911.00,96.75
910.00,96.75
909.00,96.76
908.00,96.75
907.00,96.74
906.00,96.74
905.00,96.76
904.00,96.78
903.00,96.80
902.00,96.82
901.00,96.81
900.00,96.78
899.00,96.78
898.00,96.81
897.00,96.84
896.00,96.84
895.00,96.82
894.00,96.80
893.00,96.78
892.00,96.77
891.00,96.77
890.00,96.79
889.00,96.83
888.00,96.88
887.00,96.91
886.00,96.91
885.00,96.90
884.00,96.91
883.00,96.94
882.00,96.97
881.00,96.99
880.00,96.98
879.00,96.95
878.00,96.93
877.00,96.93
876.00,96.94
875.00,96.95
874.00,96.96
873.00,96.98
872.00,97.00
871.00,97.03
870.00,97.04
869.00,97.02
868.00,96.99
867.00,96.96
866.00,96.95
865.00,96.95
864.00,96.96
863.00,96.99
862.00,97.01
861.00,97.03
860.00,97.05
859.00,97.07
858.00,97.10
857.00,97.12
856.00,97.14
855.00,97.15
854.00,97.14
853.00,97.13
852.00,97.10
851.00,97.08
850.00,97.07
849.00,97.08
848.00,97.08
847.00,97.08
846.00,97.10
845.00,97.15
844.00,97.19
843.00,97.19
842.00,97.13
841.00,97.05
840.00,97.00
839.00,97.00
838.00,97.03
837.00,97.08
836.00,97.11
835.00,97.10
834.00,97.04
833.00,96.98
832.00,96.96
831.00,96.98
830.00,97.02
829.00,97.04
828.00,97.04
827.00,97.01
826.00,96.95
825.00,96.89
824.00,96.88
823.00,96.91
822.00,96.96
821.00,97.00
820.00,97.01
819.00,96.99
818.00,96.95
817.00,96.91
816.00,96.89
815.00,96.88
814.00,96.89
813.00,96.90
812.00,96.89
811.00,96.89
810.00,96.89
809.00,96.89
808.00,96.89
807.00,96.89
806.00,96.87
805.00,96.84
804.00,96.81
803.00,96.79
802.00,96.77
801.00,96.77
800.00,96.79
799.00,96.84
798.00,96.88
797.00,96.89
796.00,96.89
795.00,96.88
794.00,96.88
793.00,96.88
792.00,96.88
791.00,96.88
790.00,96.87
789.00,96.85
788.00,96.82
787.00,96.81
786.00,96.82
785.00,96.82
784.00,96.80
783.00,96.76
782.00,96.74
781.00,96.72
780.00,96.72
779.00,96.71
778.00,96.71
777.00,96.71
776.00,96.70
775.00,96.67
774.00,96.66
773.00,96.66
772.00,96.68
771.00,96.71
770.00,96.72
769.00,96.73
768.00,96.74
767.00,96.75
766.00,96.77
765.00,96.77
764.00,96.76
763.00,96.73
762.00,96.70
761.00,96.67
760.00,96.66
759.00,96.67
758.00,96.69
757.00,96.68
756.00,96.65
755.00,96.60
754.00,96.57
753.00,96.56
752.00,96.56
751.00,96.56
750.00,96.54
749.00,96.53
748.00,96.54
747.00,96.56
746.00,96.58
745.00,96.55
744.00,96.48
743.00,96.42
742.00,96.41
741.00,96.45
740.00,96.48
739.00,96.48
738.00,96.43
737.00,96.38
736.00,96.32
735.00,96.28
734.00,96.25
733.00,96.21
732.00,96.15
731.00,96.09
730.00,96.02
729.00,95.97
728.00,95.92
727.00,95.87
726.00,95.84
725.00,95.83
724.00,95.84
723.00,95.85
722.00,95.84
721.00,95.81
720.00,95.75
719.00,95.69
718.00,95.64
717.00,95.58
716.00,95.50
715.00,95.40
714.00,95.30
713.00,95.22
712.00,95.17
711.00,95.15
710.00,95.18
709.00,95.24
708.00,95.29
707.00,95.31
706.00,95.32
705.00,95.32
704.00,95.32
703.00,95.33
702.00,95.35
701.00,95.39
700.00,95.44
699.00,95.47
698.00,95.46
697.00,95.39
696.00,95.30
695.00,95.22
694.00,95.18
693.00,95.17
692.00,95.18
691.00,95.22
690.00,95.27
689.00,95.29
688.00,95.27
687.00,95.21
686.00,95.18
685.00,95.21
684.00,95.27
683.00,95.33
682.00,95.31
681.00,95.22
680.00,95.09
679.00,94.95
678.00,94.84
677.00,94.72
676.00,94.58
675.00,94.40
674.00,94.25
673.00,94.16
672.00,94.15
671.00,94.23
670.00,94.36
669.00,94.47
668.00,94.45
667.00,94.26
666.00,94.05
665.00,93.90
664.00,93.80
663.00,93.73
662.00,93.65
661.00,93.52
660.00,93.34
659.00,93.13
658.00,92.97
657.00,92.88
656.00,92.84
655.00,92.82
654.00,92.81
653.00,92.79
652.00,92.77
651.00,92.78
650.00,92.80
649.00,92.82
648.00,92.83
647.00,92.80
646.00,92.74
645.00,92.65
644.00,92.57
643.00,92.51
642.00,92.42
641.00,92.23
640.00,91.92
639.00,91.64
638.00,91.54
637.00,91.59
636.00,91.69
635.00,91.77
634.00,91.81
633.00,91.85
632.00,91.94
631.00,92.12
630.00,92.39
629.00,92.62
628.00,92.71
627.00,92.65
626.00,92.55
625.00,92.50
624.00,92.49
623.00,92.41
622.00,92.24
621.00,92.05
620.00,91.95
619.00,92.00
618.00,92.11
617.00,92.16
616.00,92.11
615.00,92.03
614.00,92.03
613.00,92.13
612.00,92.31
611.00,92.55
610.00,92.75
609.00,92.85
608.00,92.82
607.00,92.71
606.00,92.63
605.00,92.63
604.00,92.67
603.00,92.67
602.00,92.63
601.00,92.63
600.00,92.74
599.00,92.90
598.00,92.96
597.00,92.88
596.00,92.80
595.00,92.88
594.00,93.08
593.00,93.27
592.00,93.40
591.00,93.51
590.00,93.61
589.00,93.64
588.00,93.60
587.00,93.44
586.00,93.11
585.00,92.71
584.00,92.54
583.00,92.88
582.00,93.54
581.00,93.96
580.00,93.83
579.00,93.37
578.00,93.08
577.00,93.19
576.00,93.55
575.00,93.89
574.00,93.86
573.00,93.39
572.00,92.75
571.00,92.41
570.00,92.48
569.00,92.63
568.00,92.54
567.00,92.28
566.00,92.23
565.00,92.62
564.00,93.31
563.00,93.97
562.00,94.28
561.00,94.28
560.00,94.28
559.00,94.36
558.00,94.32
557.00,93.99
556.00,93.63
555.00,93.59
554.00,93.96
553.00,94.46
552.00,94.94
551.00,95.34
550.00,95.48
