Created as New Dataset,71 Waxman
cm-1,%T
4000.00,100.02
3999.00,100.02
3998.00,100.02
3997.00,100.03
3996.00,100.02
3995.00,100.00
3994.00,99.97
3993.00,99.96
3992.00,99.95
3991.00,99.97
3990.00,99.98
3989.00,99.99
3988.00,100.00
3987.00,100.00
3986.00,100.01
3985.00,100.01
3984.00,100.01
3983.00,100.01
3982.00,100.00
3981.00,99.98
3980.00,99.97
3979.00,99.95
3978.00,99.96
3977.00,99.97
3976.00,100.00
3975.00,100.02
3974.00,100.03
3973.00,100.04
3972.00,100.04
3971.00,100.03
3970.00,100.03
3969.00,100.02
3968.00,100.01
3967.00,100.00
3966.00,99.99
3965.00,100.00
3964.00,100.01
3963.00,100.01
3962.00,100.01
3961.00,100.00
3960.00,99.99
3959.00,99.99
3958.00,99.99
3957.00,100.01
3956.00,100.03
3955.00,100.05
3954.00,100.06
3953.00,100.06
3952.00,100.03
3951.00,100.00
3950.00,99.98
3949.00,99.98
3948.00,99.99
3947.00,100.01
3946.00,100.02
3945.00,100.04
3944.00,100.04
3943.00,100.04
3942.00,100.04
3941.00,100.02
3940.00,100.01
3939.00,100.00
3938.00,100.00
3937.00,99.99
3936.00,99.98
3935.00,99.98
3934.00,99.97
3933.00,99.97
3932.00,99.98
3931.00,99.98
3930.00,99.99
3929.00,99.98
3928.00,99.96
3927.00,99.94
3926.00,99.93
3925.00,99.92
3924.00,99.92
3923.00,99.93
3922.00,99.93
3921.00,99.93
3920.00,99.93
3919.00,99.93
3918.00,99.93
3917.00,99.94
3916.00,99.94
3915.00,99.94
3914.00,99.95
3913.00,99.97
3912.00,99.98
3911.00,99.98
3910.00,99.97
3909.00,99.96
3908.00,99.95
3907.00,99.93
3906.00,99.91
3905.00,99.88
3904.00,99.86
3903.00,99.85
3902.00,99.85
3901.00,99.87
3900.00,99.89
3899.00,99.91
3898.00,99.93
3897.00,99.94
3896.00,99.96
3895.00,99.97
3894.00,99.98
3893.00,100.00
3892.00,100.01
3891.00,100.01
3890.00,100.01
3889.00,99.99
3888.00,99.98
3887.00,99.97
3886.00,99.97
3885.00,99.97
3884.00,99.97
3883.00,99.97
3882.00,99.96
3881.00,99.95
3880.00,99.92
3879.00,99.90
3878.00,99.89
3877.00,99.88
3876.00,99.88
3875.00,99.87
3874.00,99.86
3873.00,99.85
3872.00,99.87
3871.00,99.90
3870.00,99.91
3869.00,99.91
3868.00,99.88
3867.00,99.85
3866.00,99.85
3865.00,99.85
3864.00,99.87
3863.00,99.89
3862.00,99.90
3861.00,99.90
3860.00,99.90
3859.00,99.90
3858.00,99.90
3857.00,99.91
3856.00,99.91
3855.00,99.91
3854.00,99.91
3853.00,99.91
3852.00,99.91
3851.00,99.91
3850.00,99.91
3849.00,99.91
3848.00,99.90
3847.00,99.89
3846.00,99.89
3845.00,99.89
3844.00,99.89
3843.00,99.89
3842.00,99.88
3841.00,99.88
3840.00,99.88
3839.00,99.89
3838.00,99.88
3837.00,99.85
3836.00,99.83
3835.00,99.82
3834.00,99.83
3833.00,99.85
3832.00,99.86
3831.00,99.87
3830.00,99.87
3829.00,99.87
3828.00,99.87
3827.00,99.89
3826.00,99.90
3825.00,99.90
3824.00,99.89
3823.00,99.86
3822.00,99.82
3821.00,99.81
3820.00,99.81
3819.00,99.84
3818.00,99.88
3817.00,99.90
3816.00,99.90
3815.00,99.88
3814.00,99.85
3813.00,99.85
3812.00,99.85
3811.00,99.86
3810.00,99.86
3809.00,99.86
3808.00,99.86
3807.00,99.84
3806.00,99.83
3805.00,99.81
3804.00,99.80
3803.00,99.80
3802.00,99.80
3801.00,99.79
3800.00,99.78
3799.00,99.78
3798.00,99.80
3797.00,99.84
3796.00,99.86
3795.00,99.86
3794.00,99.85
3793.00,99.84
3792.00,99.85
3791.00,99.86
3790.00,99.87
3789.00,99.88
3788.00,99.89
3787.00,99.89
3786.00,99.88
3785.00,99.86
3784.00,99.84
3783.00,99.82
3782.00,99.80
3781.00,99.80
3780.00,99.82
3779.00,99.83
3778.00,99.83
3777.00,99.83
3776.00,99.84
3775.00,99.84
3774.00,99.83
3773.00,99.82
3772.00,99.80
3771.00,99.77
3770.00,99.74
3769.00,99.72
3768.00,99.72
3767.00,99.73
3766.00,99.75
3765.00,99.77
3764.00,99.78
3763.00,99.77
3762.00,99.74
3761.00,99.72
3760.00,99.71
3759.00,99.71
3758.00,99.72
3757.00,99.74
3756.00,99.76
3755.00,99.79
3754.00,99.81
3753.00,99.81
3752.00,99.79
3751.00,99.74
3750.00,99.71
3749.00,99.68
3748.00,99.66
3747.00,99.64
3746.00,99.65
3745.00,99.67
3744.00,99.70
3743.00,99.70
3742.00,99.68
3741.00,99.66
3740.00,99.64
3739.00,99.64
3738.00,99.65
3737.00,99.68
3736.00,99.71
3735.00,99.73
3734.00,99.74
3733.00,99.75
3732.00,99.75
3731.00,99.73
3730.00,99.69
3729.00,99.65
3728.00,99.61
3727.00,99.59
3726.00,99.57
3725.00,99.57
3724.00,99.59
3723.00,99.60
3722.00,99.61
3721.00,99.62
3720.00,99.63
3719.00,99.64
3718.00,99.65
3717.00,99.66
3716.00,99.66
3715.00,99.66
3714.00,99.65
3713.00,99.65
3712.00,99.64
3711.00,99.65
3710.00,99.66
3709.00,99.67
3708.00,99.67
3707.00,99.66
3706.00,99.65
3705.00,99.64
3704.00,99.63
3703.00,99.63
3702.00,99.62
3701.00,99.62
3700.00,99.62
3699.00,99.62
3698.00,99.64
3697.00,99.66
3696.00,99.68
3695.00,99.70
3694.00,99.70
3693.00,99.69
3692.00,99.67
3691.00,99.64
3690.00,99.62
3689.00,99.60
3688.00,99.60
3687.00,99.60
3686.00,99.61
3685.00,99.62
3684.00,99.62
3683.00,99.62
3682.00,99.61
3681.00,99.60
3680.00,99.59
3679.00,99.57
3678.00,99.53
3677.00,99.49
3676.00,99.47
3675.00,99.48
3674.00,99.51
3673.00,99.55
3672.00,99.59
3671.00,99.59
3670.00,99.56
3669.00,99.52
3668.00,99.50
3667.00,99.49
3666.00,99.51
3665.00,99.52
3664.00,99.53
3663.00,99.52
3662.00,99.50
3661.00,99.48
3660.00,99.48
3659.00,99.48
3658.00,99.48
3657.00,99.47
3656.00,99.44
3655.00,99.39
3654.00,99.35
3653.00,99.34
3652.00,99.35
3651.00,99.37
3650.00,99.38
3649.00,99.36
3648.00,99.35
3647.00,99.34
3646.00,99.34
3645.00,99.34
3644.00,99.35
3643.00,99.38
3642.00,99.40
3641.00,99.40
3640.00,99.39
3639.00,99.36
3638.00,99.34
3637.00,99.32
3636.00,99.31
3635.00,99.32
3634.00,99.33
3633.00,99.33
3632.00,99.33
3631.00,99.32
3630.00,99.29
3629.00,99.25
3628.00,99.23
3627.00,99.24
3626.00,99.27
3625.00,99.31
3624.00,99.34
3623.00,99.34
3622.00,99.32
3621.00,99.31
3620.00,99.31
3619.00,99.33
3618.00,99.34
3617.00,99.35
3616.00,99.34
3615.00,99.34
3614.00,99.36
3613.00,99.38
3612.00,99.40
3611.00,99.39
3610.00,99.37
3609.00,99.34
3608.00,99.32
3607.00,99.30
3606.00,99.29
3605.00,99.30
3604.00,99.31
3603.00,99.33
3602.00,99.35
3601.00,99.36
3600.00,99.38
3599.00,99.39
3598.00,99.39
3597.00,99.38
3596.00,99.37
3595.00,99.36
3594.00,99.35
3593.00,99.35
3592.00,99.35
3591.00,99.35
3590.00,99.33
3589.00,99.32
3588.00,99.32
3587.00,99.33
3586.00,99.36
3585.00,99.39
3584.00,99.40
3583.00,99.39
3582.00,99.37
3581.00,99.37
3580.00,99.38
3579.00,99.39
3578.00,99.39
3577.00,99.36
3576.00,99.33
3575.00,99.31
3574.00,99.31
3573.00,99.31
3572.00,99.32
3571.00,99.32
3570.00,99.31
3569.00,99.29
3568.00,99.27
3567.00,99.24
3566.00,99.22
3565.00,99.22
3564.00,99.23
3563.00,99.26
3562.00,99.29
3561.00,99.32
3560.00,99.34
3559.00,99.35
3558.00,99.36
3557.00,99.36
3556.00,99.35
3555.00,99.35
3554.00,99.35
3553.00,99.36
3552.00,99.38
3551.00,99.40
3550.00,99.40
3549.00,99.38
3548.00,99.35
3547.00,99.30
3546.00,99.27
3545.00,99.24
3544.00,99.23
3543.00,99.22
3542.00,99.22
3541.00,99.23
3540.00,99.26
3539.00,99.30
3538.00,99.33
3537.00,99.36
3536.00,99.38
3535.00,99.39
3534.00,99.39
3533.00,99.37
3532.00,99.33
3531.00,99.29
3530.00,99.26
3529.00,99.27
3528.00,99.28
3527.00,99.28
3526.00,99.28
3525.00,99.27
3524.00,99.27
3523.00,99.26
3522.00,99.26
3521.00,99.27
3520.00,99.29
3519.00,99.30
3518.00,99.30
3517.00,99.31
3516.00,99.31
3515.00,99.32
3514.00,99.33
3513.00,99.34
3512.00,99.35
3511.00,99.34
3510.00,99.33
3509.00,99.30
3508.00,99.29
3507.00,99.28
3506.00,99.27
3505.00,99.26
3504.00,99.24
3503.00,99.23
3502.00,99.23
3501.00,99.25
3500.00,99.28
3499.00,99.29
3498.00,99.29
3497.00,99.27
3496.00,99.25
3495.00,99.23
3494.00,99.22
3493.00,99.24
3492.00,99.25
3491.00,99.27
3490.00,99.27
3489.00,99.27
3488.00,99.27
3487.00,99.27
3486.00,99.27
3485.00,99.28
3484.00,99.28
3483.00,99.28
3482.00,99.27
3481.00,99.27
3480.00,99.27
3479.00,99.28
3478.00,99.28
3477.00,99.28
3476.00,99.29
3475.00,99.30
3474.00,99.31
3473.00,99.32
3472.00,99.32
3471.00,99.31
3470.00,99.29
3469.00,99.28
3468.00,99.27
3467.00,99.26
3466.00,99.26
3465.00,99.27
3464.00,99.29
3463.00,99.31
3462.00,99.33
3461.00,99.34
3460.00,99.33
3459.00,99.31
3458.00,99.29
3457.00,99.27
3456.00,99.25
3455.00,99.26
3454.00,99.27
3453.00,99.28
3452.00,99.28
3451.00,99.27
3450.00,99.27
3449.00,99.28
3448.00,99.30
3447.00,99.31
3446.00,99.31
3445.00,99.31
3444.00,99.31
3443.00,99.33
3442.00,99.35
3441.00,99.36
3440.00,99.35
3439.00,99.32
3438.00,99.28
3437.00,99.24
3436.00,99.22
3435.00,99.22
3434.00,99.23
3433.00,99.25
3432.00,99.28
3431.00,99.31
3430.00,99.32
3429.00,99.31
3428.00,99.30
3427.00,99.28
3426.00,99.27
3425.00,99.27
3424.00,99.26
3423.00,99.26
3422.00,99.27
3421.00,99.28
3420.00,99.28
3419.00,99.28
3418.00,99.29
3417.00,99.30
3416.00,99.31
3415.00,99.32
3414.00,99.31
3413.00,99.29
3412.00,99.27
3411.00,99.25
3410.00,99.25
3409.00,99.25
3408.00,99.26
3407.00,99.28
3406.00,99.29
3405.00,99.28
3404.00,99.27
3403.00,99.25
3402.00,99.25
3401.00,99.25
3400.00,99.25
3399.00,99.26
3398.00,99.27
3397.00,99.29
3396.00,99.31
3395.00,99.33
3394.00,99.33
3393.00,99.32
3392.00,99.31
3391.00,99.30
3390.00,99.28
3389.00,99.26
3388.00,99.24
3387.00,99.24
3386.00,99.23
3385.00,99.23
3384.00,99.23
3383.00,99.23
3382.00,99.24
3381.00,99.24
3380.00,99.25
3379.00,99.25
3378.00,99.26
3377.00,99.27
3376.00,99.28
3375.00,99.29
3374.00,99.31
3373.00,99.32
3372.00,99.33
3371.00,99.32
3370.00,99.30
3369.00,99.27
3368.00,99.25
3367.00,99.24
3366.00,99.24
3365.00,99.24
3364.00,99.24
3363.00,99.25
3362.00,99.25
3361.00,99.25
3360.00,99.25
3359.00,99.27
3358.00,99.29
3357.00,99.30
3356.00,99.31
3355.00,99.30
3354.00,99.29
3353.00,99.29
3352.00,99.29
3351.00,99.29
3350.00,99.30
3349.00,99.31
3348.00,99.33
3347.00,99.35
3346.00,99.36
3345.00,99.36
3344.00,99.33
3343.00,99.30
3342.00,99.28
3341.00,99.27
3340.00,99.27
3339.00,99.26
3338.00,99.26
3337.00,99.26
3336.00,99.26
3335.00,99.26
3334.00,99.25
3333.00,99.25
3332.00,99.25
3331.00,99.25
3330.00,99.26
3329.00,99.27
3328.00,99.26
3327.00,99.24
3326.00,99.24
3325.00,99.25
3324.00,99.27
3323.00,99.29
3322.00,99.29
3321.00,99.30
3320.00,99.30
3319.00,99.29
3318.00,99.29
3317.00,99.28
3316.00,99.27
3315.00,99.26
3314.00,99.25
3313.00,99.24
3312.00,99.24
3311.00,99.23
3310.00,99.23
3309.00,99.25
3308.00,99.28
3307.00,99.31
3306.00,99.32
3305.00,99.31
3304.00,99.30
3303.00,99.29
3302.00,99.27
3301.00,99.25
3300.00,99.23
3299.00,99.22
3298.00,99.22
3297.00,99.22
3296.00,99.22
3295.00,99.23
3294.00,99.23
3293.00,99.23
3292.00,99.23
3291.00,99.23
3290.00,99.23
3289.00,99.24
3288.00,99.24
3287.00,99.25
3286.00,99.25
3285.00,99.25
3284.00,99.25
3283.00,99.24
3282.00,99.25
3281.00,99.25
3280.00,99.25
3279.00,99.23
3278.00,99.21
3277.00,99.20
3276.00,99.19
3275.00,99.19
3274.00,99.20
3273.00,99.20
3272.00,99.20
3271.00,99.20
3270.00,99.19
3269.00,99.20
3268.00,99.21
3267.00,99.22
3266.00,99.22
3265.00,99.21
3264.00,99.20
3263.00,99.21
3262.00,99.22
3261.00,99.25
3260.00,99.27
3259.00,99.28
3258.00,99.28
3257.00,99.27
3256.00,99.25
3255.00,99.24
3254.00,99.23
3253.00,99.23
3252.00,99.22
3251.00,99.22
3250.00,99.21
3249.00,99.21
3248.00,99.21
3247.00,99.21
3246.00,99.22
3245.00,99.22
3244.00,99.22
3243.00,99.23
3242.00,99.25
3241.00,99.27
3240.00,99.28
3239.00,99.28
3238.00,99.27
3237.00,99.26
3236.00,99.24
3235.00,99.23
3234.00,99.23
3233.00,99.23
3232.00,99.24
3231.00,99.25
3230.00,99.25
3229.00,99.25
3228.00,99.24
3227.00,99.23
3226.00,99.22
3225.00,99.20
3224.00,99.19
3223.00,99.20
3222.00,99.22
3221.00,99.24
3220.00,99.25
3219.00,99.25
3218.00,99.24
3217.00,99.24
3216.00,99.23
3215.00,99.22
3214.00,99.21
3213.00,99.21
3212.00,99.22
3211.00,99.23
3210.00,99.24
3209.00,99.24
3208.00,99.24
3207.00,99.24
3206.00,99.25
3205.00,99.26
3204.00,99.26
3203.00,99.25
3202.00,99.24
3201.00,99.24
3200.00,99.23
3199.00,99.23
3198.00,99.22
3197.00,99.21
3196.00,99.21
3195.00,99.21
3194.00,99.20
3193.00,99.20
3192.00,99.20
3191.00,99.21
3190.00,99.22
3189.00,99.23
3188.00,99.23
3187.00,99.22
3186.00,99.21
3185.00,99.21
3184.00,99.22
3183.00,99.24
3182.00,99.26
3181.00,99.26
3180.00,99.25
3179.00,99.23
3178.00,99.21
3177.00,99.20
3176.00,99.20
3175.00,99.20
3174.00,99.21
3173.00,99.22
3172.00,99.22
3171.00,99.22
3170.00,99.21
3169.00,99.21
3168.00,99.21
3167.00,99.21
3166.00,99.22
3165.00,99.21
3164.00,99.20
3163.00,99.20
3162.00,99.21
3161.00,99.21
3160.00,99.22
3159.00,99.24
3158.00,99.25
3157.00,99.26
3156.00,99.28
3155.00,99.28
3154.00,99.27
3153.00,99.25
3152.00,99.22
3151.00,99.21
3150.00,99.20
3149.00,99.21
3148.00,99.21
3147.00,99.22
3146.00,99.23
3145.00,99.24
3144.00,99.24
3143.00,99.25
3142.00,99.26
3141.00,99.27
3140.00,99.27
3139.00,99.27
3138.00,99.26
3137.00,99.26
3136.00,99.25
3135.00,99.23
3134.00,99.21
3133.00,99.19
3132.00,99.19
3131.00,99.19
3130.00,99.20
3129.00,99.20
3128.00,99.19
3127.00,99.18
3126.00,99.19
3125.00,99.21
3124.00,99.24
3123.00,99.27
3122.00,99.28
3121.00,99.28
3120.00,99.28
3119.00,99.27
3118.00,99.25
3117.00,99.24
3116.00,99.23
3115.00,99.24
3114.00,99.24
3113.00,99.25
3112.00,99.25
3111.00,99.24
3110.00,99.24
3109.00,99.23
3108.00,99.24
3107.00,99.24
3106.00,99.23
3105.00,99.22
3104.00,99.22
3103.00,99.22
3102.00,99.22
3101.00,99.22
3100.00,99.22
3099.00,99.21
3098.00,99.20
3097.00,99.21
3096.00,99.23
3095.00,99.25
3094.00,99.26
3093.00,99.26
3092.00,99.25
3091.00,99.23
3090.00,99.21
3089.00,99.19
3088.00,99.18
3087.00,99.17
3086.00,99.16
3085.00,99.16
3084.00,99.17
3083.00,99.19
3082.00,99.20
3081.00,99.19
3080.00,99.19
3079.00,99.18
3078.00,99.19
3077.00,99.21
3076.00,99.20
3075.00,99.19
3074.00,99.17
3073.00,99.15
3072.00,99.16
3071.00,99.17
3070.00,99.17
3069.00,99.16
3068.00,99.15
3067.00,99.15
3066.00,99.17
3065.00,99.17
3064.00,99.16
3063.00,99.15
3062.00,99.13
3061.00,99.12
3060.00,99.12
3059.00,99.12
3058.00,99.13
3057.00,99.14
3056.00,99.15
3055.00,99.16
3054.00,99.15
3053.00,99.15
3052.00,99.15
3051.00,99.16
3050.00,99.16
3049.00,99.17
3048.00,99.17
3047.00,99.17
3046.00,99.16
3045.00,99.15
3044.00,99.15
3043.00,99.16
3042.00,99.16
3041.00,99.17
3040.00,99.17
3039.00,99.17
3038.00,99.17
3037.00,99.16
3036.00,99.14
3035.00,99.13
3034.00,99.12
3033.00,99.13
3032.00,99.14
3031.00,99.16
3030.00,99.16
3029.00,99.15
3028.00,99.13
3027.00,99.11
3026.00,99.10
3025.00,99.09
3024.00,99.08
3023.00,99.08
3022.00,99.09
3021.00,99.10
3020.00,99.11
3019.00,99.11
3018.00,99.11
3017.00,99.10
3016.00,99.09
3015.00,99.08
3014.00,99.08
3013.00,99.08
3012.00,99.07
3011.00,99.05
3010.00,99.04
3009.00,99.03
3008.00,99.02
3007.00,99.01
3006.00,99.00
3005.00,99.00
3004.00,99.00
3003.00,99.01
3002.00,99.02
3001.00,99.03
3000.00,99.03
2999.00,99.02
2998.00,99.00
2997.00,98.97
2996.00,98.96
2995.00,98.95
2994.00,98.95
2993.00,98.95
2992.00,98.95
2991.00,98.95
2990.00,98.94
2989.00,98.93
2988.00,98.91
2987.00,98.89
2986.00,98.88
2985.00,98.86
2984.00,98.86
2983.00,98.85
2982.00,98.85
2981.00,98.84
2980.00,98.82
2979.00,98.80
2978.00,98.77
2977.00,98.73
2976.00,98.67
2975.00,98.62
2974.00,98.58
2973.00,98.55
2972.00,98.53
2971.00,98.51
2970.00,98.48
2969.00,98.45
2968.00,98.43
2967.00,98.42
2966.00,98.40
2965.00,98.38
2964.00,98.34
2963.00,98.30
2962.00,98.26
2961.00,98.23
2960.00,98.22
2959.00,98.21
2958.00,98.21
2957.00,98.20
2956.00,98.19
2955.00,98.18
2954.00,98.17
2953.00,98.17
2952.00,98.18
2951.00,98.18
2950.00,98.16
2949.00,98.14
2948.00,98.12
2947.00,98.10
2946.00,98.07
2945.00,98.03
2944.00,97.99
2943.00,97.95
2942.00,97.92
2941.00,97.89
2940.00,97.87
2939.00,97.85
2938.00,97.82
2937.00,97.79
2936.00,97.76
2935.00,97.73
2934.00,97.70
2933.00,97.67
2932.00,97.64
2931.00,97.62
2930.00,97.60
2929.00,97.58
2928.00,97.56
2927.00,97.55
2926.00,97.53
2925.00,97.52
2924.00,97.52
2923.00,97.52
2922.00,97.51
2921.00,97.50
2920.00,97.50
2919.00,97.51
2918.00,97.53
2917.00,97.56
2916.00,97.60
2915.00,97.64
2914.00,97.69
2913.00,97.74
2912.00,97.79
2911.00,97.84
2910.00,97.90
2909.00,97.96
2908.00,98.02
2907.00,98.08
2906.00,98.14
2905.00,98.21
2904.00,98.27
2903.00,98.33
2902.00,98.38
2901.00,98.43
2900.00,98.47
2899.00,98.51
2898.00,98.54
2897.00,98.57
2896.00,98.60
2895.00,98.62
2894.00,98.63
2893.00,98.63
2892.00,98.63
2891.00,98.63
2890.00,98.64
2889.00,98.65
2888.00,98.67
2887.00,98.68
2886.00,98.70
2885.00,98.71
2884.00,98.71
2883.00,98.71
2882.00,98.70
2881.00,98.70
2880.00,98.71
2879.00,98.71
2878.00,98.73
2877.00,98.74
2876.00,98.74
2875.00,98.74
2874.00,98.72
2873.00,98.71
2872.00,98.70
2871.00,98.70
2870.00,98.70
2869.00,98.70
2868.00,98.70
2867.00,98.70
2866.00,98.70
2865.00,98.71
2864.00,98.72
2863.00,98.71
2862.00,98.70
2861.00,98.68
2860.00,98.67
2859.00,98.66
2858.00,98.64
2857.00,98.63
2856.00,98.62
2855.00,98.62
2854.00,98.61
2853.00,98.61
2852.00,98.60
2851.00,98.60
2850.00,98.60
2849.00,98.61
2848.00,98.63
2847.00,98.66
2846.00,98.70
2845.00,98.72
2844.00,98.74
2843.00,98.74
2842.00,98.74
2841.00,98.75
2840.00,98.76
2839.00,98.77
2838.00,98.78
2837.00,98.80
2836.00,98.83
2835.00,98.85
2834.00,98.87
2833.00,98.89
2832.00,98.91
2831.00,98.94
2830.00,98.97
2829.00,98.97
2828.00,98.96
2827.00,98.94
2826.00,98.92
2825.00,98.91
2824.00,98.90
2823.00,98.90
2822.00,98.89
2821.00,98.90
2820.00,98.92
2819.00,98.94
2818.00,98.95
2817.00,98.96
2816.00,98.97
2815.00,98.98
2814.00,98.98
2813.00,98.99
2812.00,98.98
2811.00,98.98
2810.00,98.99
2809.00,99.00
2808.00,99.01
2807.00,99.02
2806.00,99.01
2805.00,99.00
2804.00,98.98
2803.00,98.97
2802.00,98.97
2801.00,98.98
2800.00,99.00
2799.00,99.01
2798.00,99.02
2797.00,99.01
2796.00,99.00
2795.00,98.99
2794.00,98.98
2793.00,98.98
2792.00,98.99
2791.00,99.01
2790.00,99.02
2789.00,99.02
2788.00,99.02
2787.00,99.01
2786.00,99.00
2785.00,99.01
2784.00,99.01
2783.00,99.02
2782.00,99.01
2781.00,99.00
2780.00,98.99
2779.00,99.00
2778.00,99.00
2777.00,99.00
2776.00,99.00
2775.00,99.01
2774.00,99.02
2773.00,99.03
2772.00,99.03
2771.00,99.04
2770.00,99.04
2769.00,99.05
2768.00,99.05
2767.00,99.05
2766.00,99.05
2765.00,99.05
2764.00,99.05
2763.00,99.04
2762.00,99.03
2761.00,99.01
2760.00,99.01
2759.00,99.01
2758.00,99.00
2757.00,99.01
2756.00,99.01
2755.00,99.02
2754.00,99.03
2753.00,99.04
2752.00,99.05
2751.00,99.05
2750.00,99.04
2749.00,99.03
2748.00,99.02
2747.00,99.01
2746.00,99.01
2745.00,99.02
2744.00,99.03
2743.00,99.03
2742.00,99.03
2741.00,99.01
2740.00,98.99
2739.00,98.98
2738.00,98.98
2737.00,98.98
2736.00,98.99
2735.00,99.01
2734.00,99.01
2733.00,99.02
2732.00,99.01
2731.00,98.99
2730.00,98.97
2729.00,98.96
2728.00,98.96
2727.00,98.97
2726.00,98.99
2725.00,99.01
2724.00,99.02
2723.00,99.02
2722.00,99.01
2721.00,99.00
2720.00,99.00
2719.00,99.01
2718.00,99.02
2717.00,99.03
2716.00,99.03
2715.00,99.02
2714.00,99.00
2713.00,98.98
2712.00,98.97
2711.00,98.96
2710.00,98.95
2709.00,98.96
2708.00,98.97
2707.00,98.97
2706.00,98.98
2705.00,98.99
2704.00,99.00
2703.00,99.01
2702.00,99.01
2701.00,99.00
2700.00,98.98
2699.00,98.97
2698.00,98.97
2697.00,98.98
2696.00,99.00
2695.00,99.02
2694.00,99.02
2693.00,99.01
2692.00,98.98
2691.00,98.96
2690.00,98.94
2689.00,98.93
2688.00,98.93
2687.00,98.93
2686.00,98.94
2685.00,98.96
2684.00,98.98
2683.00,98.99
2682.00,98.99
2681.00,98.98
2680.00,98.97
2679.00,98.95
2678.00,98.94
2677.00,98.94
2676.00,98.94
2675.00,98.94
2674.00,98.94
2673.00,98.95
2672.00,98.96
2671.00,98.97
2670.00,98.98
2669.00,98.98
2668.00,98.98
2667.00,98.97
2666.00,98.95
2665.00,98.93
2664.00,98.93
2663.00,98.92
2662.00,98.92
2661.00,98.91
2660.00,98.90
2659.00,98.89
2658.00,98.88
2657.00,98.87
2656.00,98.86
2655.00,98.87
2654.00,98.88
2653.00,98.89
2652.00,98.90
2651.00,98.90
2650.00,98.89
2649.00,98.89
2648.00,98.88
2647.00,98.86
2646.00,98.85
2645.00,98.84
2644.00,98.83
2643.00,98.82
2642.00,98.81
2641.00,98.80
2640.00,98.78
2639.00,98.78
2638.00,98.78
2637.00,98.77
2636.00,98.77
2635.00,98.77
2634.00,98.78
2633.00,98.78
2632.00,98.77
2631.00,98.76
2630.00,98.73
2629.00,98.70
2628.00,98.67
2627.00,98.65
2626.00,98.65
2625.00,98.66
2624.00,98.68
2623.00,98.69
2622.00,98.69
2621.00,98.69
2620.00,98.69
2619.00,98.70
2618.00,98.70
2617.00,98.69
2616.00,98.68
2615.00,98.67
2614.00,98.66
2613.00,98.65
2612.00,98.65
2611.00,98.66
2610.00,98.67
2609.00,98.66
2608.00,98.65
2607.00,98.64
2606.00,98.63
2605.00,98.61
2604.00,98.60
2603.00,98.58
2602.00,98.58
2601.00,98.58
2600.00,98.59
2599.00,98.61
2598.00,98.61
2597.00,98.61
2596.00,98.59
2595.00,98.58
2594.00,98.57
2593.00,98.56
2592.00,98.56
2591.00,98.55
2590.00,98.54
2589.00,98.53
2588.00,98.52
2587.00,98.53
2586.00,98.54
2585.00,98.55
2584.00,98.55
2583.00,98.54
2582.00,98.53
2581.00,98.50
2580.00,98.48
2579.00,98.46
2578.00,98.45
2577.00,98.46
2576.00,98.47
2575.00,98.48
2574.00,98.48
2573.00,98.48
2572.00,98.48
2571.00,98.46
2570.00,98.45
2569.00,98.44
2568.00,98.44
2567.00,98.46
2566.00,98.48
2565.00,98.51
2564.00,98.52
2563.00,98.51
2562.00,98.51
2561.00,98.49
2560.00,98.48
2559.00,98.46
2558.00,98.45
2557.00,98.46
2556.00,98.49
2555.00,98.51
2554.00,98.50
2553.00,98.48
2552.00,98.46
2551.00,98.44
2550.00,98.45
2549.00,98.45
2548.00,98.46
2547.00,98.46
2546.00,98.46
2545.00,98.45
2544.00,98.43
2543.00,98.41
2542.00,98.40
2541.00,98.39
2540.00,98.39
2539.00,98.39
2538.00,98.40
2537.00,98.42
2536.00,98.44
2535.00,98.47
2534.00,98.48
2533.00,98.47
2532.00,98.44
2531.00,98.42
2530.00,98.41
2529.00,98.41
2528.00,98.42
2527.00,98.42
2526.00,98.44
2525.00,98.45
2524.00,98.43
2523.00,98.40
2522.00,98.37
2521.00,98.35
2520.00,98.34
2519.00,98.34
2518.00,98.35
2517.00,98.36
2516.00,98.38
2515.00,98.41
2514.00,98.44
2513.00,98.46
2512.00,98.47
2511.00,98.45
2510.00,98.42
2509.00,98.39
2508.00,98.38
2507.00,98.38
2506.00,98.39
2505.00,98.40
2504.00,98.40
2503.00,98.40
2502.00,98.39
2501.00,98.38
2500.00,98.37
2499.00,98.37
2498.00,98.37
2497.00,98.39
2496.00,98.41
2495.00,98.43
2494.00,98.44
2493.00,98.44
2492.00,98.43
2491.00,98.42
2490.00,98.40
2489.00,98.39
2488.00,98.38
2487.00,98.37
2486.00,98.36
2485.00,98.37
2484.00,98.39
2483.00,98.42
2482.00,98.45
2481.00,98.48
2480.00,98.49
2479.00,98.48
2478.00,98.46
2477.00,98.44
2476.00,98.43
2475.00,98.42
2474.00,98.42
2473.00,98.42
2472.00,98.41
2471.00,98.40
2470.00,98.39
2469.00,98.39
2468.00,98.40
2467.00,98.41
2466.00,98.41
2465.00,98.42
2464.00,98.42
2463.00,98.42
2462.00,98.43
2461.00,98.44
2460.00,98.43
2459.00,98.40
2458.00,98.37
2457.00,98.35
2456.00,98.35
2455.00,98.34
2454.00,98.33
2453.00,98.32
2452.00,98.32
2451.00,98.32
2450.00,98.33
2449.00,98.35
2448.00,98.38
2447.00,98.40
2446.00,98.41
2445.00,98.40
2444.00,98.39
2443.00,98.38
2442.00,98.38
2441.00,98.39
2440.00,98.41
2439.00,98.42
2438.00,98.41
2437.00,98.40
2436.00,98.39
2435.00,98.38
2434.00,98.39
2433.00,98.40
2432.00,98.41
2431.00,98.40
2430.00,98.39
2429.00,98.38
2428.00,98.38
2427.00,98.39
2426.00,98.41
2425.00,98.42
2424.00,98.42
2423.00,98.40
2422.00,98.39
2421.00,98.38
2420.00,98.38
2419.00,98.38
2418.00,98.38
2417.00,98.39
2416.00,98.41
2415.00,98.42
2414.00,98.42
2413.00,98.42
2412.00,98.42
2411.00,98.42
2410.00,98.42
2409.00,98.42
2408.00,98.41
2407.00,98.41
2406.00,98.41
2405.00,98.42
2404.00,98.42
2403.00,98.42
2402.00,98.42
2401.00,98.43
2400.00,98.44
2399.00,98.45
2398.00,98.45
2397.00,98.45
2396.00,98.45
2395.00,98.45
2394.00,98.46
2393.00,98.46
2392.00,98.45
2391.00,98.43
2390.00,98.43
2389.00,98.45
2388.00,98.48
2387.00,98.51
2386.00,98.53
2385.00,98.54
2384.00,98.52
2383.00,98.49
2382.00,98.47
2381.00,98.47
2380.00,98.49
2379.00,98.53
2378.00,98.55
2377.00,98.55
2376.00,98.54
2375.00,98.52
2374.00,98.50
2373.00,98.49
2372.00,98.50
2371.00,98.52
2370.00,98.55
2369.00,98.58
2368.00,98.58
2367.00,98.54
2366.00,98.46
2365.00,98.38
2364.00,98.33
2363.00,98.30
2362.00,98.27
2361.00,98.25
2360.00,98.27
2359.00,98.31
2358.00,98.37
2357.00,98.43
2356.00,98.46
2355.00,98.47
2354.00,98.45
2353.00,98.44
2352.00,98.45
2351.00,98.46
2350.00,98.45
2349.00,98.45
2348.00,98.47
2347.00,98.48
2346.00,98.45
2345.00,98.37
2344.00,98.28
2343.00,98.23
2342.00,98.23
2341.00,98.29
2340.00,98.37
2339.00,98.44
2338.00,98.48
2337.00,98.47
2336.00,98.46
2335.00,98.45
2334.00,98.46
2333.00,98.48
2332.00,98.50
2331.00,98.51
2330.00,98.50
2329.00,98.47
2328.00,98.44
2327.00,98.38
2326.00,98.31
2325.00,98.23
2324.00,98.17
2323.00,98.14
2322.00,98.15
2321.00,98.17
2320.00,98.21
2319.00,98.24
2318.00,98.26
2317.00,98.26
2316.00,98.25
2315.00,98.25
2314.00,98.25
2313.00,98.25
2312.00,98.25
2311.00,98.26
2310.00,98.30
2309.00,98.32
2308.00,98.32
2307.00,98.29
2306.00,98.24
2305.00,98.22
2304.00,98.20
2303.00,98.20
2302.00,98.20
2301.00,98.19
2300.00,98.18
2299.00,98.16
2298.00,98.15
2297.00,98.15
2296.00,98.14
2295.00,98.12
2294.00,98.09
2293.00,98.05
2292.00,98.01
2291.00,97.99
2290.00,97.98
2289.00,98.00
2288.00,98.02
2287.00,98.02
2286.00,98.01
2285.00,97.99
2284.00,97.97
2283.00,97.96
2282.00,97.95
2281.00,97.95
2280.00,97.94
2279.00,97.93
2278.00,97.92
2277.00,97.91
2276.00,97.91
2275.00,97.92
2274.00,97.95
2273.00,97.96
2272.00,97.95
2271.00,97.90
2270.00,97.85
2269.00,97.83
2268.00,97.83
2267.00,97.83
2266.00,97.80
2265.00,97.75
2264.00,97.70
2263.00,97.67
2262.00,97.65
2261.00,97.63
2260.00,97.61
2259.00,97.59
2258.00,97.58
2257.00,97.56
2256.00,97.52
2255.00,97.43
2254.00,97.28
2253.00,97.07
2252.00,96.84
2251.00,96.62
2250.00,96.40
2249.00,96.20
2248.00,95.99
2247.00,95.77
2246.00,95.56
2245.00,95.34
2244.00,95.13
2243.00,94.94
2242.00,94.82
2241.00,94.79
2240.00,94.87
2239.00,95.04
2238.00,95.26
2237.00,95.51
2236.00,95.77
2235.00,96.01
2234.00,96.23
2233.00,96.44
2232.00,96.62
2231.00,96.77
2230.00,96.89
2229.00,96.98
2228.00,97.05
2227.00,97.10
2226.00,97.16
2225.00,97.22
2224.00,97.27
2223.00,97.28
2222.00,97.27
2221.00,97.26
2220.00,97.27
2219.00,97.27
2218.00,97.27
2217.00,97.26
2216.00,97.24
2215.00,97.24
2214.00,97.25
2213.00,97.26
2212.00,97.25
2211.00,97.21
2210.00,97.16
2209.00,97.14
2208.00,97.16
2207.00,97.19
2206.00,97.19
2205.00,97.16
2204.00,97.11
2203.00,97.08
2202.00,97.06
2201.00,97.08
2200.00,97.10
2199.00,97.10
2198.00,97.07
2197.00,97.01
2196.00,96.96
2195.00,96.93
2194.00,96.93
2193.00,96.93
2192.00,96.93
2191.00,96.89
2190.00,96.85
2189.00,96.84
2188.00,96.89
2187.00,96.95
2186.00,96.97
2185.00,96.95
2184.00,96.91
2183.00,96.90
2182.00,96.92
2181.00,96.96
2180.00,97.00
2179.00,97.02
2178.00,97.01
2177.00,96.95
2176.00,96.88
2175.00,96.82
2174.00,96.79
2173.00,96.79
2172.00,96.81
2171.00,96.82
2170.00,96.80
2169.00,96.76
2168.00,96.73
2167.00,96.71
2166.00,96.67
2165.00,96.60
2164.00,96.55
2163.00,96.54
2162.00,96.55
2161.00,96.59
2160.00,96.66
2159.00,96.77
2158.00,96.88
2157.00,96.95
2156.00,96.99
2155.00,97.04
2154.00,97.11
2153.00,97.16
2152.00,97.18
2151.00,97.16
2150.00,97.13
2149.00,97.14
2148.00,97.18
2147.00,97.24
2146.00,97.29
2145.00,97.33
2144.00,97.36
2143.00,97.39
2142.00,97.41
2141.00,97.43
2140.00,97.44
2139.00,97.48
2138.00,97.52
2137.00,97.57
2136.00,97.61
2135.00,97.65
2134.00,97.68
2133.00,97.70
2132.00,97.71
2131.00,97.71
2130.00,97.71
2129.00,97.71
2128.00,97.71
2127.00,97.71
2126.00,97.72
2125.00,97.73
2124.00,97.75
2123.00,97.76
2122.00,97.77
2121.00,97.77
2120.00,97.76
2119.00,97.75
2118.00,97.74
2117.00,97.73
2116.00,97.70
2115.00,97.66
2114.00,97.64
2113.00,97.64
2112.00,97.66
2111.00,97.68
2110.00,97.70
2109.00,97.71
2108.00,97.71
2107.00,97.70
2106.00,97.68
2105.00,97.67
2104.00,97.67
2103.00,97.68
2102.00,97.69
2101.00,97.68
2100.00,97.64
2099.00,97.60
2098.00,97.58
2097.00,97.58
2096.00,97.60
2095.00,97.62
2094.00,97.62
2093.00,97.62
2092.00,97.62
2091.00,97.62
2090.00,97.63
2089.00,97.63
2088.00,97.63
2087.00,97.62
2086.00,97.61
2085.00,97.62
2084.00,97.62
2083.00,97.62
2082.00,97.61
2081.00,97.59
2080.00,97.56
2079.00,97.53
2078.00,97.51
2077.00,97.50
2076.00,97.50
2075.00,97.50
2074.00,97.50
2073.00,97.49
2072.00,97.47
2071.00,97.45
2070.00,97.43
2069.00,97.42
2068.00,97.42
2067.00,97.42
2066.00,97.42
2065.00,97.42
2064.00,97.43
2063.00,97.46
2062.00,97.49
2061.00,97.51
2060.00,97.50
2059.00,97.46
2058.00,97.41
2057.00,97.37
2056.00,97.37
2055.00,97.39
2054.00,97.37
2053.00,97.31
2052.00,97.20
2051.00,97.11
2050.00,97.09
2049.00,97.11
2048.00,97.14
2047.00,97.13
2046.00,97.09
2045.00,97.05
2044.00,97.02
2043.00,96.98
2042.00,96.91
2041.00,96.83
2040.00,96.76
2039.00,96.72
2038.00,96.71
2037.00,96.73
2036.00,96.76
2035.00,96.76
2034.00,96.71
2033.00,96.63
2032.00,96.56
2031.00,96.54
2030.00,96.56
2029.00,96.62
2028.00,96.70
2027.00,96.75
2026.00,96.76
2025.00,96.74
2024.00,96.72
2023.00,96.73
2022.00,96.76
2021.00,96.79
2020.00,96.81
2019.00,96.82
2018.00,96.81
2017.00,96.80
2016.00,96.80
2015.00,96.82
2014.00,96.85
2013.00,96.89
2012.00,96.91
2011.00,96.92
2010.00,96.92
2009.00,96.93
2008.00,96.95
2007.00,96.99
2006.00,97.01
2005.00,97.02
2004.00,97.02
2003.00,97.03
2002.00,97.03
2001.00,97.03
2000.00,97.03
1999.00,97.03
1998.00,97.04
1997.00,97.04
1996.00,97.06
1995.00,97.09
1994.00,97.13
1993.00,97.16
1992.00,97.16
1991.00,97.12
1990.00,97.08
1989.00,97.03
1988.00,96.98
1987.00,96.94
1986.00,96.89
1985.00,96.85
1984.00,96.81
1983.00,96.77
1982.00,96.72
1981.00,96.69
1980.00,96.69
1979.00,96.74
1978.00,96.81
1977.00,96.85
1976.00,96.86
1975.00,96.88
1974.00,96.92
1973.00,96.96
1972.00,96.99
1971.00,96.99
1970.00,96.98
1969.00,96.98
1968.00,97.01
1967.00,97.02
1966.00,97.00
1965.00,96.97
1964.00,96.94
1963.00,96.97
1962.00,97.06
1961.00,97.18
1960.00,97.27
1959.00,97.31
1958.00,97.31
1957.00,97.31
1956.00,97.32
1955.00,97.32
1954.00,97.31
1953.00,97.31
1952.00,97.32
1951.00,97.34
1950.00,97.35
1949.00,97.36
1948.00,97.38
1947.00,97.41
1946.00,97.44
1945.00,97.47
1944.00,97.51
1943.00,97.55
1942.00,97.57
1941.00,97.56
1940.00,97.54
1939.00,97.53
1938.00,97.53
1937.00,97.54
1936.00,97.56
1935.00,97.57
1934.00,97.56
1933.00,97.54
1932.00,97.52
1931.00,97.53
1930.00,97.56
1929.00,97.62
1928.00,97.67
1927.00,97.69
1926.00,97.67
1925.00,97.62
1924.00,97.59
1923.00,97.59
1922.00,97.62
1921.00,97.66
1920.00,97.70
1919.00,97.72
1918.00,97.75
1917.00,97.76
1916.00,97.75
1915.00,97.73
1914.00,97.73
1913.00,97.75
1912.00,97.79
1911.00,97.82
1910.00,97.83
1909.00,97.82
1908.00,97.81
1907.00,97.80
1906.00,97.79
1905.00,97.78
1904.00,97.77
1903.00,97.77
1902.00,97.78
1901.00,97.79
1900.00,97.79
1899.00,97.79
1898.00,97.79
1897.00,97.80
1896.00,97.80
1895.00,97.80
1894.00,97.82
1893.00,97.83
1892.00,97.85
1891.00,97.86
1890.00,97.86
1889.00,97.87
1888.00,97.88
1887.00,97.90
1886.00,97.90
1885.00,97.89
1884.00,97.88
1883.00,97.87
1882.00,97.88
1881.00,97.89
1880.00,97.91
1879.00,97.92
1878.00,97.92
1877.00,97.93
1876.00,97.93
1875.00,97.94
1874.00,97.94
1873.00,97.94
1872.00,97.94
1871.00,97.93
1870.00,97.92
1869.00,97.91
1868.00,97.91
1867.00,97.91
1866.00,97.92
1865.00,97.92
1864.00,97.92
1863.00,97.93
1862.00,97.94
1861.00,97.94
1860.00,97.95
1859.00,97.94
1858.00,97.93
1857.00,97.92
1856.00,97.90
1855.00,97.89
1854.00,97.91
1853.00,97.93
1852.00,97.96
1851.00,97.97
1850.00,97.98
1849.00,97.99
1848.00,98.00
1847.00,98.00
1846.00,98.00
1845.00,98.01
1844.00,98.02
1843.00,98.02
1842.00,98.02
1841.00,98.03
1840.00,98.04
1839.00,98.04
1838.00,98.03
1837.00,98.01
1836.00,98.00
1835.00,97.99
1834.00,98.00
1833.00,98.02
1832.00,98.03
1831.00,98.04
1830.00,98.04
1829.00,98.03
1828.00,98.02
1827.00,98.03
1826.00,98.04
1825.00,98.04
1824.00,98.04
1823.00,98.03
1822.00,98.02
1821.00,98.02
1820.00,98.05
1819.00,98.08
1818.00,98.10
1817.00,98.12
1816.00,98.13
1815.00,98.12
1814.00,98.12
1813.00,98.11
1812.00,98.10
1811.00,98.09
1810.00,98.09
1809.00,98.10
1808.00,98.11
1807.00,98.12
1806.00,98.12
1805.00,98.12
1804.00,98.12
1803.00,98.10
1802.00,98.09
1801.00,98.08
1800.00,98.08
1799.00,98.07
1798.00,98.07
1797.00,98.06
1796.00,98.06
1795.00,98.08
1794.00,98.10
1793.00,98.13
1792.00,98.14
1791.00,98.13
1790.00,98.13
1789.00,98.13
1788.00,98.14
1787.00,98.15
1786.00,98.15
1785.00,98.15
1784.00,98.16
1783.00,98.15
1782.00,98.15
1781.00,98.15
1780.00,98.16
1779.00,98.18
1778.00,98.19
1777.00,98.18
1776.00,98.17
1775.00,98.16
1774.00,98.15
1773.00,98.14
1772.00,98.14
1771.00,98.13
1770.00,98.12
1769.00,98.11
1768.00,98.10
1767.00,98.10
1766.00,98.10
1765.00,98.10
1764.00,98.10
1763.00,98.09
1762.00,98.08
1761.00,98.06
1760.00,98.04
1759.00,98.03
1758.00,98.02
1757.00,98.01
1756.00,98.00
1755.00,97.99
1754.00,97.98
1753.00,97.96
1752.00,97.93
1751.00,97.90
1750.00,97.88
1749.00,97.85
1748.00,97.83
1747.00,97.81
1746.00,97.78
1745.00,97.74
1744.00,97.69
1743.00,97.63
1742.00,97.57
1741.00,97.52
1740.00,97.46
1739.00,97.42
1738.00,97.38
1737.00,97.34
1736.00,97.30
1735.00,97.25
1734.00,97.21
1733.00,97.17
1732.00,97.14
1731.00,97.13
1730.00,97.13
1729.00,97.14
1728.00,97.15
1727.00,97.16
1726.00,97.17
1725.00,97.19
1724.00,97.22
1723.00,97.26
1722.00,97.28
1721.00,97.29
1720.00,97.31
1719.00,97.34
1718.00,97.39
1717.00,97.46
1716.00,97.51
1715.00,97.55
1714.00,97.59
1713.00,97.62
1712.00,97.65
1711.00,97.66
1710.00,97.68
1709.00,97.69
1708.00,97.70
1707.00,97.72
1706.00,97.74
1705.00,97.76
1704.00,97.78
1703.00,97.79
1702.00,97.80
1701.00,97.81
1700.00,97.82
1699.00,97.83
1698.00,97.84
1697.00,97.84
1696.00,97.86
1695.00,97.87
1694.00,97.88
1693.00,97.88
1692.00,97.88
1691.00,97.88
1690.00,97.89
1689.00,97.89
1688.00,97.89
1687.00,97.90
1686.00,97.90
1685.00,97.91
1684.00,97.90
1683.00,97.90
1682.00,97.90
1681.00,97.90
1680.00,97.91
1679.00,97.92
1678.00,97.92
1677.00,97.91
1676.00,97.90
1675.00,97.89
1674.00,97.88
1673.00,97.88
1672.00,97.89
1671.00,97.90
1670.00,97.91
1669.00,97.91
1668.00,97.91
1667.00,97.91
1666.00,97.90
1665.00,97.89
1664.00,97.88
1663.00,97.87
1662.00,97.87
1661.00,97.87
1660.00,97.88
1659.00,97.89
1658.00,97.90
1657.00,97.91
1656.00,97.90
1655.00,97.89
1654.00,97.88
1653.00,97.88
1652.00,97.88
1651.00,97.86
1650.00,97.85
1649.00,97.82
1648.00,97.80
1647.00,97.80
1646.00,97.80
1645.00,97.81
1644.00,97.80
1643.00,97.79
1642.00,97.77
1641.00,97.76
1640.00,97.75
1639.00,97.74
1638.00,97.74
1637.00,97.74
1636.00,97.75
1635.00,97.76
1634.00,97.76
1633.00,97.75
1632.00,97.73
1631.00,97.71
1630.00,97.69
1629.00,97.67
1628.00,97.65
1627.00,97.64
1626.00,97.64
1625.00,97.63
1624.00,97.63
1623.00,97.65
1622.00,97.67
1621.00,97.68
1620.00,97.69
1619.00,97.68
1618.00,97.67
1617.00,97.66
1616.00,97.64
1615.00,97.64
1614.00,97.65
1613.00,97.66
1612.00,97.67
1611.00,97.69
1610.00,97.70
1609.00,97.72
1608.00,97.74
1607.00,97.76
1606.00,97.77
1605.00,97.77
1604.00,97.76
1603.00,97.76
1602.00,97.76
1601.00,97.77
1600.00,97.79
1599.00,97.81
1598.00,97.82
1597.00,97.83
1596.00,97.85
1595.00,97.86
1594.00,97.88
1593.00,97.89
1592.00,97.90
1591.00,97.90
1590.00,97.91
1589.00,97.90
1588.00,97.89
1587.00,97.89
1586.00,97.90
1585.00,97.91
1584.00,97.91
1583.00,97.92
1582.00,97.93
1581.00,97.95
1580.00,97.96
1579.00,97.97
1578.00,97.96
1577.00,97.95
1576.00,97.94
1575.00,97.94
1574.00,97.94
1573.00,97.95
1572.00,97.94
1571.00,97.94
1570.00,97.94
1569.00,97.96
1568.00,97.98
1567.00,97.99
1566.00,97.99
1565.00,97.99
1564.00,97.98
1563.00,97.99
1562.00,97.99
1561.00,97.99
1560.00,97.98
1559.00,97.99
1558.00,97.98
1557.00,97.98
1556.00,97.97
1555.00,97.97
1554.00,97.98
1553.00,97.98
1552.00,97.98
1551.00,97.98
1550.00,97.99
1549.00,98.00
1548.00,98.00
1547.00,97.99
1546.00,98.01
1545.00,98.03
1544.00,98.05
1543.00,98.07
1542.00,98.06
1541.00,98.05
1540.00,98.02
1539.00,98.00
1538.00,97.98
1537.00,97.97
1536.00,97.96
1535.00,97.95
1534.00,97.95
1533.00,97.96
1532.00,97.97
1531.00,97.97
1530.00,97.95
1529.00,97.94
1528.00,97.94
1527.00,97.94
1526.00,97.96
1525.00,97.98
1524.00,97.99
1523.00,97.98
1522.00,97.98
1521.00,97.98
1520.00,97.99
1519.00,97.99
1518.00,97.99
1517.00,97.99
1516.00,97.99
1515.00,97.99
1514.00,97.98
1513.00,97.98
1512.00,97.99
1511.00,98.00
1510.00,98.01
1509.00,98.00
1508.00,97.99
1507.00,97.98
1506.00,97.98
1505.00,97.99
1504.00,98.00
1503.00,98.01
1502.00,98.00
1501.00,97.98
1500.00,97.96
1499.00,97.95
1498.00,97.95
1497.00,97.95
1496.00,97.94
1495.00,97.92
1494.00,97.89
1493.00,97.86
1492.00,97.84
1491.00,97.83
1490.00,97.84
1489.00,97.86
1488.00,97.86
1487.00,97.86
1486.00,97.84
1485.00,97.83
1484.00,97.82
1483.00,97.82
1482.00,97.83
1481.00,97.83
1480.00,97.84
1479.00,97.84
1478.00,97.84
1477.00,97.83
1476.00,97.82
1475.00,97.82
1474.00,97.82
1473.00,97.82
1472.00,97.81
1471.00,97.80
1470.00,97.78
1469.00,97.76
1468.00,97.75
1467.00,97.74
1466.00,97.72
1465.00,97.66
1464.00,97.57
1463.00,97.48
1462.00,97.39
1461.00,97.29
1460.00,97.18
1459.00,97.04
1458.00,96.83
1457.00,96.55
1456.00,96.28
1455.00,96.04
1454.00,95.82
1453.00,95.59
1452.00,95.35
1451.00,95.13
1450.00,94.93
1449.00,94.72
1448.00,94.52
1447.00,94.32
1446.00,94.14
1445.00,93.95
1444.00,93.75
1443.00,93.58
1442.00,93.44
1441.00,93.33
1440.00,93.27
1439.00,93.25
1438.00,93.28
1437.00,93.37
1436.00,93.50
1435.00,93.67
1434.00,93.84
1433.00,94.02
1432.00,94.22
1431.00,94.43
1430.00,94.65
1429.00,94.87
1428.00,95.08
1427.00,95.28
1426.00,95.46
1425.00,95.63
1424.00,95.81
1423.00,95.97
1422.00,96.10
1421.00,96.22
1420.00,96.34
1419.00,96.47
1418.00,96.59
1417.00,96.68
1416.00,96.75
1415.00,96.82
1414.00,96.88
1413.00,96.95
1412.00,97.02
1411.00,97.07
1410.00,97.12
1409.00,97.15
1408.00,97.19
1407.00,97.23
1406.00,97.27
1405.00,97.29
1404.00,97.30
1403.00,97.32
1402.00,97.34
1401.00,97.36
1400.00,97.36
1399.00,97.34
1398.00,97.32
1397.00,97.30
1396.00,97.28
1395.00,97.26
1394.00,97.23
1393.00,97.21
1392.00,97.19
1391.00,97.16
1390.00,97.14
1389.00,97.10
1388.00,97.05
1387.00,97.00
1386.00,96.96
1385.00,96.94
1384.00,96.92
1383.00,96.89
1382.00,96.86
1381.00,96.82
1380.00,96.78
1379.00,96.74
1378.00,96.72
1377.00,96.70
1376.00,96.68
1375.00,96.65
1374.00,96.60
1373.00,96.55
1372.00,96.49
1371.00,96.43
1370.00,96.37
1369.00,96.29
1368.00,96.22
1367.00,96.15
1366.00,96.08
1365.00,96.02
1364.00,95.96
1363.00,95.90
1362.00,95.83
1361.00,95.77
1360.00,95.72
1359.00,95.68
1358.00,95.64
1357.00,95.62
1356.00,95.60
1355.00,95.59
1354.00,95.58
1353.00,95.58
1352.00,95.61
1351.00,95.64
1350.00,95.69
1349.00,95.74
1348.00,95.78
1347.00,95.81
1346.00,95.85
1345.00,95.89
1344.00,95.93
1343.00,95.97
1342.00,96.00
1341.00,96.03
1340.00,96.04
1339.00,96.04
1338.00,96.04
1337.00,96.03
1336.00,96.03
1335.00,96.02
1334.00,96.01
1333.00,96.00
1332.00,96.00
1331.00,96.00
1330.00,96.00
1329.00,95.98
1328.00,95.97
1327.00,95.95
1326.00,95.94
1325.00,95.93
1324.00,95.93
1323.00,95.93
1322.00,95.94
1321.00,95.95
1320.00,95.96
1319.00,95.97
1318.00,95.96
1317.00,95.93
1316.00,95.91
1315.00,95.89
1314.00,95.88
1313.00,95.86
1312.00,95.84
1311.00,95.83
1310.00,95.82
1309.00,95.80
1308.00,95.79
1307.00,95.77
1306.00,95.76
1305.00,95.74
1304.00,95.72
1303.00,95.70
1302.00,95.67
1301.00,95.64
1300.00,95.61
1299.00,95.58
1298.00,95.55
1297.00,95.52
1296.00,95.48
1295.00,95.42
1294.00,95.36
1293.00,95.32
1292.00,95.29
1291.00,95.28
1290.00,95.27
1289.00,95.25
1288.00,95.24
1287.00,95.24
1286.00,95.24
1285.00,95.25
1284.00,95.28
1283.00,95.31
1282.00,95.33
1281.00,95.35
1280.00,95.36
1279.00,95.36
1278.00,95.35
1277.00,95.35
1276.00,95.35
1275.00,95.34
1274.00,95.31
1273.00,95.26
1272.00,95.20
1271.00,95.13
1270.00,95.07
1269.00,95.01
1268.00,94.95
1267.00,94.88
1266.00,94.82
1265.00,94.76
1264.00,94.69
1263.00,94.62
1262.00,94.55
1261.00,94.49
1260.00,94.43
1259.00,94.39
1258.00,94.36
1257.00,94.34
1256.00,94.34
1255.00,94.35
1254.00,94.37
1253.00,94.37
1252.00,94.37
1251.00,94.36
1250.00,94.36
1249.00,94.35
1248.00,94.35
1247.00,94.36
1246.00,94.37
1245.00,94.37
1244.00,94.36
1243.00,94.34
1242.00,94.33
1241.00,94.32
1240.00,94.33
1239.00,94.35
1238.00,94.40
1237.00,94.46
1236.00,94.52
1235.00,94.58
1234.00,94.65
1233.00,94.72
1232.00,94.79
1231.00,94.86
1230.00,94.92
1229.00,94.98
1228.00,95.02
1227.00,95.06
1226.00,95.09
1225.00,95.09
1224.00,95.08
1223.00,95.05
1222.00,95.03
1221.00,95.02
1220.00,95.01
1219.00,95.00
1218.00,94.98
1217.00,94.93
1216.00,94.88
1215.00,94.85
1214.00,94.84
1213.00,94.84
1212.00,94.83
1211.00,94.82
1210.00,94.81
1209.00,94.80
1208.00,94.80
1207.00,94.81
1206.00,94.82
1205.00,94.84
1204.00,94.85
1203.00,94.87
1202.00,94.89
1201.00,94.90
1200.00,94.91
1199.00,94.91
1198.00,94.94
1197.00,94.98
1196.00,95.03
1195.00,95.07
1194.00,95.09
1193.00,95.10
1192.00,95.11
1191.00,95.13
1190.00,95.15
1189.00,95.16
1188.00,95.17
1187.00,95.17
1186.00,95.18
1185.00,95.20
1184.00,95.22
1183.00,95.24
1182.00,95.26
1181.00,95.26
1180.00,95.26
1179.00,95.25
1178.00,95.25
1177.00,95.28
1176.00,95.31
1175.00,95.35
1174.00,95.38
1173.00,95.40
1172.00,95.42
1171.00,95.44
1170.00,95.48
1169.00,95.52
1168.00,95.57
1167.00,95.61
1166.00,95.66
1165.00,95.71
1164.00,95.77
1163.00,95.83
1162.00,95.88
1161.00,95.93
1160.00,95.97
1159.00,96.01
1158.00,96.05
1157.00,96.07
1156.00,96.08
1155.00,96.07
1154.00,96.05
1153.00,96.04
1152.00,96.04
1151.00,96.05
1150.00,96.07
1149.00,96.09
1148.00,96.11
1147.00,96.13
1146.00,96.15
1145.00,96.17
1144.00,96.21
1143.00,96.26
1142.00,96.32
1141.00,96.36
1140.00,96.39
1139.00,96.41
1138.00,96.41
1137.00,96.40
1136.00,96.38
1135.00,96.34
1134.00,96.31
1133.00,96.27
1132.00,96.24
1131.00,96.22
1130.00,96.20
1129.00,96.18
1128.00,96.15
1127.00,96.12
1126.00,96.10
1125.00,96.06
1124.00,96.00
1123.00,95.92
1122.00,95.84
1121.00,95.78
1120.00,95.72
1119.00,95.66
1118.00,95.60
1117.00,95.55
1116.00,95.52
1115.00,95.53
1114.00,95.54
1113.00,95.54
1112.00,95.49
1111.00,95.43
1110.00,95.37
1109.00,95.35
1108.00,95.36
1107.00,95.37
1106.00,95.37
1105.00,95.35
1104.00,95.35
1103.00,95.36
1102.00,95.38
1101.00,95.40
1100.00,95.41
1099.00,95.41
1098.00,95.41
1097.00,95.40
1096.00,95.39
1095.00,95.40
1094.00,95.43
1093.00,95.46
1092.00,95.47
1091.00,95.48
1090.00,95.47
1089.00,95.46
1088.00,95.46
1087.00,95.47
1086.00,95.50
1085.00,95.51
1084.00,95.52
1083.00,95.51
1082.00,95.49
1081.00,95.47
1080.00,95.47
1079.00,95.49
1078.00,95.51
1077.00,95.53
1076.00,95.53
1075.00,95.51
1074.00,95.48
1073.00,95.46
1072.00,95.45
1071.00,95.46
1070.00,95.46
1069.00,95.45
1068.00,95.43
1067.00,95.42
1066.00,95.42
1065.00,95.42
1064.00,95.41
1063.00,95.39
1062.00,95.36
1061.00,95.34
1060.00,95.32
1059.00,95.31
1058.00,95.30
1057.00,95.28
1056.00,95.25
1055.00,95.22
1054.00,95.19
1053.00,95.18
1052.00,95.16
1051.00,95.13
1050.00,95.07
1049.00,95.01
1048.00,94.97
1047.00,94.94
1046.00,94.92
1045.00,94.88
1044.00,94.84
1043.00,94.80
1042.00,94.77
1041.00,94.75
1040.00,94.73
1039.00,94.71
1038.00,94.69
1037.00,94.70
1036.00,94.73
1035.00,94.79
1034.00,94.86
1033.00,94.93
1032.00,94.97
1031.00,95.01
1030.00,95.05
1029.00,95.08
1028.00,95.10
1027.00,95.14
1026.00,95.18
1025.00,95.23
1024.00,95.25
1023.00,95.26
1022.00,95.26
1021.00,95.26
1020.00,95.27
1019.00,95.27
1018.00,95.27
1017.00,95.25
1016.00,95.22
1015.00,95.18
1014.00,95.11
1013.00,95.02
1012.00,94.93
1011.00,94.85
1010.00,94.80
1009.00,94.77
1008.00,94.74
1007.00,94.72
1006.00,94.71
1005.00,94.71
1004.00,94.70
1003.00,94.68
1002.00,94.64
1001.00,94.59
1000.00,94.55
999.00,94.52
998.00,94.51
997.00,94.51
996.00,94.51
995.00,94.50
994.00,94.48
993.00,94.46
992.00,94.46
991.00,94.47
990.00,94.49
989.00,94.51
988.00,94.53
987.00,94.55
986.00,94.57
985.00,94.59
984.00,94.62
983.00,94.64
982.00,94.67
981.00,94.69
980.00,94.72
979.00,94.74
978.00,94.77
977.00,94.81
976.00,94.85
975.00,94.88
974.00,94.90
973.00,94.92
972.00,94.93
971.00,94.95
970.00,94.96
969.00,94.96
968.00,94.95
967.00,94.94
966.00,94.94
965.00,94.94
964.00,94.95
963.00,94.97
962.00,95.00
961.00,95.04
960.00,95.05
959.00,95.06
958.00,95.05
957.00,95.05
956.00,95.05
955.00,95.05
954.00,95.05
953.00,95.06
952.00,95.09
951.00,95.13
950.00,95.16
949.00,95.18
948.00,95.19
947.00,95.20
946.00,95.23
945.00,95.26
944.00,95.29
943.00,95.31
942.00,95.33
941.00,95.35
940.00,95.37
939.00,95.39
938.00,95.43
937.00,95.47
936.00,95.49
935.00,95.50
934.00,95.50
933.00,95.51
932.00,95.52
931.00,95.54
930.00,95.54
929.00,95.53
928.00,95.51
927.00,95.51
926.00,95.54
925.00,95.58
924.00,95.61
923.00,95.61
922.00,95.59
921.00,95.56
920.00,95.54
919.00,95.52
918.00,95.53
917.00,95.55
916.00,95.56
915.00,95.57
914.00,95.57
913.00,95.57
912.00,95.56
911.00,95.55
910.00,95.56
909.00,95.57
908.00,95.60
907.00,95.62
906.00,95.62
905.00,95.62
904.00,95.61
903.00,95.62
902.00,95.66
901.00,95.70
900.00,95.72
899.00,95.73
898.00,95.72
897.00,95.71
896.00,95.70
895.00,95.70
894.00,95.72
893.00,95.75
892.00,95.77
891.00,95.79
890.00,95.80
889.00,95.81
888.00,95.82
887.00,95.82
886.00,95.82
885.00,95.83
884.00,95.85
883.00,95.87
882.00,95.89
881.00,95.90
880.00,95.91
879.00,95.90
878.00,95.88
877.00,95.85
876.00,95.81
875.00,95.79
874.00,95.81
873.00,95.83
872.00,95.86
871.00,95.87
870.00,95.87
869.00,95.88
868.00,95.89
867.00,95.90
866.00,95.92
865.00,95.92
864.00,95.92
863.00,95.92
862.00,95.93
861.00,95.93
860.00,95.94
859.00,95.93
858.00,95.93
857.00,95.94
856.00,95.96
855.00,95.99
854.00,96.03
853.00,96.06
852.00,96.07
851.00,96.05
850.00,96.02
849.00,95.98
848.00,95.96
847.00,95.97
846.00,96.00
845.00,96.04
844.00,96.09
843.00,96.12
842.00,96.13
841.00,96.12
840.00,96.12
839.00,96.14
838.00,96.18
837.00,96.23
836.00,96.29
835.00,96.35
834.00,96.40
833.00,96.43
832.00,96.43
831.00,96.42
830.00,96.43
829.00,96.45
828.00,96.48
827.00,96.51
826.00,96.54
825.00,96.58
824.00,96.60
823.00,96.59
822.00,96.56
821.00,96.52
820.00,96.52
819.00,96.54
818.00,96.56
817.00,96.57
816.00,96.55
815.00,96.54
814.00,96.53
813.00,96.51
812.00,96.48
811.00,96.44
810.00,96.43
809.00,96.43
808.00,96.44
807.00,96.44
806.00,96.45
805.00,96.47
804.00,96.50
803.00,96.53
802.00,96.55
801.00,96.55
800.00,96.54
799.00,96.52
798.00,96.50
797.00,96.50
796.00,96.50
795.00,96.49
794.00,96.45
793.00,96.41
792.00,96.37
791.00,96.31
790.00,96.26
789.00,96.20
788.00,96.15
787.00,96.09
786.00,96.02
785.00,95.91
784.00,95.78
783.00,95.65
782.00,95.54
781.00,95.46
780.00,95.40
779.00,95.35
778.00,95.29
777.00,95.21
776.00,95.14
775.00,95.09
774.00,95.04
773.00,94.96
772.00,94.83
771.00,94.66
770.00,94.48
769.00,94.33
768.00,94.21
767.00,94.09
766.00,93.96
765.00,93.81
764.00,93.69
763.00,93.60
762.00,93.54
761.00,93.46
760.00,93.35
759.00,93.20
758.00,93.02
757.00,92.81
756.00,92.55
755.00,92.26
754.00,91.97
753.00,91.73
752.00,91.55
751.00,91.40
750.00,91.24
749.00,91.07
748.00,90.85
747.00,90.61
746.00,90.35
745.00,90.08
744.00,89.86
743.00,89.74
742.00,89.72
741.00,89.76
740.00,89.81
739.00,89.87
738.00,89.96
737.00,90.11
736.00,90.30
735.00,90.47
734.00,90.61
733.00,90.74
732.00,90.89
731.00,91.10
730.00,91.35
729.00,91.62
728.00,91.89
727.00,92.15
726.00,92.38
725.00,92.60
724.00,92.81
723.00,93.03
722.00,93.27
721.00,93.52
720.00,93.77
719.00,93.99
718.00,94.19
717.00,94.37
716.00,94.52
715.00,94.62
714.00,94.67
713.00,94.67
712.00,94.65
711.00,94.61
710.00,94.58
709.00,94.55
708.00,94.53
707.00,94.49
706.00,94.41
705.00,94.31
704.00,94.23
703.00,94.18
702.00,94.12
701.00,94.03
700.00,93.94
699.00,93.88
698.00,93.86
697.00,93.85
696.00,93.84
695.00,93.82
694.00,93.79
693.00,93.72
692.00,93.67
691.00,93.66
690.00,93.72
689.00,93.83
688.00,93.94
687.00,94.01
686.00,94.01
685.00,93.95
684.00,93.88
683.00,93.86
682.00,93.90
681.00,93.96
680.00,94.04
679.00,94.13
678.00,94.23
677.00,94.32
676.00,94.37
675.00,94.41
674.00,94.45
673.00,94.49
672.00,94.50
671.00,94.49
670.00,94.47
669.00,94.45
668.00,94.49
667.00,94.56
666.00,94.61
665.00,94.62
664.00,94.59
663.00,94.56
662.00,94.56
661.00,94.55
660.00,94.49
659.00,94.37
658.00,94.20
657.00,94.02
656.00,93.84
655.00,93.69
654.00,93.57
653.00,93.47
652.00,93.37
651.00,93.25
650.00,93.13
649.00,93.00
648.00,92.84
647.00,92.68
646.00,92.57
645.00,92.47
644.00,92.37
643.00,92.26
642.00,92.14
641.00,91.99
640.00,91.79
639.00,91.51
638.00,91.16
637.00,90.75
636.00,90.35
635.00,90.08
634.00,89.99
633.00,90.00
632.00,90.03
631.00,90.05
630.00,90.04
629.00,89.93
628.00,89.68
627.00,89.37
626.00,89.08
625.00,88.87
624.00,88.73
623.00,88.67
622.00,88.68
621.00,88.67
620.00,88.63
619.00,88.65
618.00,88.76
617.00,88.85
616.00,88.84
615.00,88.74
614.00,88.65
613.00,88.58
612.00,88.55
611.00,88.61
610.00,88.72
609.00,88.82
608.00,88.90
607.00,88.99
606.00,89.03
605.00,89.01
604.00,89.20
603.00,90.02
602.00,91.45
601.00,92.76
600.00,93.15
599.00,92.52
598.00,91.53
597.00,90.86
596.00,90.67
595.00,90.72
594.00,90.82
593.00,90.91
592.00,90.99
591.00,91.14
590.00,91.39
589.00,91.68
588.00,91.85
587.00,91.80
586.00,91.62
585.00,91.53
584.00,91.66
583.00,92.06
582.00,92.60
581.00,93.18
580.00,93.67
579.00,94.02
578.00,94.16
577.00,94.06
576.00,93.75
575.00,93.39
574.00,93.18
573.00,93.18
572.00,93.31
571.00,93.57
570.00,93.93
569.00,94.17
568.00,93.94
567.00,93.21
566.00,92.45
565.00,92.19
564.00,92.46
563.00,92.91
562.00,93.22
561.00,93.36
560.00,93.44
559.00,93.51
558.00,93.53
557.00,93.56
556.00,93.69
555.00,93.85
554.00,93.74
553.00,93.13
552.00,92.16
551.00,91.39
550.00,91.29
