Created as New Dataset,57 Modacrylic Bayer Dralon C Germany PAN + VDC(37%) (DMF solvent). No ester, aliphatic sulphonate dye site. Obsolete.
cm-1,%T
4000.00,102.18
3999.00,102.17
3998.00,102.18
3997.00,102.19
3996.00,102.20
3995.00,102.20
3994.00,102.21
3993.00,102.21
3992.00,102.21
3991.00,102.21
3990.00,102.20
3989.00,102.19
3988.00,102.17
3987.00,102.17
3986.00,102.17
3985.00,102.17
3984.00,102.16
3983.00,102.15
3982.00,102.14
3981.00,102.14
3980.00,102.15
3979.00,102.17
3978.00,102.19
3977.00,102.20
3976.00,102.20
3975.00,102.20
3974.00,102.19
3973.00,102.19
3972.00,102.21
3971.00,102.22
3970.00,102.23
3969.00,102.23
3968.00,102.23
3967.00,102.23
3966.00,102.22
3965.00,102.20
3964.00,102.19
3963.00,102.18
3962.00,102.19
3961.00,102.19
3960.00,102.21
3959.00,102.21
3958.00,102.21
3957.00,102.21
3956.00,102.19
3955.00,102.18
3954.00,102.18
3953.00,102.17
3952.00,102.18
3951.00,102.18
3950.00,102.18
3949.00,102.18
3948.00,102.18
3947.00,102.19
3946.00,102.19
3945.00,102.19
3944.00,102.19
3943.00,102.18
3942.00,102.18
3941.00,102.19
3940.00,102.20
3939.00,102.20
3938.00,102.19
3937.00,102.19
3936.00,102.19
3935.00,102.21
3934.00,102.22
3933.00,102.22
3932.00,102.21
3931.00,102.20
3930.00,102.20
3929.00,102.21
3928.00,102.21
3927.00,102.22
3926.00,102.22
3925.00,102.22
3924.00,102.22
3923.00,102.22
3922.00,102.23
3921.00,102.24
3920.00,102.24
3919.00,102.24
3918.00,102.23
3917.00,102.22
3916.00,102.22
3915.00,102.22
3914.00,102.23
3913.00,102.22
3912.00,102.20
3911.00,102.18
3910.00,102.16
3909.00,102.18
3908.00,102.22
3907.00,102.28
3906.00,102.34
3905.00,102.37
3904.00,102.38
3903.00,102.37
3902.00,102.38
3901.00,102.38
3900.00,102.37
3899.00,102.33
3898.00,102.29
3897.00,102.25
3896.00,102.22
3895.00,102.20
3894.00,102.19
3893.00,102.20
3892.00,102.19
3891.00,102.19
3890.00,102.22
3889.00,102.28
3888.00,102.33
3887.00,102.35
3886.00,102.33
3885.00,102.29
3884.00,102.27
3883.00,102.27
3882.00,102.26
3881.00,102.22
3880.00,102.19
3879.00,102.18
3878.00,102.22
3877.00,102.26
3876.00,102.27
3875.00,102.26
3874.00,102.26
3873.00,102.28
3872.00,102.30
3871.00,102.29
3870.00,102.27
3869.00,102.29
3868.00,102.34
3867.00,102.39
3866.00,102.40
3865.00,102.36
3864.00,102.31
3863.00,102.27
3862.00,102.26
3861.00,102.25
3860.00,102.24
3859.00,102.26
3858.00,102.32
3857.00,102.43
3856.00,102.58
3855.00,102.69
3854.00,102.70
3853.00,102.65
3852.00,102.63
3851.00,102.63
3850.00,102.57
3849.00,102.44
3848.00,102.32
3847.00,102.23
3846.00,102.18
3845.00,102.17
3844.00,102.18
3843.00,102.20
3842.00,102.25
3841.00,102.29
3840.00,102.32
3839.00,102.33
3838.00,102.33
3837.00,102.34
3836.00,102.36
3835.00,102.36
3834.00,102.34
3833.00,102.29
3832.00,102.24
3831.00,102.20
3830.00,102.18
3829.00,102.17
3828.00,102.16
3827.00,102.15
3826.00,102.14
3825.00,102.15
3824.00,102.20
3823.00,102.24
3822.00,102.24
3821.00,102.22
3820.00,102.23
3819.00,102.28
3818.00,102.33
3817.00,102.32
3816.00,102.25
3815.00,102.19
3814.00,102.16
3813.00,102.15
3812.00,102.13
3811.00,102.11
3810.00,102.13
3809.00,102.18
3808.00,102.21
3807.00,102.22
3806.00,102.22
3805.00,102.26
3804.00,102.31
3803.00,102.32
3802.00,102.27
3801.00,102.21
3800.00,102.20
3799.00,102.21
3798.00,102.21
3797.00,102.16
3796.00,102.10
3795.00,102.05
3794.00,102.03
3793.00,102.02
3792.00,102.00
3791.00,101.98
3790.00,101.95
3789.00,101.93
3788.00,101.91
3787.00,101.91
3786.00,101.92
3785.00,101.94
3784.00,101.97
3783.00,102.01
3782.00,102.05
3781.00,102.08
3780.00,102.08
3779.00,102.05
3778.00,102.02
3777.00,102.00
3776.00,101.98
3775.00,101.98
3774.00,101.99
3773.00,102.01
3772.00,102.04
3771.00,102.06
3770.00,102.07
3769.00,102.07
3768.00,102.08
3767.00,102.08
3766.00,102.05
3765.00,102.02
3764.00,102.01
3763.00,102.04
3762.00,102.09
3761.00,102.12
3760.00,102.12
3759.00,102.09
3758.00,102.06
3757.00,102.05
3756.00,102.08
3755.00,102.15
3754.00,102.23
3753.00,102.31
3752.00,102.36
3751.00,102.37
3750.00,102.37
3749.00,102.40
3748.00,102.43
3747.00,102.45
3746.00,102.43
3745.00,102.35
3744.00,102.26
3743.00,102.24
3742.00,102.27
3741.00,102.26
3740.00,102.22
3739.00,102.21
3738.00,102.23
3737.00,102.26
3736.00,102.26
3735.00,102.25
3734.00,102.24
3733.00,102.22
3732.00,102.19
3731.00,102.16
3730.00,102.15
3729.00,102.14
3728.00,102.13
3727.00,102.11
3726.00,102.08
3725.00,102.06
3724.00,102.05
3723.00,102.03
3722.00,102.00
3721.00,101.97
3720.00,101.95
3719.00,101.94
3718.00,101.93
3717.00,101.93
3716.00,101.97
3715.00,102.03
3714.00,102.09
3713.00,102.13
3712.00,102.13
3711.00,102.11
3710.00,102.09
3709.00,102.05
3708.00,102.00
3707.00,101.94
3706.00,101.90
3705.00,101.90
3704.00,101.91
3703.00,101.93
3702.00,101.94
3701.00,101.95
3700.00,101.97
3699.00,101.99
3698.00,101.98
3697.00,101.96
3696.00,101.93
3695.00,101.92
3694.00,101.93
3693.00,101.94
3692.00,101.97
3691.00,101.99
3690.00,101.99
3689.00,101.98
3688.00,101.96
3687.00,101.97
3686.00,101.97
3685.00,101.94
3684.00,101.89
3683.00,101.86
3682.00,101.85
3681.00,101.88
3680.00,101.93
3679.00,102.00
3678.00,102.06
3677.00,102.07
3676.00,102.03
3675.00,102.00
3674.00,102.04
3673.00,102.13
3672.00,102.16
3671.00,102.11
3670.00,102.01
3669.00,101.93
3668.00,101.90
3667.00,101.87
3666.00,101.81
3665.00,101.72
3664.00,101.65
3663.00,101.60
3662.00,101.60
3661.00,101.61
3660.00,101.64
3659.00,101.67
3658.00,101.68
3657.00,101.67
3656.00,101.65
3655.00,101.67
3654.00,101.73
3653.00,101.79
3652.00,101.84
3651.00,101.85
3650.00,101.84
3649.00,101.80
3648.00,101.77
3647.00,101.73
3646.00,101.68
3645.00,101.62
3644.00,101.55
3643.00,101.49
3642.00,101.45
3641.00,101.44
3640.00,101.45
3639.00,101.47
3638.00,101.48
3637.00,101.48
3636.00,101.48
3635.00,101.47
3634.00,101.47
3633.00,101.51
3632.00,101.58
3631.00,101.65
3630.00,101.67
3629.00,101.63
3628.00,101.60
3627.00,101.62
3626.00,101.64
3625.00,101.60
3624.00,101.53
3623.00,101.49
3622.00,101.48
3621.00,101.50
3620.00,101.53
3619.00,101.55
3618.00,101.57
3617.00,101.59
3616.00,101.59
3615.00,101.56
3614.00,101.51
3613.00,101.47
3612.00,101.46
3611.00,101.49
3610.00,101.52
3609.00,101.51
3608.00,101.48
3607.00,101.45
3606.00,101.44
3605.00,101.45
3604.00,101.46
3603.00,101.48
3602.00,101.48
3601.00,101.47
3600.00,101.46
3599.00,101.45
3598.00,101.44
3597.00,101.43
3596.00,101.42
3595.00,101.41
3594.00,101.42
3593.00,101.42
3592.00,101.44
3591.00,101.45
3590.00,101.46
3589.00,101.46
3588.00,101.44
3587.00,101.43
3586.00,101.44
3585.00,101.45
3584.00,101.45
3583.00,101.43
3582.00,101.40
3581.00,101.38
3580.00,101.35
3579.00,101.34
3578.00,101.33
3577.00,101.31
3576.00,101.30
3575.00,101.28
3574.00,101.28
3573.00,101.30
3572.00,101.33
3571.00,101.36
3570.00,101.39
3569.00,101.41
3568.00,101.41
3567.00,101.41
3566.00,101.42
3565.00,101.43
3564.00,101.42
3563.00,101.37
3562.00,101.31
3561.00,101.28
3560.00,101.26
3559.00,101.26
3558.00,101.25
3557.00,101.22
3556.00,101.21
3555.00,101.22
3554.00,101.25
3553.00,101.28
3552.00,101.30
3551.00,101.31
3550.00,101.31
3549.00,101.30
3548.00,101.30
3547.00,101.29
3546.00,101.29
3545.00,101.29
3544.00,101.28
3543.00,101.27
3542.00,101.26
3541.00,101.25
3540.00,101.25
3539.00,101.26
3538.00,101.27
3537.00,101.27
3536.00,101.25
3535.00,101.23
3534.00,101.23
3533.00,101.23
3532.00,101.24
3531.00,101.23
3530.00,101.20
3529.00,101.17
3528.00,101.16
3527.00,101.16
3526.00,101.18
3525.00,101.19
3524.00,101.18
3523.00,101.17
3522.00,101.18
3521.00,101.19
3520.00,101.20
3519.00,101.21
3518.00,101.21
3517.00,101.20
3516.00,101.20
3515.00,101.19
3514.00,101.18
3513.00,101.19
3512.00,101.19
3511.00,101.20
3510.00,101.20
3509.00,101.20
3508.00,101.22
3507.00,101.23
3506.00,101.23
3505.00,101.22
3504.00,101.20
3503.00,101.19
3502.00,101.18
3501.00,101.19
3500.00,101.21
3499.00,101.22
3498.00,101.22
3497.00,101.21
3496.00,101.20
3495.00,101.19
3494.00,101.18
3493.00,101.18
3492.00,101.19
3491.00,101.22
3490.00,101.24
3489.00,101.26
3488.00,101.27
3487.00,101.27
3486.00,101.26
3485.00,101.25
3484.00,101.24
3483.00,101.22
3482.00,101.20
3481.00,101.19
3480.00,101.19
3479.00,101.21
3478.00,101.22
3477.00,101.23
3476.00,101.23
3475.00,101.21
3474.00,101.20
3473.00,101.19
3472.00,101.20
3471.00,101.21
3470.00,101.22
3469.00,101.23
3468.00,101.23
3467.00,101.22
3466.00,101.21
3465.00,101.19
3464.00,101.17
3463.00,101.15
3462.00,101.14
3461.00,101.14
3460.00,101.14
3459.00,101.15
3458.00,101.15
3457.00,101.16
3456.00,101.16
3455.00,101.17
3454.00,101.17
3453.00,101.16
3452.00,101.16
3451.00,101.17
3450.00,101.17
3449.00,101.18
3448.00,101.19
3447.00,101.20
3446.00,101.19
3445.00,101.18
3444.00,101.15
3443.00,101.12
3442.00,101.11
3441.00,101.12
3440.00,101.12
3439.00,101.12
3438.00,101.11
3437.00,101.10
3436.00,101.12
3435.00,101.14
3434.00,101.16
3433.00,101.18
3432.00,101.18
3431.00,101.19
3430.00,101.20
3429.00,101.21
3428.00,101.20
3427.00,101.20
3426.00,101.21
3425.00,101.23
3424.00,101.24
3423.00,101.23
3422.00,101.21
3421.00,101.18
3420.00,101.16
3419.00,101.16
3418.00,101.16
3417.00,101.16
3416.00,101.17
3415.00,101.17
3414.00,101.18
3413.00,101.18
3412.00,101.18
3411.00,101.17
3410.00,101.15
3409.00,101.13
3408.00,101.13
3407.00,101.15
3406.00,101.16
3405.00,101.17
3404.00,101.18
3403.00,101.18
3402.00,101.19
3401.00,101.20
3400.00,101.20
3399.00,101.20
3398.00,101.18
3397.00,101.18
3396.00,101.18
3395.00,101.19
3394.00,101.21
3393.00,101.22
3392.00,101.21
3391.00,101.19
3390.00,101.18
3389.00,101.18
3388.00,101.18
3387.00,101.18
3386.00,101.17
3385.00,101.14
3384.00,101.10
3383.00,101.08
3382.00,101.09
3381.00,101.11
3380.00,101.14
3379.00,101.15
3378.00,101.15
3377.00,101.15
3376.00,101.15
3375.00,101.16
3374.00,101.15
3373.00,101.15
3372.00,101.13
3371.00,101.13
3370.00,101.13
3369.00,101.14
3368.00,101.15
3367.00,101.16
3366.00,101.16
3365.00,101.17
3364.00,101.17
3363.00,101.16
3362.00,101.16
3361.00,101.16
3360.00,101.17
3359.00,101.17
3358.00,101.16
3357.00,101.15
3356.00,101.14
3355.00,101.12
3354.00,101.11
3353.00,101.10
3352.00,101.08
3351.00,101.08
3350.00,101.08
3349.00,101.10
3348.00,101.10
3347.00,101.09
3346.00,101.07
3345.00,101.05
3344.00,101.04
3343.00,101.04
3342.00,101.05
3341.00,101.07
3340.00,101.09
3339.00,101.09
3338.00,101.09
3337.00,101.09
3336.00,101.10
3335.00,101.12
3334.00,101.14
3333.00,101.14
3332.00,101.14
3331.00,101.12
3330.00,101.12
3329.00,101.13
3328.00,101.14
3327.00,101.16
3326.00,101.18
3325.00,101.19
3324.00,101.19
3323.00,101.17
3322.00,101.15
3321.00,101.13
3320.00,101.12
3319.00,101.11
3318.00,101.10
3317.00,101.10
3316.00,101.11
3315.00,101.12
3314.00,101.12
3313.00,101.11
3312.00,101.10
3311.00,101.10
3310.00,101.11
3309.00,101.10
3308.00,101.09
3307.00,101.08
3306.00,101.07
3305.00,101.07
3304.00,101.07
3303.00,101.08
3302.00,101.09
3301.00,101.11
3300.00,101.13
3299.00,101.14
3298.00,101.15
3297.00,101.15
3296.00,101.14
3295.00,101.12
3294.00,101.09
3293.00,101.06
3292.00,101.02
3291.00,101.00
3290.00,100.99
3289.00,100.99
3288.00,101.00
3287.00,101.01
3286.00,101.02
3285.00,101.03
3284.00,101.04
3283.00,101.05
3282.00,101.06
3281.00,101.06
3280.00,101.05
3279.00,101.05
3278.00,101.05
3277.00,101.07
3276.00,101.09
3275.00,101.10
3274.00,101.09
3273.00,101.07
3272.00,101.05
3271.00,101.05
3270.00,101.06
3269.00,101.08
3268.00,101.10
3267.00,101.10
3266.00,101.09
3265.00,101.07
3264.00,101.05
3263.00,101.05
3262.00,101.04
3261.00,101.04
3260.00,101.03
3259.00,101.02
3258.00,101.00
3257.00,100.99
3256.00,100.99
3255.00,101.00
3254.00,101.02
3253.00,101.04
3252.00,101.04
3251.00,101.02
3250.00,101.00
3249.00,100.99
3248.00,100.98
3247.00,100.99
3246.00,101.00
3245.00,101.01
3244.00,101.00
3243.00,101.00
3242.00,100.99
3241.00,100.99
3240.00,101.00
3239.00,101.00
3238.00,101.00
3237.00,101.00
3236.00,101.00
3235.00,101.00
3234.00,100.99
3233.00,100.99
3232.00,100.98
3231.00,100.99
3230.00,101.00
3229.00,101.03
3228.00,101.05
3227.00,101.06
3226.00,101.06
3225.00,101.05
3224.00,101.05
3223.00,101.05
3222.00,101.05
3221.00,101.05
3220.00,101.06
3219.00,101.06
3218.00,101.06
3217.00,101.06
3216.00,101.04
3215.00,101.03
3214.00,101.01
3213.00,101.01
3212.00,101.02
3211.00,101.03
3210.00,101.04
3209.00,101.03
3208.00,101.04
3207.00,101.05
3206.00,101.06
3205.00,101.06
3204.00,101.04
3203.00,101.02
3202.00,101.01
3201.00,101.02
3200.00,101.04
3199.00,101.04
3198.00,101.03
3197.00,101.02
3196.00,101.01
3195.00,101.01
3194.00,101.02
3193.00,101.02
3192.00,101.02
3191.00,101.03
3190.00,101.04
3189.00,101.04
3188.00,101.04
3187.00,101.03
3186.00,101.02
3185.00,101.01
3184.00,101.00
3183.00,101.00
3182.00,101.01
3181.00,101.01
3180.00,101.01
3179.00,101.01
3178.00,101.01
3177.00,101.01
3176.00,101.02
3175.00,101.02
3174.00,101.02
3173.00,101.00
3172.00,101.00
3171.00,101.00
3170.00,101.00
3169.00,101.01
3168.00,101.01
3167.00,101.00
3166.00,100.98
3165.00,100.98
3164.00,100.99
3163.00,101.01
3162.00,101.02
3161.00,101.02
3160.00,101.03
3159.00,101.04
3158.00,101.06
3157.00,101.06
3156.00,101.05
3155.00,101.04
3154.00,101.04
3153.00,101.03
3152.00,101.04
3151.00,101.05
3150.00,101.06
3149.00,101.07
3148.00,101.08
3147.00,101.08
3146.00,101.08
3145.00,101.06
3144.00,101.05
3143.00,101.03
3142.00,101.03
3141.00,101.04
3140.00,101.05
3139.00,101.06
3138.00,101.06
3137.00,101.07
3136.00,101.07
3135.00,101.07
3134.00,101.07
3133.00,101.07
3132.00,101.07
3131.00,101.07
3130.00,101.07
3129.00,101.08
3128.00,101.08
3127.00,101.07
3126.00,101.07
3125.00,101.06
3124.00,101.06
3123.00,101.06
3122.00,101.06
3121.00,101.07
3120.00,101.08
3119.00,101.09
3118.00,101.10
3117.00,101.10
3116.00,101.09
3115.00,101.07
3114.00,101.05
3113.00,101.03
3112.00,101.03
3111.00,101.02
3110.00,101.01
3109.00,101.01
3108.00,101.01
3107.00,101.03
3106.00,101.07
3105.00,101.09
3104.00,101.09
3103.00,101.08
3102.00,101.07
3101.00,101.07
3100.00,101.08
3099.00,101.10
3098.00,101.10
3097.00,101.10
3096.00,101.08
3095.00,101.06
3094.00,101.05
3093.00,101.04
3092.00,101.04
3091.00,101.04
3090.00,101.06
3089.00,101.06
3088.00,101.05
3087.00,101.02
3086.00,101.00
3085.00,100.99
3084.00,100.99
3083.00,100.98
3082.00,100.98
3081.00,100.98
3080.00,100.99
3079.00,100.98
3078.00,100.98
3077.00,100.96
3076.00,100.94
3075.00,100.94
3074.00,100.94
3073.00,100.94
3072.00,100.95
3071.00,100.95
3070.00,100.95
3069.00,100.94
3068.00,100.93
3067.00,100.92
3066.00,100.91
3065.00,100.91
3064.00,100.91
3063.00,100.90
3062.00,100.90
3061.00,100.91
3060.00,100.91
3059.00,100.92
3058.00,100.93
3057.00,100.95
3056.00,100.96
3055.00,100.96
3054.00,100.95
3053.00,100.94
3052.00,100.94
3051.00,100.94
3050.00,100.95
3049.00,100.96
3048.00,100.97
3047.00,100.98
3046.00,100.99
3045.00,101.00
3044.00,101.00
3043.00,101.00
3042.00,101.01
3041.00,101.01
3040.00,101.00
3039.00,100.98
3038.00,100.96
3037.00,100.94
3036.00,100.92
3035.00,100.91
3034.00,100.91
3033.00,100.92
3032.00,100.94
3031.00,100.96
3030.00,100.96
3029.00,100.95
3028.00,100.93
3027.00,100.91
3026.00,100.90
3025.00,100.88
3024.00,100.86
3023.00,100.84
3022.00,100.84
3021.00,100.84
3020.00,100.86
3019.00,100.86
3018.00,100.86
3017.00,100.86
3016.00,100.86
3015.00,100.86
3014.00,100.86
3013.00,100.86
3012.00,100.84
3011.00,100.82
3010.00,100.79
3009.00,100.77
3008.00,100.74
3007.00,100.72
3006.00,100.70
3005.00,100.69
3004.00,100.68
3003.00,100.67
3002.00,100.65
3001.00,100.64
3000.00,100.64
2999.00,100.62
2998.00,100.60
2997.00,100.57
2996.00,100.53
2995.00,100.49
2994.00,100.45
2993.00,100.43
2992.00,100.41
2991.00,100.40
2990.00,100.38
2989.00,100.36
2988.00,100.34
2987.00,100.32
2986.00,100.31
2985.00,100.31
2984.00,100.31
2983.00,100.31
2982.00,100.28
2981.00,100.25
2980.00,100.22
2979.00,100.21
2978.00,100.20
2977.00,100.21
2976.00,100.21
2975.00,100.21
2974.00,100.22
2973.00,100.23
2972.00,100.25
2971.00,100.26
2970.00,100.27
2969.00,100.26
2968.00,100.24
2967.00,100.23
2966.00,100.22
2965.00,100.22
2964.00,100.21
2963.00,100.21
2962.00,100.20
2961.00,100.20
2960.00,100.20
2959.00,100.19
2958.00,100.17
2957.00,100.14
2956.00,100.12
2955.00,100.10
2954.00,100.07
2953.00,100.04
2952.00,100.00
2951.00,99.97
2950.00,99.95
2949.00,99.92
2948.00,99.89
2947.00,99.83
2946.00,99.76
2945.00,99.70
2944.00,99.65
2943.00,99.61
2942.00,99.58
2941.00,99.56
2940.00,99.55
2939.00,99.54
2938.00,99.53
2937.00,99.52
2936.00,99.52
2935.00,99.51
2934.00,99.50
2933.00,99.47
2932.00,99.45
2931.00,99.42
2930.00,99.39
2929.00,99.38
2928.00,99.38
2927.00,99.39
2926.00,99.39
2925.00,99.40
2924.00,99.42
2923.00,99.46
2922.00,99.51
2921.00,99.55
2920.00,99.59
2919.00,99.63
2918.00,99.67
2917.00,99.72
2916.00,99.79
2915.00,99.86
2914.00,99.93
2913.00,99.99
2912.00,100.04
2911.00,100.10
2910.00,100.15
2909.00,100.20
2908.00,100.24
2907.00,100.28
2906.00,100.31
2905.00,100.35
2904.00,100.39
2903.00,100.42
2902.00,100.45
2901.00,100.46
2900.00,100.48
2899.00,100.49
2898.00,100.50
2897.00,100.51
2896.00,100.53
2895.00,100.54
2894.00,100.55
2893.00,100.56
2892.00,100.56
2891.00,100.56
2890.00,100.57
2889.00,100.58
2888.00,100.59
2887.00,100.60
2886.00,100.61
2885.00,100.62
2884.00,100.62
2883.00,100.62
2882.00,100.62
2881.00,100.62
2880.00,100.63
2879.00,100.63
2878.00,100.63
2877.00,100.63
2876.00,100.63
2875.00,100.63
2874.00,100.64
2873.00,100.65
2872.00,100.65
2871.00,100.65
2870.00,100.65
2869.00,100.65
2868.00,100.65
2867.00,100.66
2866.00,100.66
2865.00,100.65
2864.00,100.64
2863.00,100.63
2862.00,100.62
2861.00,100.62
2860.00,100.62
2859.00,100.62
2858.00,100.62
2857.00,100.64
2856.00,100.65
2855.00,100.64
2854.00,100.63
2853.00,100.61
2852.00,100.61
2851.00,100.61
2850.00,100.61
2849.00,100.63
2848.00,100.66
2847.00,100.69
2846.00,100.73
2845.00,100.75
2844.00,100.77
2843.00,100.78
2842.00,100.79
2841.00,100.79
2840.00,100.80
2839.00,100.81
2838.00,100.82
2837.00,100.82
2836.00,100.81
2835.00,100.80
2834.00,100.79
2833.00,100.79
2832.00,100.80
2831.00,100.82
2830.00,100.83
2829.00,100.84
2828.00,100.85
2827.00,100.85
2826.00,100.86
2825.00,100.87
2824.00,100.88
2823.00,100.88
2822.00,100.87
2821.00,100.86
2820.00,100.85
2819.00,100.86
2818.00,100.86
2817.00,100.86
2816.00,100.86
2815.00,100.86
2814.00,100.87
2813.00,100.88
2812.00,100.88
2811.00,100.87
2810.00,100.84
2809.00,100.82
2808.00,100.80
2807.00,100.80
2806.00,100.80
2805.00,100.80
2804.00,100.79
2803.00,100.79
2802.00,100.79
2801.00,100.80
2800.00,100.81
2799.00,100.82
2798.00,100.83
2797.00,100.84
2796.00,100.85
2795.00,100.85
2794.00,100.86
2793.00,100.86
2792.00,100.87
2791.00,100.87
2790.00,100.87
2789.00,100.87
2788.00,100.86
2787.00,100.85
2786.00,100.84
2785.00,100.84
2784.00,100.84
2783.00,100.84
2782.00,100.86
2781.00,100.87
2780.00,100.88
2779.00,100.88
2778.00,100.88
2777.00,100.89
2776.00,100.90
2775.00,100.91
2774.00,100.91
2773.00,100.90
2772.00,100.90
2771.00,100.90
2770.00,100.90
2769.00,100.91
2768.00,100.90
2767.00,100.89
2766.00,100.89
2765.00,100.88
2764.00,100.88
2763.00,100.88
2762.00,100.88
2761.00,100.88
2760.00,100.89
2759.00,100.90
2758.00,100.90
2757.00,100.88
2756.00,100.87
2755.00,100.86
2754.00,100.86
2753.00,100.85
2752.00,100.85
2751.00,100.85
2750.00,100.86
2749.00,100.85
2748.00,100.83
2747.00,100.82
2746.00,100.82
2745.00,100.84
2744.00,100.86
2743.00,100.87
2742.00,100.87
2741.00,100.87
2740.00,100.86
2739.00,100.85
2738.00,100.84
2737.00,100.83
2736.00,100.83
2735.00,100.83
2734.00,100.83
2733.00,100.85
2732.00,100.86
2731.00,100.87
2730.00,100.87
2729.00,100.86
2728.00,100.85
2727.00,100.83
2726.00,100.83
2725.00,100.84
2724.00,100.85
2723.00,100.85
2722.00,100.84
2721.00,100.83
2720.00,100.83
2719.00,100.82
2718.00,100.82
2717.00,100.81
2716.00,100.81
2715.00,100.82
2714.00,100.83
2713.00,100.83
2712.00,100.84
2711.00,100.84
2710.00,100.85
2709.00,100.85
2708.00,100.84
2707.00,100.85
2706.00,100.85
2705.00,100.85
2704.00,100.84
2703.00,100.81
2702.00,100.78
2701.00,100.77
2700.00,100.77
2699.00,100.78
2698.00,100.79
2697.00,100.79
2696.00,100.79
2695.00,100.78
2694.00,100.78
2693.00,100.78
2692.00,100.79
2691.00,100.80
2690.00,100.80
2689.00,100.79
2688.00,100.79
2687.00,100.79
2686.00,100.80
2685.00,100.80
2684.00,100.81
2683.00,100.82
2682.00,100.81
2681.00,100.80
2680.00,100.79
2679.00,100.79
2678.00,100.79
2677.00,100.79
2676.00,100.80
2675.00,100.80
2674.00,100.81
2673.00,100.82
2672.00,100.83
2671.00,100.83
2670.00,100.82
2669.00,100.81
2668.00,100.81
2667.00,100.81
2666.00,100.81
2665.00,100.81
2664.00,100.80
2663.00,100.80
2662.00,100.79
2661.00,100.77
2660.00,100.75
2659.00,100.73
2658.00,100.71
2657.00,100.71
2656.00,100.71
2655.00,100.72
2654.00,100.73
2653.00,100.72
2652.00,100.71
2651.00,100.70
2650.00,100.68
2649.00,100.66
2648.00,100.64
2647.00,100.62
2646.00,100.61
2645.00,100.61
2644.00,100.61
2643.00,100.62
2642.00,100.62
2641.00,100.62
2640.00,100.61
2639.00,100.61
2638.00,100.60
2637.00,100.60
2636.00,100.61
2635.00,100.62
2634.00,100.62
2633.00,100.61
2632.00,100.59
2631.00,100.59
2630.00,100.60
2629.00,100.62
2628.00,100.63
2627.00,100.63
2626.00,100.62
2625.00,100.61
2624.00,100.59
2623.00,100.57
2622.00,100.55
2621.00,100.53
2620.00,100.51
2619.00,100.52
2618.00,100.53
2617.00,100.55
2616.00,100.57
2615.00,100.57
2614.00,100.56
2613.00,100.55
2612.00,100.56
2611.00,100.57
2610.00,100.57
2609.00,100.56
2608.00,100.53
2607.00,100.51
2606.00,100.51
2605.00,100.51
2604.00,100.51
2603.00,100.52
2602.00,100.52
2601.00,100.52
2600.00,100.52
2599.00,100.53
2598.00,100.52
2597.00,100.52
2596.00,100.52
2595.00,100.52
2594.00,100.52
2593.00,100.52
2592.00,100.52
2591.00,100.50
2590.00,100.49
2589.00,100.47
2588.00,100.45
2587.00,100.44
2586.00,100.45
2585.00,100.48
2584.00,100.50
2583.00,100.50
2582.00,100.49
2581.00,100.48
2580.00,100.49
2579.00,100.50
2578.00,100.51
2577.00,100.53
2576.00,100.54
2575.00,100.54
2574.00,100.53
2573.00,100.52
2572.00,100.51
2571.00,100.50
2570.00,100.50
2569.00,100.49
2568.00,100.48
2567.00,100.48
2566.00,100.47
2565.00,100.47
2564.00,100.47
2563.00,100.47
2562.00,100.47
2561.00,100.47
2560.00,100.45
2559.00,100.43
2558.00,100.42
2557.00,100.44
2556.00,100.47
2555.00,100.51
2554.00,100.53
2553.00,100.53
2552.00,100.50
2551.00,100.46
2550.00,100.41
2549.00,100.37
2548.00,100.35
2547.00,100.34
2546.00,100.35
2545.00,100.36
2544.00,100.37
2543.00,100.37
2542.00,100.37
2541.00,100.37
2540.00,100.37
2539.00,100.38
2538.00,100.40
2537.00,100.41
2536.00,100.40
2535.00,100.38
2534.00,100.35
2533.00,100.34
2532.00,100.34
2531.00,100.35
2530.00,100.36
2529.00,100.37
2528.00,100.37
2527.00,100.37
2526.00,100.37
2525.00,100.38
2524.00,100.38
2523.00,100.38
2522.00,100.38
2521.00,100.37
2520.00,100.37
2519.00,100.36
2518.00,100.35
2517.00,100.33
2516.00,100.31
2515.00,100.30
2514.00,100.31
2513.00,100.33
2512.00,100.36
2511.00,100.37
2510.00,100.37
2509.00,100.36
2508.00,100.36
2507.00,100.38
2506.00,100.40
2505.00,100.41
2504.00,100.42
2503.00,100.43
2502.00,100.45
2501.00,100.46
2500.00,100.44
2499.00,100.42
2498.00,100.39
2497.00,100.37
2496.00,100.36
2495.00,100.36
2494.00,100.38
2493.00,100.41
2492.00,100.43
2491.00,100.43
2490.00,100.41
2489.00,100.39
2488.00,100.37
2487.00,100.37
2486.00,100.38
2485.00,100.40
2484.00,100.41
2483.00,100.42
2482.00,100.43
2481.00,100.44
2480.00,100.43
2479.00,100.40
2478.00,100.36
2477.00,100.34
2476.00,100.33
2475.00,100.34
2474.00,100.36
2473.00,100.38
2472.00,100.40
2471.00,100.42
2470.00,100.44
2469.00,100.45
2468.00,100.46
2467.00,100.44
2466.00,100.42
2465.00,100.40
2464.00,100.39
2463.00,100.38
2462.00,100.38
2461.00,100.36
2460.00,100.34
2459.00,100.32
2458.00,100.31
2457.00,100.31
2456.00,100.31
2455.00,100.31
2454.00,100.33
2453.00,100.35
2452.00,100.36
2451.00,100.36
2450.00,100.35
2449.00,100.33
2448.00,100.32
2447.00,100.33
2446.00,100.35
2445.00,100.37
2444.00,100.38
2443.00,100.38
2442.00,100.37
2441.00,100.35
2440.00,100.34
2439.00,100.33
2438.00,100.33
2437.00,100.33
2436.00,100.34
2435.00,100.34
2434.00,100.34
2433.00,100.32
2432.00,100.31
2431.00,100.30
2430.00,100.30
2429.00,100.31
2428.00,100.30
2427.00,100.30
2426.00,100.30
2425.00,100.31
2424.00,100.34
2423.00,100.38
2422.00,100.41
2421.00,100.42
2420.00,100.42
2419.00,100.42
2418.00,100.41
2417.00,100.39
2416.00,100.38
2415.00,100.38
2414.00,100.39
2413.00,100.40
2412.00,100.42
2411.00,100.43
2410.00,100.43
2409.00,100.43
2408.00,100.44
2407.00,100.45
2406.00,100.44
2405.00,100.42
2404.00,100.39
2403.00,100.38
2402.00,100.41
2401.00,100.44
2400.00,100.47
2399.00,100.48
2398.00,100.49
2397.00,100.48
2396.00,100.47
2395.00,100.46
2394.00,100.46
2393.00,100.48
2392.00,100.49
2391.00,100.49
2390.00,100.48
2389.00,100.47
2388.00,100.48
2387.00,100.50
2386.00,100.52
2385.00,100.53
2384.00,100.54
2383.00,100.54
2382.00,100.55
2381.00,100.57
2380.00,100.61
2379.00,100.65
2378.00,100.69
2377.00,100.70
2376.00,100.71
2375.00,100.74
2374.00,100.78
2373.00,100.81
2372.00,100.79
2371.00,100.74
2370.00,100.70
2369.00,100.69
2368.00,100.71
2367.00,100.74
2366.00,100.78
2365.00,100.81
2364.00,100.81
2363.00,100.80
2362.00,100.78
2361.00,100.76
2360.00,100.75
2359.00,100.76
2358.00,100.79
2357.00,100.83
2356.00,100.86
2355.00,100.88
2354.00,100.86
2353.00,100.81
2352.00,100.77
2351.00,100.76
2350.00,100.79
2349.00,100.81
2348.00,100.79
2347.00,100.79
2346.00,100.81
2345.00,100.89
2344.00,101.01
2343.00,101.10
2342.00,101.11
2341.00,101.04
2340.00,100.96
2339.00,100.89
2338.00,100.83
2337.00,100.78
2336.00,100.73
2335.00,100.68
2334.00,100.64
2333.00,100.64
2332.00,100.65
2331.00,100.66
2330.00,100.66
2329.00,100.64
2328.00,100.61
2327.00,100.59
2326.00,100.55
2325.00,100.52
2324.00,100.47
2323.00,100.44
2322.00,100.41
2321.00,100.38
2320.00,100.36
2319.00,100.33
2318.00,100.30
2317.00,100.27
2316.00,100.27
2315.00,100.27
2314.00,100.26
2313.00,100.26
2312.00,100.25
2311.00,100.25
2310.00,100.25
2309.00,100.26
2308.00,100.27
2307.00,100.29
2306.00,100.30
2305.00,100.31
2304.00,100.31
2303.00,100.29
2302.00,100.27
2301.00,100.25
2300.00,100.22
2299.00,100.18
2298.00,100.13
2297.00,100.08
2296.00,100.06
2295.00,100.04
2294.00,100.04
2293.00,100.03
2292.00,100.04
2291.00,100.05
2290.00,100.05
2289.00,100.03
2288.00,99.99
2287.00,99.96
2286.00,99.94
2285.00,99.93
2284.00,99.92
2283.00,99.92
2282.00,99.93
2281.00,99.95
2280.00,99.98
2279.00,99.98
2278.00,99.97
2277.00,99.93
2276.00,99.88
2275.00,99.85
2274.00,99.84
2273.00,99.84
2272.00,99.84
2271.00,99.83
2270.00,99.79
2269.00,99.73
2268.00,99.67
2267.00,99.62
2266.00,99.58
2265.00,99.56
2264.00,99.54
2263.00,99.51
2262.00,99.46
2261.00,99.38
2260.00,99.28
2259.00,99.15
2258.00,99.01
2257.00,98.87
2256.00,98.73
2255.00,98.56
2254.00,98.35
2253.00,98.10
2252.00,97.85
2251.00,97.61
2250.00,97.38
2249.00,97.17
2248.00,96.98
2247.00,96.83
2246.00,96.70
2245.00,96.62
2244.00,96.61
2243.00,96.69
2242.00,96.84
2241.00,97.06
2240.00,97.32
2239.00,97.60
2238.00,97.89
2237.00,98.19
2236.00,98.48
2235.00,98.73
2234.00,98.94
2233.00,99.11
2232.00,99.24
2231.00,99.36
2230.00,99.44
2229.00,99.50
2228.00,99.52
2227.00,99.54
2226.00,99.56
2225.00,99.59
2224.00,99.61
2223.00,99.61
2222.00,99.59
2221.00,99.54
2220.00,99.49
2219.00,99.46
2218.00,99.46
2217.00,99.48
2216.00,99.50
2215.00,99.49
2214.00,99.48
2213.00,99.49
2212.00,99.52
2211.00,99.54
2210.00,99.54
2209.00,99.54
2208.00,99.54
2207.00,99.55
2206.00,99.54
2205.00,99.51
2204.00,99.46
2203.00,99.43
2202.00,99.41
2201.00,99.41
2200.00,99.43
2199.00,99.48
2198.00,99.52
2197.00,99.54
2196.00,99.52
2195.00,99.49
2194.00,99.44
2193.00,99.36
2192.00,99.29
2191.00,99.26
2190.00,99.28
2189.00,99.35
2188.00,99.40
2187.00,99.43
2186.00,99.42
2185.00,99.41
2184.00,99.41
2183.00,99.43
2182.00,99.47
2181.00,99.51
2180.00,99.53
2179.00,99.53
2178.00,99.53
2177.00,99.52
2176.00,99.50
2175.00,99.48
2174.00,99.45
2173.00,99.42
2172.00,99.37
2171.00,99.30
2170.00,99.21
2169.00,99.12
2168.00,99.07
2167.00,99.06
2166.00,99.06
2165.00,99.02
2164.00,98.95
2163.00,98.91
2162.00,98.95
2161.00,99.06
2160.00,99.22
2159.00,99.39
2158.00,99.52
2157.00,99.58
2156.00,99.58
2155.00,99.57
2154.00,99.59
2153.00,99.63
2152.00,99.68
2151.00,99.70
2150.00,99.69
2149.00,99.65
2148.00,99.62
2147.00,99.62
2146.00,99.64
2145.00,99.66
2144.00,99.67
2143.00,99.67
2142.00,99.69
2141.00,99.73
2140.00,99.77
2139.00,99.80
2138.00,99.84
2137.00,99.88
2136.00,99.93
2135.00,99.96
2134.00,99.97
2133.00,99.96
2132.00,99.93
2131.00,99.90
2130.00,99.89
2129.00,99.90
2128.00,99.91
2127.00,99.91
2126.00,99.91
2125.00,99.91
2124.00,99.91
2123.00,99.91
2122.00,99.91
2121.00,99.90
2120.00,99.89
2119.00,99.88
2118.00,99.88
2117.00,99.88
2116.00,99.87
2115.00,99.85
2114.00,99.81
2113.00,99.77
2112.00,99.74
2111.00,99.72
2110.00,99.71
2109.00,99.71
2108.00,99.72
2107.00,99.73
2106.00,99.75
2105.00,99.77
2104.00,99.79
2103.00,99.80
2102.00,99.79
2101.00,99.77
2100.00,99.74
2099.00,99.71
2098.00,99.72
2097.00,99.75
2096.00,99.79
2095.00,99.81
2094.00,99.80
2093.00,99.76
2092.00,99.71
2091.00,99.67
2090.00,99.65
2089.00,99.65
2088.00,99.67
2087.00,99.70
2086.00,99.72
2085.00,99.72
2084.00,99.73
2083.00,99.74
2082.00,99.75
2081.00,99.75
2080.00,99.74
2079.00,99.74
2078.00,99.74
2077.00,99.72
2076.00,99.69
2075.00,99.66
2074.00,99.65
2073.00,99.68
2072.00,99.72
2071.00,99.77
2070.00,99.81
2069.00,99.82
2068.00,99.82
2067.00,99.78
2066.00,99.74
2065.00,99.68
2064.00,99.62
2063.00,99.56
2062.00,99.52
2061.00,99.51
2060.00,99.54
2059.00,99.57
2058.00,99.58
2057.00,99.57
2056.00,99.56
2055.00,99.55
2054.00,99.52
2053.00,99.47
2052.00,99.39
2051.00,99.33
2050.00,99.29
2049.00,99.28
2048.00,99.29
2047.00,99.28
2046.00,99.29
2045.00,99.31
2044.00,99.32
2043.00,99.30
2042.00,99.23
2041.00,99.15
2040.00,99.09
2039.00,99.07
2038.00,99.08
2037.00,99.11
2036.00,99.16
2035.00,99.22
2034.00,99.25
2033.00,99.27
2032.00,99.28
2031.00,99.30
2030.00,99.33
2029.00,99.35
2028.00,99.34
2027.00,99.33
2026.00,99.31
2025.00,99.28
2024.00,99.25
2023.00,99.25
2022.00,99.30
2021.00,99.36
2020.00,99.37
2019.00,99.33
2018.00,99.29
2017.00,99.28
2016.00,99.31
2015.00,99.32
2014.00,99.31
2013.00,99.26
2012.00,99.23
2011.00,99.23
2010.00,99.26
2009.00,99.32
2008.00,99.40
2007.00,99.47
2006.00,99.52
2005.00,99.54
2004.00,99.53
2003.00,99.50
2002.00,99.47
2001.00,99.46
2000.00,99.47
1999.00,99.49
1998.00,99.51
1997.00,99.53
1996.00,99.53
1995.00,99.50
1994.00,99.43
1993.00,99.36
1992.00,99.32
1991.00,99.29
1990.00,99.26
1989.00,99.22
1988.00,99.20
1987.00,99.21
1986.00,99.24
1985.00,99.26
1984.00,99.27
1983.00,99.26
1982.00,99.24
1981.00,99.20
1980.00,99.15
1979.00,99.13
1978.00,99.15
1977.00,99.19
1976.00,99.23
1975.00,99.27
1974.00,99.30
1973.00,99.31
1972.00,99.33
1971.00,99.37
1970.00,99.44
1969.00,99.51
1968.00,99.55
1967.00,99.55
1966.00,99.50
1965.00,99.44
1964.00,99.41
1963.00,99.42
1962.00,99.46
1961.00,99.51
1960.00,99.55
1959.00,99.56
1958.00,99.56
1957.00,99.56
1956.00,99.57
1955.00,99.60
1954.00,99.64
1953.00,99.68
1952.00,99.70
1951.00,99.68
1950.00,99.63
1949.00,99.59
1948.00,99.57
1947.00,99.58
1946.00,99.59
1945.00,99.59
1944.00,99.59
1943.00,99.60
1942.00,99.61
1941.00,99.62
1940.00,99.62
1939.00,99.62
1938.00,99.63
1937.00,99.65
1936.00,99.67
1935.00,99.68
1934.00,99.69
1933.00,99.70
1932.00,99.72
1931.00,99.72
1930.00,99.70
1929.00,99.67
1928.00,99.65
1927.00,99.64
1926.00,99.66
1925.00,99.69
1924.00,99.72
1923.00,99.75
1922.00,99.77
1921.00,99.77
1920.00,99.76
1919.00,99.73
1918.00,99.69
1917.00,99.67
1916.00,99.66
1915.00,99.69
1914.00,99.74
1913.00,99.78
1912.00,99.80
1911.00,99.81
1910.00,99.82
1909.00,99.82
1908.00,99.81
1907.00,99.79
1906.00,99.76
1905.00,99.74
1904.00,99.72
1903.00,99.71
1902.00,99.71
1901.00,99.72
1900.00,99.73
1899.00,99.74
1898.00,99.75
1897.00,99.75
1896.00,99.76
1895.00,99.79
1894.00,99.82
1893.00,99.84
1892.00,99.84
1891.00,99.84
1890.00,99.85
1889.00,99.86
1888.00,99.87
1887.00,99.86
1886.00,99.84
1885.00,99.82
1884.00,99.81
1883.00,99.81
1882.00,99.82
1881.00,99.83
1880.00,99.83
1879.00,99.82
1878.00,99.81
1877.00,99.80
1876.00,99.80
1875.00,99.80
1874.00,99.81
1873.00,99.82
1872.00,99.82
1871.00,99.82
1870.00,99.81
1869.00,99.80
1868.00,99.78
1867.00,99.77
1866.00,99.77
1865.00,99.78
1864.00,99.79
1863.00,99.79
1862.00,99.80
1861.00,99.81
1860.00,99.83
1859.00,99.85
1858.00,99.86
1857.00,99.86
1856.00,99.84
1855.00,99.83
1854.00,99.83
1853.00,99.83
1852.00,99.84
1851.00,99.86
1850.00,99.89
1849.00,99.91
1848.00,99.93
1847.00,99.92
1846.00,99.90
1845.00,99.88
1844.00,99.87
1843.00,99.87
1842.00,99.85
1841.00,99.82
1840.00,99.80
1839.00,99.80
1838.00,99.82
1837.00,99.85
1836.00,99.86
1835.00,99.87
1834.00,99.89
1833.00,99.89
1832.00,99.89
1831.00,99.88
1830.00,99.87
1829.00,99.87
1828.00,99.87
1827.00,99.87
1826.00,99.87
1825.00,99.87
1824.00,99.87
1823.00,99.86
1822.00,99.85
1821.00,99.85
1820.00,99.87
1819.00,99.90
1818.00,99.93
1817.00,99.95
1816.00,99.94
1815.00,99.93
1814.00,99.92
1813.00,99.92
1812.00,99.91
1811.00,99.91
1810.00,99.91
1809.00,99.91
1808.00,99.91
1807.00,99.92
1806.00,99.91
1805.00,99.89
1804.00,99.87
1803.00,99.87
1802.00,99.89
1801.00,99.91
1800.00,99.93
1799.00,99.94
1798.00,99.96
1797.00,99.98
1796.00,99.99
1795.00,99.99
1794.00,99.98
1793.00,99.96
1792.00,99.94
1791.00,99.92
1790.00,99.91
1789.00,99.91
1788.00,99.92
1787.00,99.94
1786.00,99.94
1785.00,99.92
1784.00,99.91
1783.00,99.90
1782.00,99.90
1781.00,99.92
1780.00,99.95
1779.00,99.97
1778.00,99.99
1777.00,99.98
1776.00,99.97
1775.00,99.95
1774.00,99.93
1773.00,99.90
1772.00,99.88
1771.00,99.88
1770.00,99.89
1769.00,99.89
1768.00,99.88
1767.00,99.87
1766.00,99.87
1765.00,99.86
1764.00,99.87
1763.00,99.87
1762.00,99.86
1761.00,99.87
1760.00,99.87
1759.00,99.86
1758.00,99.86
1757.00,99.86
1756.00,99.86
1755.00,99.85
1754.00,99.84
1753.00,99.83
1752.00,99.81
1751.00,99.79
1750.00,99.79
1749.00,99.79
1748.00,99.79
1747.00,99.80
1746.00,99.81
1745.00,99.82
1744.00,99.83
1743.00,99.82
1742.00,99.80
1741.00,99.78
1740.00,99.77
1739.00,99.76
1738.00,99.75
1737.00,99.74
1736.00,99.73
1735.00,99.71
1734.00,99.70
1733.00,99.70
1732.00,99.71
1731.00,99.73
1730.00,99.74
1729.00,99.75
1728.00,99.76
1727.00,99.76
1726.00,99.76
1725.00,99.75
1724.00,99.75
1723.00,99.74
1722.00,99.73
1721.00,99.72
1720.00,99.70
1719.00,99.68
1718.00,99.66
1717.00,99.67
1716.00,99.68
1715.00,99.70
1714.00,99.72
1713.00,99.72
1712.00,99.73
1711.00,99.72
1710.00,99.70
1709.00,99.69
1708.00,99.68
1707.00,99.69
1706.00,99.70
1705.00,99.70
1704.00,99.69
1703.00,99.68
1702.00,99.67
1701.00,99.66
1700.00,99.65
1699.00,99.64
1698.00,99.63
1697.00,99.61
1696.00,99.60
1695.00,99.62
1694.00,99.63
1693.00,99.63
1692.00,99.61
1691.00,99.60
1690.00,99.59
1689.00,99.58
1688.00,99.58
1687.00,99.57
1686.00,99.55
1685.00,99.49
1684.00,99.45
1683.00,99.44
1682.00,99.43
1681.00,99.41
1680.00,99.38
1679.00,99.35
1678.00,99.31
1677.00,99.26
1676.00,99.20
1675.00,99.13
1674.00,99.07
1673.00,99.03
1672.00,98.99
1671.00,98.95
1670.00,98.93
1669.00,98.91
1668.00,98.90
1667.00,98.87
1666.00,98.84
1665.00,98.80
1664.00,98.77
1663.00,98.76
1662.00,98.76
1661.00,98.77
1660.00,98.79
1659.00,98.82
1658.00,98.86
1657.00,98.89
1656.00,98.90
1655.00,98.91
1654.00,98.90
1653.00,98.91
1652.00,98.95
1651.00,98.97
1650.00,98.96
1649.00,98.97
1648.00,98.99
1647.00,99.01
1646.00,99.03
1645.00,99.04
1644.00,99.04
1643.00,99.02
1642.00,99.01
1641.00,98.99
1640.00,98.98
1639.00,98.98
1638.00,98.98
1637.00,98.97
1636.00,98.94
1635.00,98.92
1634.00,98.92
1633.00,98.92
1632.00,98.92
1631.00,98.93
1630.00,98.92
1629.00,98.91
1628.00,98.90
1627.00,98.89
1626.00,98.89
1625.00,98.90
1624.00,98.90
1623.00,98.90
1622.00,98.91
1621.00,98.91
1620.00,98.92
1619.00,98.94
1618.00,98.95
1617.00,98.98
1616.00,99.01
1615.00,99.03
1614.00,99.04
1613.00,99.06
1612.00,99.09
1611.00,99.13
1610.00,99.16
1609.00,99.18
1608.00,99.20
1607.00,99.23
1606.00,99.26
1605.00,99.28
1604.00,99.31
1603.00,99.33
1602.00,99.35
1601.00,99.37
1600.00,99.40
1599.00,99.42
1598.00,99.43
1597.00,99.43
1596.00,99.44
1595.00,99.46
1594.00,99.48
1593.00,99.50
1592.00,99.53
1591.00,99.55
1590.00,99.56
1589.00,99.56
1588.00,99.55
1587.00,99.53
1586.00,99.54
1585.00,99.56
1584.00,99.59
1583.00,99.61
1582.00,99.61
1581.00,99.61
1580.00,99.61
1579.00,99.62
1578.00,99.63
1577.00,99.64
1576.00,99.64
1575.00,99.63
1574.00,99.63
1573.00,99.63
1572.00,99.64
1571.00,99.65
1570.00,99.65
1569.00,99.65
1568.00,99.65
1567.00,99.65
1566.00,99.65
1565.00,99.65
1564.00,99.65
1563.00,99.65
1562.00,99.66
1561.00,99.68
1560.00,99.71
1559.00,99.72
1558.00,99.71
1557.00,99.69
1556.00,99.66
1555.00,99.65
1554.00,99.64
1553.00,99.63
1552.00,99.62
1551.00,99.60
1550.00,99.60
1549.00,99.61
1548.00,99.63
1547.00,99.63
1546.00,99.63
1545.00,99.63
1544.00,99.63
1543.00,99.63
1542.00,99.63
1541.00,99.62
1540.00,99.62
1539.00,99.63
1538.00,99.64
1537.00,99.63
1536.00,99.63
1535.00,99.63
1534.00,99.62
1533.00,99.61
1532.00,99.61
1531.00,99.62
1530.00,99.61
1529.00,99.61
1528.00,99.62
1527.00,99.62
1526.00,99.62
1525.00,99.61
1524.00,99.60
1523.00,99.60
1522.00,99.60
1521.00,99.60
1520.00,99.60
1519.00,99.58
1518.00,99.57
1517.00,99.56
1516.00,99.55
1515.00,99.55
1514.00,99.55
1513.00,99.55
1512.00,99.56
1511.00,99.56
1510.00,99.57
1509.00,99.57
1508.00,99.56
1507.00,99.54
1506.00,99.54
1505.00,99.54
1504.00,99.54
1503.00,99.54
1502.00,99.54
1501.00,99.54
1500.00,99.54
1499.00,99.55
1498.00,99.56
1497.00,99.56
1496.00,99.56
1495.00,99.56
1494.00,99.56
1493.00,99.55
1492.00,99.52
1491.00,99.49
1490.00,99.47
1489.00,99.45
1488.00,99.46
1487.00,99.48
1486.00,99.49
1485.00,99.49
1484.00,99.47
1483.00,99.45
1482.00,99.42
1481.00,99.40
1480.00,99.37
1479.00,99.34
1478.00,99.32
1477.00,99.30
1476.00,99.28
1475.00,99.26
1474.00,99.23
1473.00,99.18
1472.00,99.14
1471.00,99.11
1470.00,99.09
1469.00,99.05
1468.00,99.00
1467.00,98.93
1466.00,98.84
1465.00,98.72
1464.00,98.57
1463.00,98.42
1462.00,98.26
1461.00,98.07
1460.00,97.86
1459.00,97.60
1458.00,97.27
1457.00,96.88
1456.00,96.53
1455.00,96.27
1454.00,96.06
1453.00,95.88
1452.00,95.72
1451.00,95.59
1450.00,95.50
1449.00,95.43
1448.00,95.39
1447.00,95.38
1446.00,95.38
1445.00,95.39
1444.00,95.40
1443.00,95.42
1442.00,95.45
1441.00,95.46
1440.00,95.46
1439.00,95.46
1438.00,95.48
1437.00,95.53
1436.00,95.62
1435.00,95.72
1434.00,95.81
1433.00,95.91
1432.00,96.04
1431.00,96.18
1430.00,96.35
1429.00,96.52
1428.00,96.69
1427.00,96.85
1426.00,97.00
1425.00,97.16
1424.00,97.32
1423.00,97.47
1422.00,97.59
1421.00,97.71
1420.00,97.84
1419.00,97.98
1418.00,98.10
1417.00,98.20
1416.00,98.27
1415.00,98.34
1414.00,98.41
1413.00,98.48
1412.00,98.55
1411.00,98.63
1410.00,98.70
1409.00,98.76
1408.00,98.81
1407.00,98.86
1406.00,98.89
1405.00,98.93
1404.00,98.96
1403.00,98.98
1402.00,98.99
1401.00,99.00
1400.00,99.01
1399.00,99.01
1398.00,99.01
1397.00,99.01
1396.00,99.00
1395.00,98.98
1394.00,98.95
1393.00,98.92
1392.00,98.89
1391.00,98.85
1390.00,98.82
1389.00,98.79
1388.00,98.77
1387.00,98.75
1386.00,98.73
1385.00,98.72
1384.00,98.70
1383.00,98.68
1382.00,98.66
1381.00,98.64
1380.00,98.61
1379.00,98.58
1378.00,98.53
1377.00,98.47
1376.00,98.41
1375.00,98.36
1374.00,98.33
1373.00,98.31
1372.00,98.29
1371.00,98.28
1370.00,98.25
1369.00,98.22
1368.00,98.18
1367.00,98.14
1366.00,98.10
1365.00,98.07
1364.00,98.06
1363.00,98.05
1362.00,98.05
1361.00,98.03
1360.00,98.02
1359.00,98.00
1358.00,97.98
1357.00,97.99
1356.00,98.00
1355.00,98.02
1354.00,98.05
1353.00,98.06
1352.00,98.07
1351.00,98.07
1350.00,98.09
1349.00,98.12
1348.00,98.15
1347.00,98.19
1346.00,98.23
1345.00,98.27
1344.00,98.32
1343.00,98.35
1342.00,98.38
1341.00,98.40
1340.00,98.41
1339.00,98.43
1338.00,98.46
1337.00,98.49
1336.00,98.52
1335.00,98.55
1334.00,98.57
1333.00,98.59
1332.00,98.61
1331.00,98.64
1330.00,98.66
1329.00,98.67
1328.00,98.67
1327.00,98.66
1326.00,98.64
1325.00,98.63
1324.00,98.63
1323.00,98.64
1322.00,98.66
1321.00,98.68
1320.00,98.70
1319.00,98.70
1318.00,98.69
1317.00,98.68
1316.00,98.68
1315.00,98.68
1314.00,98.68
1313.00,98.68
1312.00,98.67
1311.00,98.67
1310.00,98.66
1309.00,98.66
1308.00,98.66
1307.00,98.65
1306.00,98.63
1305.00,98.60
1304.00,98.58
1303.00,98.57
1302.00,98.56
1301.00,98.56
1300.00,98.55
1299.00,98.53
1298.00,98.51
1297.00,98.48
1296.00,98.46
1295.00,98.44
1294.00,98.42
1293.00,98.41
1292.00,98.40
1291.00,98.39
1290.00,98.37
1289.00,98.36
1288.00,98.35
1287.00,98.35
1286.00,98.35
1285.00,98.33
1284.00,98.29
1283.00,98.26
1282.00,98.22
1281.00,98.21
1280.00,98.19
1279.00,98.17
1278.00,98.14
1277.00,98.11
1276.00,98.07
1275.00,98.05
1274.00,98.03
1273.00,98.01
1272.00,97.98
1271.00,97.94
1270.00,97.90
1269.00,97.87
1268.00,97.84
1267.00,97.81
1266.00,97.76
1265.00,97.71
1264.00,97.67
1263.00,97.64
1262.00,97.60
1261.00,97.56
1260.00,97.52
1259.00,97.48
1258.00,97.44
1257.00,97.41
1256.00,97.39
1255.00,97.36
1254.00,97.33
1253.00,97.29
1252.00,97.24
1251.00,97.21
1250.00,97.19
1249.00,97.17
1248.00,97.16
1247.00,97.14
1246.00,97.12
1245.00,97.10
1244.00,97.08
1243.00,97.07
1242.00,97.06
1241.00,97.07
1240.00,97.07
1239.00,97.07
1238.00,97.05
1237.00,97.03
1236.00,97.01
1235.00,96.99
1234.00,96.98
1233.00,96.95
1232.00,96.93
1231.00,96.90
1230.00,96.88
1229.00,96.88
1228.00,96.88
1227.00,96.89
1226.00,96.89
1225.00,96.87
1224.00,96.85
1223.00,96.83
1222.00,96.82
1221.00,96.80
1220.00,96.79
1219.00,96.77
1218.00,96.77
1217.00,96.78
1216.00,96.79
1215.00,96.79
1214.00,96.78
1213.00,96.77
1212.00,96.76
1211.00,96.76
1210.00,96.76
1209.00,96.75
1208.00,96.75
1207.00,96.75
1206.00,96.77
1205.00,96.80
1204.00,96.82
1203.00,96.84
1202.00,96.85
1201.00,96.87
1200.00,96.90
1199.00,96.93
1198.00,96.95
1197.00,96.97
1196.00,96.98
1195.00,96.98
1194.00,96.99
1193.00,97.02
1192.00,97.04
1191.00,97.07
1190.00,97.09
1189.00,97.10
1188.00,97.10
1187.00,97.10
1186.00,97.09
1185.00,97.08
1184.00,97.08
1183.00,97.08
1182.00,97.09
1181.00,97.11
1180.00,97.13
1179.00,97.17
1178.00,97.21
1177.00,97.27
1176.00,97.34
1175.00,97.40
1174.00,97.44
1173.00,97.46
1172.00,97.47
1171.00,97.50
1170.00,97.54
1169.00,97.60
1168.00,97.65
1167.00,97.70
1166.00,97.77
1165.00,97.83
1164.00,97.90
1163.00,97.95
1162.00,97.99
1161.00,98.02
1160.00,98.04
1159.00,98.07
1158.00,98.10
1157.00,98.13
1156.00,98.15
1155.00,98.17
1154.00,98.18
1153.00,98.21
1152.00,98.24
1151.00,98.27
1150.00,98.29
1149.00,98.31
1148.00,98.31
1147.00,98.30
1146.00,98.28
1145.00,98.27
1144.00,98.28
1143.00,98.29
1142.00,98.31
1141.00,98.33
1140.00,98.34
1139.00,98.34
1138.00,98.32
1137.00,98.31
1136.00,98.32
1135.00,98.35
1134.00,98.38
1133.00,98.38
1132.00,98.35
1131.00,98.31
1130.00,98.28
1129.00,98.27
1128.00,98.27
1127.00,98.27
1126.00,98.25
1125.00,98.23
1124.00,98.20
1123.00,98.16
1122.00,98.11
1121.00,98.06
1120.00,98.02
1119.00,97.96
1118.00,97.89
1117.00,97.83
1116.00,97.76
1115.00,97.68
1114.00,97.58
1113.00,97.46
1112.00,97.34
1111.00,97.24
1110.00,97.15
1109.00,97.08
1108.00,97.00
1107.00,96.92
1106.00,96.83
1105.00,96.71
1104.00,96.58
1103.00,96.45
1102.00,96.34
1101.00,96.26
1100.00,96.20
1099.00,96.12
1098.00,96.02
1097.00,95.91
1096.00,95.81
1095.00,95.73
1094.00,95.66
1093.00,95.58
1092.00,95.49
1091.00,95.40
1090.00,95.32
1089.00,95.26
1088.00,95.20
1087.00,95.12
1086.00,95.03
1085.00,94.96
1084.00,94.92
1083.00,94.89
1082.00,94.86
1081.00,94.79
1080.00,94.73
1079.00,94.67
1078.00,94.64
1077.00,94.62
1076.00,94.60
1075.00,94.57
1074.00,94.51
1073.00,94.44
1072.00,94.38
1071.00,94.34
1070.00,94.32
1069.00,94.32
1068.00,94.33
1067.00,94.33
1066.00,94.33
1065.00,94.33
1064.00,94.33
1063.00,94.35
1062.00,94.37
1061.00,94.40
1060.00,94.42
1059.00,94.45
1058.00,94.48
1057.00,94.51
1056.00,94.52
1055.00,94.53
1054.00,94.53
1053.00,94.54
1052.00,94.57
1051.00,94.60
1050.00,94.62
1049.00,94.60
1048.00,94.54
1047.00,94.48
1046.00,94.42
1045.00,94.38
1044.00,94.34
1043.00,94.30
1042.00,94.27
1041.00,94.24
1040.00,94.23
1039.00,94.27
1038.00,94.36
1037.00,94.52
1036.00,94.70
1035.00,94.88
1034.00,95.06
1033.00,95.22
1032.00,95.38
1031.00,95.55
1030.00,95.71
1029.00,95.87
1028.00,96.01
1027.00,96.13
1026.00,96.23
1025.00,96.31
1024.00,96.36
1023.00,96.41
1022.00,96.48
1021.00,96.56
1020.00,96.64
1019.00,96.70
1018.00,96.74
1017.00,96.77
1016.00,96.81
1015.00,96.84
1014.00,96.87
1013.00,96.90
1012.00,96.93
1011.00,96.97
1010.00,97.01
1009.00,97.05
1008.00,97.08
1007.00,97.12
1006.00,97.16
1005.00,97.19
1004.00,97.20
1003.00,97.21
1002.00,97.23
1001.00,97.26
1000.00,97.29
999.00,97.33
998.00,97.37
997.00,97.40
996.00,97.43
995.00,97.44
994.00,97.43
993.00,97.42
992.00,97.42
991.00,97.43
990.00,97.43
989.00,97.45
988.00,97.49
987.00,97.53
986.00,97.56
985.00,97.60
984.00,97.62
983.00,97.63
982.00,97.62
981.00,97.63
980.00,97.64
979.00,97.65
978.00,97.66
977.00,97.66
976.00,97.66
975.00,97.66
974.00,97.66
973.00,97.68
972.00,97.71
971.00,97.74
970.00,97.76
969.00,97.76
968.00,97.76
967.00,97.76
966.00,97.77
965.00,97.77
964.00,97.77
963.00,97.78
962.00,97.79
961.00,97.81
960.00,97.83
959.00,97.83
958.00,97.83
957.00,97.83
956.00,97.85
955.00,97.86
954.00,97.87
953.00,97.87
952.00,97.88
951.00,97.90
950.00,97.90
949.00,97.89
948.00,97.86
947.00,97.83
946.00,97.80
945.00,97.79
944.00,97.79
943.00,97.79
942.00,97.78
941.00,97.77
940.00,97.76
939.00,97.77
938.00,97.79
937.00,97.80
936.00,97.81
935.00,97.80
934.00,97.80
933.00,97.80
932.00,97.79
931.00,97.76
930.00,97.74
929.00,97.72
928.00,97.72
927.00,97.73
926.00,97.74
925.00,97.76
924.00,97.78
923.00,97.79
922.00,97.80
921.00,97.82
920.00,97.82
919.00,97.81
918.00,97.78
917.00,97.77
916.00,97.78
915.00,97.82
914.00,97.85
913.00,97.87
912.00,97.88
911.00,97.89
910.00,97.89
909.00,97.90
908.00,97.92
907.00,97.95
906.00,97.97
905.00,97.98
904.00,97.98
903.00,97.98
902.00,97.97
901.00,97.97
900.00,97.98
899.00,98.02
898.00,98.07
897.00,98.11
896.00,98.12
895.00,98.10
894.00,98.09
893.00,98.08
892.00,98.08
891.00,98.09
890.00,98.10
889.00,98.11
888.00,98.12
887.00,98.14
886.00,98.17
885.00,98.21
884.00,98.26
883.00,98.30
882.00,98.33
881.00,98.35
880.00,98.36
879.00,98.37
878.00,98.35
877.00,98.32
876.00,98.31
875.00,98.31
874.00,98.33
873.00,98.36
872.00,98.40
871.00,98.44
870.00,98.46
869.00,98.47
868.00,98.49
867.00,98.51
866.00,98.54
865.00,98.55
864.00,98.56
863.00,98.57
862.00,98.59
861.00,98.60
860.00,98.61
859.00,98.62
858.00,98.64
857.00,98.65
856.00,98.66
855.00,98.67
854.00,98.68
853.00,98.70
852.00,98.71
851.00,98.72
850.00,98.72
849.00,98.71
848.00,98.70
847.00,98.70
846.00,98.73
845.00,98.77
844.00,98.79
843.00,98.76
842.00,98.71
841.00,98.66
840.00,98.62
839.00,98.59
838.00,98.59
837.00,98.61
836.00,98.64
835.00,98.67
834.00,98.65
833.00,98.62
832.00,98.58
831.00,98.57
830.00,98.59
829.00,98.62
828.00,98.63
827.00,98.61
826.00,98.57
825.00,98.52
824.00,98.48
823.00,98.47
822.00,98.50
821.00,98.53
820.00,98.55
819.00,98.54
818.00,98.52
817.00,98.50
816.00,98.48
815.00,98.46
814.00,98.47
813.00,98.49
812.00,98.52
811.00,98.54
810.00,98.56
809.00,98.57
808.00,98.58
807.00,98.59
806.00,98.59
805.00,98.58
804.00,98.55
803.00,98.51
802.00,98.49
801.00,98.48
800.00,98.48
799.00,98.45
798.00,98.41
797.00,98.40
796.00,98.42
795.00,98.47
794.00,98.53
793.00,98.57
792.00,98.59
791.00,98.58
790.00,98.54
789.00,98.48
788.00,98.42
787.00,98.37
786.00,98.34
785.00,98.34
784.00,98.37
783.00,98.42
782.00,98.47
781.00,98.50
780.00,98.52
779.00,98.54
778.00,98.55
777.00,98.55
776.00,98.53
775.00,98.52
774.00,98.51
773.00,98.51
772.00,98.48
771.00,98.43
770.00,98.39
769.00,98.36
768.00,98.38
767.00,98.41
766.00,98.45
765.00,98.46
764.00,98.44
763.00,98.41
762.00,98.38
761.00,98.37
760.00,98.38
759.00,98.39
758.00,98.40
757.00,98.40
756.00,98.40
755.00,98.41
754.00,98.42
753.00,98.42
752.00,98.40
751.00,98.36
750.00,98.30
749.00,98.22
748.00,98.16
747.00,98.12
746.00,98.11
745.00,98.13
744.00,98.17
743.00,98.20
742.00,98.19
741.00,98.15
740.00,98.11
739.00,98.08
738.00,98.07
737.00,98.04
736.00,97.98
735.00,97.91
734.00,97.86
733.00,97.83
732.00,97.82
731.00,97.80
730.00,97.73
729.00,97.64
728.00,97.56
727.00,97.49
726.00,97.43
725.00,97.36
724.00,97.30
723.00,97.26
722.00,97.23
721.00,97.17
720.00,97.08
719.00,96.98
718.00,96.89
717.00,96.80
716.00,96.72
715.00,96.64
714.00,96.58
713.00,96.53
712.00,96.50
711.00,96.49
710.00,96.48
709.00,96.47
708.00,96.43
707.00,96.37
706.00,96.31
705.00,96.29
704.00,96.32
703.00,96.37
702.00,96.44
701.00,96.50
700.00,96.56
699.00,96.61
698.00,96.62
697.00,96.60
696.00,96.60
695.00,96.63
694.00,96.69
693.00,96.74
692.00,96.76
691.00,96.74
690.00,96.69
689.00,96.64
688.00,96.61
687.00,96.60
686.00,96.61
685.00,96.59
684.00,96.54
683.00,96.44
682.00,96.34
681.00,96.22
680.00,96.10
679.00,95.99
678.00,95.88
677.00,95.78
676.00,95.66
675.00,95.51
674.00,95.31
673.00,95.09
672.00,94.91
671.00,94.75
670.00,94.60
669.00,94.46
668.00,94.41
667.00,94.39
666.00,94.33
665.00,94.28
664.00,94.24
663.00,94.20
662.00,94.17
661.00,94.16
660.00,94.16
659.00,94.13
658.00,94.02
657.00,93.84
656.00,93.65
655.00,93.52
654.00,93.44
653.00,93.36
652.00,93.28
651.00,93.26
650.00,93.30
649.00,93.33
648.00,93.25
647.00,93.10
646.00,92.94
645.00,92.83
644.00,92.81
643.00,92.92
642.00,93.10
641.00,93.26
640.00,93.36
639.00,93.43
638.00,93.56
637.00,93.78
636.00,94.02
635.00,94.19
634.00,94.21
633.00,94.08
632.00,93.85
631.00,93.61
630.00,93.45
629.00,93.38
628.00,93.42
627.00,93.59
626.00,93.88
625.00,94.17
624.00,94.33
623.00,94.30
622.00,94.13
621.00,93.93
620.00,93.79
619.00,93.65
618.00,93.38
617.00,92.91
616.00,92.42
615.00,92.22
614.00,92.41
613.00,92.78
612.00,93.09
611.00,93.29
610.00,93.52
609.00,93.88
608.00,94.32
607.00,94.72
606.00,94.96
605.00,95.00
604.00,94.94
603.00,94.95
602.00,95.10
601.00,95.30
600.00,95.36
599.00,95.17
598.00,94.85
597.00,94.59
596.00,94.50
595.00,94.59
594.00,94.74
593.00,94.89
592.00,95.07
591.00,95.28
590.00,95.43
589.00,95.42
588.00,95.26
587.00,95.11
586.00,95.12
585.00,95.31
584.00,95.59
583.00,95.95
582.00,96.32
581.00,96.52
580.00,96.34
579.00,95.83
578.00,95.35
577.00,95.14
576.00,95.21
575.00,95.46
574.00,95.86
573.00,96.28
572.00,96.45
571.00,96.18
570.00,95.62
569.00,95.11
568.00,94.84
567.00,94.77
566.00,94.79
565.00,94.80
564.00,94.65
563.00,94.24
562.00,93.71
561.00,93.36
560.00,93.37
559.00,93.68
558.00,94.10
557.00,94.56
556.00,95.13
555.00,95.78
554.00,96.33
553.00,96.65
552.00,96.80
551.00,96.89
550.00,96.91
