Created as New Dataset,68 Waxman (Black)
cm-1,%T
4000.00,95.80
3999.00,95.81
3998.00,95.81
3997.00,95.81
3996.00,95.81
3995.00,95.79
3994.00,95.77
3993.00,95.76
3992.00,95.75
3991.00,95.74
3990.00,95.74
3989.00,95.73
3988.00,95.72
3987.00,95.71
3986.00,95.71
3985.00,95.71
3984.00,95.72
3983.00,95.72
3982.00,95.72
3981.00,95.73
3980.00,95.74
3979.00,95.75
3978.00,95.75
3977.00,95.76
3976.00,95.76
3975.00,95.76
3974.00,95.75
3973.00,95.75
3972.00,95.75
3971.00,95.75
3970.00,95.76
3969.00,95.76
3968.00,95.75
3967.00,95.73
3966.00,95.72
3965.00,95.72
3964.00,95.74
3963.00,95.76
3962.00,95.79
3961.00,95.80
3960.00,95.81
3959.00,95.82
3958.00,95.83
3957.00,95.84
3956.00,95.83
3955.00,95.82
3954.00,95.80
3953.00,95.78
3952.00,95.77
3951.00,95.76
3950.00,95.75
3949.00,95.75
3948.00,95.74
3947.00,95.74
3946.00,95.74
3945.00,95.74
3944.00,95.74
3943.00,95.74
3942.00,95.75
3941.00,95.76
3940.00,95.77
3939.00,95.78
3938.00,95.79
3937.00,95.79
3936.00,95.79
3935.00,95.77
3934.00,95.75
3933.00,95.72
3932.00,95.71
3931.00,95.71
3930.00,95.72
3929.00,95.73
3928.00,95.73
3927.00,95.73
3926.00,95.72
3925.00,95.71
3924.00,95.69
3923.00,95.67
3922.00,95.65
3921.00,95.65
3920.00,95.66
3919.00,95.68
3918.00,95.70
3917.00,95.72
3916.00,95.73
3915.00,95.72
3914.00,95.72
3913.00,95.73
3912.00,95.74
3911.00,95.75
3910.00,95.76
3909.00,95.75
3908.00,95.75
3907.00,95.74
3906.00,95.74
3905.00,95.75
3904.00,95.76
3903.00,95.76
3902.00,95.75
3901.00,95.74
3900.00,95.75
3899.00,95.76
3898.00,95.76
3897.00,95.75
3896.00,95.74
3895.00,95.72
3894.00,95.71
3893.00,95.71
3892.00,95.72
3891.00,95.73
3890.00,95.74
3889.00,95.74
3888.00,95.74
3887.00,95.75
3886.00,95.76
3885.00,95.77
3884.00,95.75
3883.00,95.73
3882.00,95.71
3881.00,95.71
3880.00,95.71
3879.00,95.71
3878.00,95.71
3877.00,95.70
3876.00,95.71
3875.00,95.72
3874.00,95.72
3873.00,95.70
3872.00,95.67
3871.00,95.66
3870.00,95.68
3869.00,95.68
3868.00,95.67
3867.00,95.66
3866.00,95.66
3865.00,95.68
3864.00,95.70
3863.00,95.71
3862.00,95.72
3861.00,95.72
3860.00,95.71
3859.00,95.71
3858.00,95.72
3857.00,95.73
3856.00,95.76
3855.00,95.80
3854.00,95.81
3853.00,95.79
3852.00,95.75
3851.00,95.71
3850.00,95.68
3849.00,95.67
3848.00,95.66
3847.00,95.65
3846.00,95.66
3845.00,95.68
3844.00,95.72
3843.00,95.76
3842.00,95.79
3841.00,95.80
3840.00,95.79
3839.00,95.75
3838.00,95.71
3837.00,95.67
3836.00,95.65
3835.00,95.64
3834.00,95.64
3833.00,95.64
3832.00,95.63
3831.00,95.63
3830.00,95.64
3829.00,95.65
3828.00,95.66
3827.00,95.67
3826.00,95.68
3825.00,95.68
3824.00,95.68
3823.00,95.68
3822.00,95.69
3821.00,95.70
3820.00,95.69
3819.00,95.67
3818.00,95.65
3817.00,95.64
3816.00,95.63
3815.00,95.61
3814.00,95.59
3813.00,95.58
3812.00,95.59
3811.00,95.59
3810.00,95.60
3809.00,95.61
3808.00,95.63
3807.00,95.66
3806.00,95.67
3805.00,95.67
3804.00,95.66
3803.00,95.68
3802.00,95.69
3801.00,95.68
3800.00,95.64
3799.00,95.60
3798.00,95.58
3797.00,95.58
3796.00,95.59
3795.00,95.58
3794.00,95.56
3793.00,95.54
3792.00,95.53
3791.00,95.53
3790.00,95.54
3789.00,95.54
3788.00,95.53
3787.00,95.52
3786.00,95.51
3785.00,95.50
3784.00,95.51
3783.00,95.53
3782.00,95.55
3781.00,95.57
3780.00,95.59
3779.00,95.59
3778.00,95.58
3777.00,95.56
3776.00,95.55
3775.00,95.53
3774.00,95.52
3773.00,95.51
3772.00,95.51
3771.00,95.51
3770.00,95.52
3769.00,95.51
3768.00,95.48
3767.00,95.45
3766.00,95.44
3765.00,95.44
3764.00,95.45
3763.00,95.45
3762.00,95.46
3761.00,95.47
3760.00,95.48
3759.00,95.49
3758.00,95.49
3757.00,95.48
3756.00,95.48
3755.00,95.49
3754.00,95.49
3753.00,95.49
3752.00,95.48
3751.00,95.48
3750.00,95.50
3749.00,95.52
3748.00,95.53
3747.00,95.51
3746.00,95.47
3745.00,95.44
3744.00,95.41
3743.00,95.38
3742.00,95.38
3741.00,95.40
3740.00,95.43
3739.00,95.44
3738.00,95.44
3737.00,95.44
3736.00,95.43
3735.00,95.43
3734.00,95.42
3733.00,95.43
3732.00,95.43
3731.00,95.43
3730.00,95.42
3729.00,95.40
3728.00,95.39
3727.00,95.39
3726.00,95.38
3725.00,95.35
3724.00,95.33
3723.00,95.32
3722.00,95.32
3721.00,95.33
3720.00,95.34
3719.00,95.35
3718.00,95.36
3717.00,95.36
3716.00,95.35
3715.00,95.34
3714.00,95.33
3713.00,95.32
3712.00,95.29
3711.00,95.23
3710.00,95.18
3709.00,95.16
3708.00,95.18
3707.00,95.20
3706.00,95.23
3705.00,95.24
3704.00,95.24
3703.00,95.24
3702.00,95.25
3701.00,95.26
3700.00,95.27
3699.00,95.28
3698.00,95.29
3697.00,95.31
3696.00,95.33
3695.00,95.35
3694.00,95.37
3693.00,95.38
3692.00,95.37
3691.00,95.33
3690.00,95.27
3689.00,95.22
3688.00,95.20
3687.00,95.20
3686.00,95.20
3685.00,95.22
3684.00,95.25
3683.00,95.28
3682.00,95.30
3681.00,95.31
3680.00,95.31
3679.00,95.30
3678.00,95.28
3677.00,95.27
3676.00,95.27
3675.00,95.26
3674.00,95.25
3673.00,95.22
3672.00,95.19
3671.00,95.15
3670.00,95.10
3669.00,95.05
3668.00,95.04
3667.00,95.05
3666.00,95.08
3665.00,95.11
3664.00,95.12
3663.00,95.13
3662.00,95.13
3661.00,95.13
3660.00,95.12
3659.00,95.10
3658.00,95.08
3657.00,95.07
3656.00,95.07
3655.00,95.07
3654.00,95.08
3653.00,95.09
3652.00,95.10
3651.00,95.11
3650.00,95.08
3649.00,95.05
3648.00,95.05
3647.00,95.07
3646.00,95.09
3645.00,95.10
3644.00,95.09
3643.00,95.06
3642.00,95.04
3641.00,95.04
3640.00,95.04
3639.00,95.06
3638.00,95.08
3637.00,95.09
3636.00,95.09
3635.00,95.09
3634.00,95.10
3633.00,95.09
3632.00,95.07
3631.00,95.06
3630.00,95.06
3629.00,95.07
3628.00,95.06
3627.00,95.04
3626.00,95.02
3625.00,95.02
3624.00,95.02
3623.00,95.03
3622.00,95.04
3621.00,95.05
3620.00,95.06
3619.00,95.05
3618.00,95.03
3617.00,95.01
3616.00,95.01
3615.00,95.02
3614.00,95.04
3613.00,95.05
3612.00,95.04
3611.00,95.04
3610.00,95.06
3609.00,95.08
3608.00,95.11
3607.00,95.10
3606.00,95.09
3605.00,95.07
3604.00,95.06
3603.00,95.06
3602.00,95.07
3601.00,95.09
3600.00,95.10
3599.00,95.11
3598.00,95.12
3597.00,95.13
3596.00,95.13
3595.00,95.12
3594.00,95.10
3593.00,95.08
3592.00,95.05
3591.00,95.03
3590.00,95.02
3589.00,95.03
3588.00,95.04
3587.00,95.04
3586.00,95.03
3585.00,95.03
3584.00,95.03
3583.00,95.04
3582.00,95.06
3581.00,95.08
3580.00,95.09
3579.00,95.08
3578.00,95.08
3577.00,95.08
3576.00,95.10
3575.00,95.12
3574.00,95.13
3573.00,95.13
3572.00,95.12
3571.00,95.12
3570.00,95.11
3569.00,95.11
3568.00,95.11
3567.00,95.09
3566.00,95.07
3565.00,95.06
3564.00,95.06
3563.00,95.07
3562.00,95.07
3561.00,95.06
3560.00,95.06
3559.00,95.07
3558.00,95.09
3557.00,95.11
3556.00,95.12
3555.00,95.12
3554.00,95.13
3553.00,95.14
3552.00,95.14
3551.00,95.14
3550.00,95.12
3549.00,95.09
3548.00,95.08
3547.00,95.08
3546.00,95.09
3545.00,95.09
3544.00,95.09
3543.00,95.09
3542.00,95.07
3541.00,95.06
3540.00,95.04
3539.00,95.03
3538.00,95.03
3537.00,95.05
3536.00,95.08
3535.00,95.12
3534.00,95.14
3533.00,95.15
3532.00,95.15
3531.00,95.13
3530.00,95.11
3529.00,95.10
3528.00,95.08
3527.00,95.08
3526.00,95.08
3525.00,95.09
3524.00,95.09
3523.00,95.08
3522.00,95.07
3521.00,95.05
3520.00,95.04
3519.00,95.04
3518.00,95.05
3517.00,95.08
3516.00,95.10
3515.00,95.12
3514.00,95.12
3513.00,95.11
3512.00,95.10
3511.00,95.10
3510.00,95.10
3509.00,95.11
3508.00,95.10
3507.00,95.09
3506.00,95.08
3505.00,95.09
3504.00,95.11
3503.00,95.13
3502.00,95.14
3501.00,95.13
3500.00,95.11
3499.00,95.11
3498.00,95.11
3497.00,95.12
3496.00,95.12
3495.00,95.10
3494.00,95.07
3493.00,95.05
3492.00,95.04
3491.00,95.05
3490.00,95.07
3489.00,95.09
3488.00,95.12
3487.00,95.14
3486.00,95.15
3485.00,95.14
3484.00,95.12
3483.00,95.09
3482.00,95.08
3481.00,95.08
3480.00,95.08
3479.00,95.08
3478.00,95.08
3477.00,95.09
3476.00,95.11
3475.00,95.13
3474.00,95.14
3473.00,95.15
3472.00,95.15
3471.00,95.14
3470.00,95.12
3469.00,95.12
3468.00,95.12
3467.00,95.12
3466.00,95.13
3465.00,95.14
3464.00,95.15
3463.00,95.15
3462.00,95.13
3461.00,95.10
3460.00,95.08
3459.00,95.08
3458.00,95.09
3457.00,95.11
3456.00,95.12
3455.00,95.13
3454.00,95.15
3453.00,95.15
3452.00,95.15
3451.00,95.14
3450.00,95.12
3449.00,95.10
3448.00,95.09
3447.00,95.08
3446.00,95.08
3445.00,95.10
3444.00,95.13
3443.00,95.17
3442.00,95.18
3441.00,95.17
3440.00,95.14
3439.00,95.12
3438.00,95.12
3437.00,95.13
3436.00,95.13
3435.00,95.13
3434.00,95.11
3433.00,95.09
3432.00,95.09
3431.00,95.09
3430.00,95.12
3429.00,95.15
3428.00,95.18
3427.00,95.20
3426.00,95.20
3425.00,95.19
3424.00,95.17
3423.00,95.16
3422.00,95.15
3421.00,95.14
3420.00,95.14
3419.00,95.14
3418.00,95.13
3417.00,95.12
3416.00,95.10
3415.00,95.10
3414.00,95.10
3413.00,95.11
3412.00,95.11
3411.00,95.11
3410.00,95.11
3409.00,95.12
3408.00,95.13
3407.00,95.15
3406.00,95.15
3405.00,95.15
3404.00,95.15
3403.00,95.16
3402.00,95.18
3401.00,95.19
3400.00,95.18
3399.00,95.16
3398.00,95.14
3397.00,95.13
3396.00,95.13
3395.00,95.15
3394.00,95.17
3393.00,95.19
3392.00,95.21
3391.00,95.22
3390.00,95.22
3389.00,95.21
3388.00,95.20
3387.00,95.19
3386.00,95.17
3385.00,95.15
3384.00,95.14
3383.00,95.14
3382.00,95.13
3381.00,95.12
3380.00,95.12
3379.00,95.13
3378.00,95.14
3377.00,95.16
3376.00,95.18
3375.00,95.20
3374.00,95.20
3373.00,95.19
3372.00,95.17
3371.00,95.17
3370.00,95.18
3369.00,95.19
3368.00,95.18
3367.00,95.17
3366.00,95.15
3365.00,95.13
3364.00,95.12
3363.00,95.10
3362.00,95.10
3361.00,95.11
3360.00,95.12
3359.00,95.13
3358.00,95.13
3357.00,95.12
3356.00,95.12
3355.00,95.13
3354.00,95.15
3353.00,95.17
3352.00,95.18
3351.00,95.17
3350.00,95.15
3349.00,95.12
3348.00,95.12
3347.00,95.12
3346.00,95.13
3345.00,95.14
3344.00,95.15
3343.00,95.15
3342.00,95.15
3341.00,95.14
3340.00,95.14
3339.00,95.14
3338.00,95.14
3337.00,95.15
3336.00,95.16
3335.00,95.17
3334.00,95.16
3333.00,95.15
3332.00,95.15
3331.00,95.14
3330.00,95.15
3329.00,95.14
3328.00,95.14
3327.00,95.13
3326.00,95.13
3325.00,95.12
3324.00,95.11
3323.00,95.11
3322.00,95.12
3321.00,95.13
3320.00,95.14
3319.00,95.15
3318.00,95.15
3317.00,95.14
3316.00,95.15
3315.00,95.15
3314.00,95.16
3313.00,95.17
3312.00,95.18
3311.00,95.18
3310.00,95.17
3309.00,95.15
3308.00,95.14
3307.00,95.12
3306.00,95.12
3305.00,95.12
3304.00,95.12
3303.00,95.12
3302.00,95.11
3301.00,95.10
3300.00,95.08
3299.00,95.09
3298.00,95.10
3297.00,95.12
3296.00,95.13
3295.00,95.12
3294.00,95.12
3293.00,95.13
3292.00,95.14
3291.00,95.14
3290.00,95.13
3289.00,95.11
3288.00,95.09
3287.00,95.09
3286.00,95.09
3285.00,95.09
3284.00,95.10
3283.00,95.10
3282.00,95.11
3281.00,95.12
3280.00,95.13
3279.00,95.13
3278.00,95.13
3277.00,95.12
3276.00,95.10
3275.00,95.09
3274.00,95.08
3273.00,95.07
3272.00,95.06
3271.00,95.05
3270.00,95.05
3269.00,95.05
3268.00,95.05
3267.00,95.06
3266.00,95.06
3265.00,95.07
3264.00,95.08
3263.00,95.10
3262.00,95.11
3261.00,95.11
3260.00,95.09
3259.00,95.07
3258.00,95.06
3257.00,95.06
3256.00,95.07
3255.00,95.08
3254.00,95.09
3253.00,95.11
3252.00,95.13
3251.00,95.14
3250.00,95.13
3249.00,95.11
3248.00,95.09
3247.00,95.08
3246.00,95.07
3245.00,95.07
3244.00,95.06
3243.00,95.04
3242.00,95.02
3241.00,95.01
3240.00,95.00
3239.00,95.02
3238.00,95.06
3237.00,95.11
3236.00,95.14
3235.00,95.15
3234.00,95.13
3233.00,95.12
3232.00,95.11
3231.00,95.11
3230.00,95.11
3229.00,95.10
3228.00,95.08
3227.00,95.06
3226.00,95.03
3225.00,95.03
3224.00,95.03
3223.00,95.03
3222.00,95.03
3221.00,95.04
3220.00,95.05
3219.00,95.06
3218.00,95.06
3217.00,95.05
3216.00,95.04
3215.00,95.04
3214.00,95.05
3213.00,95.06
3212.00,95.08
3211.00,95.09
3210.00,95.10
3209.00,95.09
3208.00,95.07
3207.00,95.06
3206.00,95.05
3205.00,95.05
3204.00,95.05
3203.00,95.05
3202.00,95.06
3201.00,95.07
3200.00,95.08
3199.00,95.08
3198.00,95.07
3197.00,95.07
3196.00,95.08
3195.00,95.10
3194.00,95.11
3193.00,95.10
3192.00,95.10
3191.00,95.09
3190.00,95.09
3189.00,95.09
3188.00,95.09
3187.00,95.08
3186.00,95.07
3185.00,95.07
3184.00,95.08
3183.00,95.09
3182.00,95.09
3181.00,95.08
3180.00,95.07
3179.00,95.07
3178.00,95.09
3177.00,95.09
3176.00,95.09
3175.00,95.09
3174.00,95.09
3173.00,95.09
3172.00,95.09
3171.00,95.08
3170.00,95.08
3169.00,95.07
3168.00,95.07
3167.00,95.06
3166.00,95.07
3165.00,95.08
3164.00,95.09
3163.00,95.10
3162.00,95.10
3161.00,95.11
3160.00,95.12
3159.00,95.13
3158.00,95.13
3157.00,95.12
3156.00,95.11
3155.00,95.10
3154.00,95.09
3153.00,95.08
3152.00,95.09
3151.00,95.10
3150.00,95.12
3149.00,95.13
3148.00,95.13
3147.00,95.13
3146.00,95.13
3145.00,95.15
3144.00,95.17
3143.00,95.18
3142.00,95.18
3141.00,95.16
3140.00,95.14
3139.00,95.11
3138.00,95.09
3137.00,95.08
3136.00,95.08
3135.00,95.09
3134.00,95.11
3133.00,95.11
3132.00,95.12
3131.00,95.13
3130.00,95.14
3129.00,95.15
3128.00,95.15
3127.00,95.14
3126.00,95.14
3125.00,95.15
3124.00,95.15
3123.00,95.15
3122.00,95.14
3121.00,95.15
3120.00,95.16
3119.00,95.17
3118.00,95.18
3117.00,95.17
3116.00,95.16
3115.00,95.15
3114.00,95.13
3113.00,95.12
3112.00,95.12
3111.00,95.13
3110.00,95.13
3109.00,95.13
3108.00,95.12
3107.00,95.11
3106.00,95.11
3105.00,95.11
3104.00,95.12
3103.00,95.13
3102.00,95.14
3101.00,95.13
3100.00,95.12
3099.00,95.11
3098.00,95.11
3097.00,95.11
3096.00,95.10
3095.00,95.10
3094.00,95.10
3093.00,95.10
3092.00,95.11
3091.00,95.13
3090.00,95.14
3089.00,95.15
3088.00,95.15
3087.00,95.14
3086.00,95.14
3085.00,95.13
3084.00,95.13
3083.00,95.13
3082.00,95.12
3081.00,95.11
3080.00,95.11
3079.00,95.11
3078.00,95.12
3077.00,95.14
3076.00,95.15
3075.00,95.15
3074.00,95.15
3073.00,95.14
3072.00,95.13
3071.00,95.13
3070.00,95.13
3069.00,95.13
3068.00,95.14
3067.00,95.14
3066.00,95.15
3065.00,95.15
3064.00,95.16
3063.00,95.16
3062.00,95.15
3061.00,95.14
3060.00,95.11
3059.00,95.09
3058.00,95.07
3057.00,95.07
3056.00,95.06
3055.00,95.07
3054.00,95.08
3053.00,95.10
3052.00,95.11
3051.00,95.12
3050.00,95.12
3049.00,95.13
3048.00,95.14
3047.00,95.16
3046.00,95.16
3045.00,95.15
3044.00,95.14
3043.00,95.13
3042.00,95.12
3041.00,95.12
3040.00,95.13
3039.00,95.14
3038.00,95.14
3037.00,95.14
3036.00,95.13
3035.00,95.13
3034.00,95.14
3033.00,95.16
3032.00,95.16
3031.00,95.16
3030.00,95.15
3029.00,95.14
3028.00,95.12
3027.00,95.12
3026.00,95.12
3025.00,95.12
3024.00,95.12
3023.00,95.11
3022.00,95.11
3021.00,95.11
3020.00,95.11
3019.00,95.11
3018.00,95.11
3017.00,95.10
3016.00,95.09
3015.00,95.07
3014.00,95.05
3013.00,95.05
3012.00,95.06
3011.00,95.07
3010.00,95.08
3009.00,95.09
3008.00,95.10
3007.00,95.10
3006.00,95.10
3005.00,95.09
3004.00,95.08
3003.00,95.07
3002.00,95.06
3001.00,95.05
3000.00,95.04
2999.00,95.03
2998.00,95.03
2997.00,95.01
2996.00,95.00
2995.00,94.99
2994.00,94.99
2993.00,95.00
2992.00,95.01
2991.00,95.01
2990.00,94.99
2989.00,94.96
2988.00,94.94
2987.00,94.92
2986.00,94.91
2985.00,94.91
2984.00,94.90
2983.00,94.89
2982.00,94.88
2981.00,94.86
2980.00,94.83
2979.00,94.80
2978.00,94.76
2977.00,94.72
2976.00,94.69
2975.00,94.67
2974.00,94.67
2973.00,94.67
2972.00,94.65
2971.00,94.62
2970.00,94.59
2969.00,94.55
2968.00,94.52
2967.00,94.49
2966.00,94.47
2965.00,94.45
2964.00,94.44
2963.00,94.42
2962.00,94.41
2961.00,94.39
2960.00,94.36
2959.00,94.34
2958.00,94.33
2957.00,94.34
2956.00,94.35
2955.00,94.36
2954.00,94.35
2953.00,94.32
2952.00,94.27
2951.00,94.22
2950.00,94.17
2949.00,94.13
2948.00,94.11
2947.00,94.09
2946.00,94.07
2945.00,94.05
2944.00,94.03
2943.00,94.01
2942.00,93.99
2941.00,93.98
2940.00,93.96
2939.00,93.94
2938.00,93.92
2937.00,93.89
2936.00,93.86
2935.00,93.82
2934.00,93.77
2933.00,93.74
2932.00,93.72
2931.00,93.71
2930.00,93.70
2929.00,93.68
2928.00,93.66
2927.00,93.64
2926.00,93.63
2925.00,93.62
2924.00,93.62
2923.00,93.62
2922.00,93.61
2921.00,93.60
2920.00,93.60
2919.00,93.61
2918.00,93.63
2917.00,93.65
2916.00,93.68
2915.00,93.72
2914.00,93.76
2913.00,93.80
2912.00,93.84
2911.00,93.89
2910.00,93.94
2909.00,93.99
2908.00,94.04
2907.00,94.09
2906.00,94.14
2905.00,94.20
2904.00,94.25
2903.00,94.31
2902.00,94.37
2901.00,94.41
2900.00,94.44
2899.00,94.46
2898.00,94.48
2897.00,94.51
2896.00,94.53
2895.00,94.56
2894.00,94.57
2893.00,94.58
2892.00,94.59
2891.00,94.61
2890.00,94.63
2889.00,94.65
2888.00,94.66
2887.00,94.66
2886.00,94.65
2885.00,94.65
2884.00,94.65
2883.00,94.66
2882.00,94.66
2881.00,94.65
2880.00,94.65
2879.00,94.64
2878.00,94.65
2877.00,94.67
2876.00,94.68
2875.00,94.70
2874.00,94.70
2873.00,94.70
2872.00,94.70
2871.00,94.69
2870.00,94.68
2869.00,94.67
2868.00,94.67
2867.00,94.68
2866.00,94.69
2865.00,94.71
2864.00,94.72
2863.00,94.73
2862.00,94.72
2861.00,94.70
2860.00,94.69
2859.00,94.68
2858.00,94.67
2857.00,94.67
2856.00,94.67
2855.00,94.66
2854.00,94.66
2853.00,94.65
2852.00,94.65
2851.00,94.66
2850.00,94.68
2849.00,94.70
2848.00,94.71
2847.00,94.71
2846.00,94.71
2845.00,94.72
2844.00,94.73
2843.00,94.75
2842.00,94.77
2841.00,94.80
2840.00,94.83
2839.00,94.86
2838.00,94.89
2837.00,94.91
2836.00,94.90
2835.00,94.89
2834.00,94.88
2833.00,94.88
2832.00,94.90
2831.00,94.92
2830.00,94.94
2829.00,94.95
2828.00,94.95
2827.00,94.95
2826.00,94.96
2825.00,94.96
2824.00,94.98
2823.00,94.99
2822.00,95.00
2821.00,95.01
2820.00,95.01
2819.00,95.01
2818.00,95.01
2817.00,95.01
2816.00,95.02
2815.00,95.04
2814.00,95.05
2813.00,95.06
2812.00,95.05
2811.00,95.04
2810.00,95.03
2809.00,95.02
2808.00,95.02
2807.00,95.02
2806.00,95.02
2805.00,95.03
2804.00,95.03
2803.00,95.03
2802.00,95.03
2801.00,95.03
2800.00,95.04
2799.00,95.05
2798.00,95.05
2797.00,95.03
2796.00,95.02
2795.00,95.01
2794.00,95.01
2793.00,95.02
2792.00,95.03
2791.00,95.03
2790.00,95.04
2789.00,95.05
2788.00,95.07
2787.00,95.08
2786.00,95.08
2785.00,95.08
2784.00,95.07
2783.00,95.07
2782.00,95.08
2781.00,95.08
2780.00,95.09
2779.00,95.08
2778.00,95.07
2777.00,95.07
2776.00,95.07
2775.00,95.08
2774.00,95.09
2773.00,95.09
2772.00,95.09
2771.00,95.08
2770.00,95.08
2769.00,95.07
2768.00,95.08
2767.00,95.09
2766.00,95.10
2765.00,95.12
2764.00,95.13
2763.00,95.13
2762.00,95.13
2761.00,95.12
2760.00,95.11
2759.00,95.10
2758.00,95.09
2757.00,95.09
2756.00,95.11
2755.00,95.12
2754.00,95.13
2753.00,95.14
2752.00,95.13
2751.00,95.13
2750.00,95.14
2749.00,95.15
2748.00,95.15
2747.00,95.13
2746.00,95.12
2745.00,95.11
2744.00,95.10
2743.00,95.10
2742.00,95.09
2741.00,95.09
2740.00,95.09
2739.00,95.09
2738.00,95.09
2737.00,95.09
2736.00,95.09
2735.00,95.09
2734.00,95.10
2733.00,95.10
2732.00,95.09
2731.00,95.08
2730.00,95.07
2729.00,95.06
2728.00,95.06
2727.00,95.07
2726.00,95.08
2725.00,95.08
2724.00,95.07
2723.00,95.06
2722.00,95.05
2721.00,95.05
2720.00,95.05
2719.00,95.06
2718.00,95.06
2717.00,95.07
2716.00,95.07
2715.00,95.08
2714.00,95.08
2713.00,95.09
2712.00,95.10
2711.00,95.11
2710.00,95.11
2709.00,95.11
2708.00,95.11
2707.00,95.12
2706.00,95.13
2705.00,95.13
2704.00,95.11
2703.00,95.10
2702.00,95.08
2701.00,95.08
2700.00,95.08
2699.00,95.08
2698.00,95.07
2697.00,95.06
2696.00,95.06
2695.00,95.06
2694.00,95.07
2693.00,95.07
2692.00,95.06
2691.00,95.06
2690.00,95.06
2689.00,95.06
2688.00,95.06
2687.00,95.06
2686.00,95.07
2685.00,95.08
2684.00,95.09
2683.00,95.10
2682.00,95.10
2681.00,95.09
2680.00,95.07
2679.00,95.06
2678.00,95.06
2677.00,95.07
2676.00,95.08
2675.00,95.08
2674.00,95.08
2673.00,95.08
2672.00,95.07
2671.00,95.06
2670.00,95.06
2669.00,95.07
2668.00,95.09
2667.00,95.09
2666.00,95.09
2665.00,95.08
2664.00,95.07
2663.00,95.06
2662.00,95.05
2661.00,95.04
2660.00,95.04
2659.00,95.03
2658.00,95.02
2657.00,95.01
2656.00,94.99
2655.00,94.98
2654.00,94.99
2653.00,94.99
2652.00,94.97
2651.00,94.95
2650.00,94.92
2649.00,94.89
2648.00,94.87
2647.00,94.84
2646.00,94.84
2645.00,94.84
2644.00,94.84
2643.00,94.84
2642.00,94.83
2641.00,94.82
2640.00,94.80
2639.00,94.77
2638.00,94.75
2637.00,94.74
2636.00,94.74
2635.00,94.75
2634.00,94.76
2633.00,94.76
2632.00,94.74
2631.00,94.71
2630.00,94.69
2629.00,94.67
2628.00,94.67
2627.00,94.67
2626.00,94.66
2625.00,94.65
2624.00,94.63
2623.00,94.61
2622.00,94.59
2621.00,94.58
2620.00,94.58
2619.00,94.59
2618.00,94.59
2617.00,94.59
2616.00,94.57
2615.00,94.54
2614.00,94.52
2613.00,94.50
2612.00,94.50
2611.00,94.50
2610.00,94.51
2609.00,94.51
2608.00,94.51
2607.00,94.51
2606.00,94.50
2605.00,94.50
2604.00,94.49
2603.00,94.47
2602.00,94.44
2601.00,94.40
2600.00,94.37
2599.00,94.35
2598.00,94.34
2597.00,94.34
2596.00,94.35
2595.00,94.36
2594.00,94.38
2593.00,94.40
2592.00,94.41
2591.00,94.41
2590.00,94.40
2589.00,94.38
2588.00,94.34
2587.00,94.32
2586.00,94.31
2585.00,94.33
2584.00,94.34
2583.00,94.33
2582.00,94.29
2581.00,94.26
2580.00,94.24
2579.00,94.24
2578.00,94.25
2577.00,94.26
2576.00,94.27
2575.00,94.27
2574.00,94.27
2573.00,94.26
2572.00,94.25
2571.00,94.24
2570.00,94.24
2569.00,94.23
2568.00,94.24
2567.00,94.25
2566.00,94.26
2565.00,94.27
2564.00,94.26
2563.00,94.25
2562.00,94.26
2561.00,94.26
2560.00,94.27
2559.00,94.28
2558.00,94.27
2557.00,94.26
2556.00,94.24
2555.00,94.22
2554.00,94.21
2553.00,94.21
2552.00,94.20
2551.00,94.18
2550.00,94.15
2549.00,94.12
2548.00,94.11
2547.00,94.12
2546.00,94.11
2545.00,94.10
2544.00,94.08
2543.00,94.08
2542.00,94.09
2541.00,94.10
2540.00,94.10
2539.00,94.09
2538.00,94.08
2537.00,94.07
2536.00,94.06
2535.00,94.07
2534.00,94.09
2533.00,94.11
2532.00,94.13
2531.00,94.13
2530.00,94.13
2529.00,94.12
2528.00,94.10
2527.00,94.10
2526.00,94.10
2525.00,94.10
2524.00,94.11
2523.00,94.11
2522.00,94.11
2521.00,94.11
2520.00,94.11
2519.00,94.12
2518.00,94.13
2517.00,94.15
2516.00,94.18
2515.00,94.19
2514.00,94.18
2513.00,94.16
2512.00,94.14
2511.00,94.14
2510.00,94.16
2509.00,94.19
2508.00,94.21
2507.00,94.21
2506.00,94.20
2505.00,94.18
2504.00,94.17
2503.00,94.15
2502.00,94.15
2501.00,94.14
2500.00,94.13
2499.00,94.12
2498.00,94.11
2497.00,94.11
2496.00,94.11
2495.00,94.13
2494.00,94.15
2493.00,94.17
2492.00,94.17
2491.00,94.16
2490.00,94.15
2489.00,94.15
2488.00,94.16
2487.00,94.17
2486.00,94.17
2485.00,94.17
2484.00,94.16
2483.00,94.15
2482.00,94.15
2481.00,94.17
2480.00,94.18
2479.00,94.18
2478.00,94.17
2477.00,94.16
2476.00,94.15
2475.00,94.15
2474.00,94.16
2473.00,94.17
2472.00,94.16
2471.00,94.13
2470.00,94.10
2469.00,94.07
2468.00,94.05
2467.00,94.06
2466.00,94.07
2465.00,94.09
2464.00,94.11
2463.00,94.12
2462.00,94.13
2461.00,94.14
2460.00,94.14
2459.00,94.13
2458.00,94.13
2457.00,94.14
2456.00,94.16
2455.00,94.18
2454.00,94.19
2453.00,94.18
2452.00,94.17
2451.00,94.15
2450.00,94.13
2449.00,94.12
2448.00,94.12
2447.00,94.13
2446.00,94.13
2445.00,94.14
2444.00,94.14
2443.00,94.14
2442.00,94.13
2441.00,94.14
2440.00,94.15
2439.00,94.15
2438.00,94.14
2437.00,94.13
2436.00,94.13
2435.00,94.14
2434.00,94.16
2433.00,94.17
2432.00,94.18
2431.00,94.17
2430.00,94.16
2429.00,94.15
2428.00,94.15
2427.00,94.16
2426.00,94.16
2425.00,94.17
2424.00,94.18
2423.00,94.18
2422.00,94.19
2421.00,94.20
2420.00,94.22
2419.00,94.22
2418.00,94.21
2417.00,94.19
2416.00,94.18
2415.00,94.19
2414.00,94.22
2413.00,94.24
2412.00,94.25
2411.00,94.26
2410.00,94.27
2409.00,94.28
2408.00,94.30
2407.00,94.32
2406.00,94.34
2405.00,94.35
2404.00,94.35
2403.00,94.35
2402.00,94.35
2401.00,94.34
2400.00,94.34
2399.00,94.34
2398.00,94.35
2397.00,94.37
2396.00,94.38
2395.00,94.39
2394.00,94.39
2393.00,94.40
2392.00,94.43
2391.00,94.45
2390.00,94.46
2389.00,94.46
2388.00,94.46
2387.00,94.47
2386.00,94.48
2385.00,94.50
2384.00,94.53
2383.00,94.55
2382.00,94.57
2381.00,94.58
2380.00,94.59
2379.00,94.61
2378.00,94.65
2377.00,94.70
2376.00,94.74
2375.00,94.75
2374.00,94.73
2373.00,94.69
2372.00,94.67
2371.00,94.67
2370.00,94.69
2369.00,94.69
2368.00,94.68
2367.00,94.68
2366.00,94.71
2365.00,94.75
2364.00,94.78
2363.00,94.76
2362.00,94.67
2361.00,94.55
2360.00,94.44
2359.00,94.41
2358.00,94.45
2357.00,94.54
2356.00,94.63
2355.00,94.70
2354.00,94.73
2353.00,94.73
2352.00,94.72
2351.00,94.71
2350.00,94.72
2349.00,94.72
2348.00,94.72
2347.00,94.72
2346.00,94.73
2345.00,94.75
2344.00,94.75
2343.00,94.72
2342.00,94.68
2341.00,94.68
2340.00,94.71
2339.00,94.73
2338.00,94.72
2337.00,94.69
2336.00,94.66
2335.00,94.66
2334.00,94.67
2333.00,94.68
2332.00,94.70
2331.00,94.72
2330.00,94.75
2329.00,94.76
2328.00,94.73
2327.00,94.66
2326.00,94.58
2325.00,94.52
2324.00,94.48
2323.00,94.45
2322.00,94.42
2321.00,94.39
2320.00,94.35
2319.00,94.33
2318.00,94.32
2317.00,94.34
2316.00,94.36
2315.00,94.37
2314.00,94.37
2313.00,94.35
2312.00,94.35
2311.00,94.35
2310.00,94.33
2309.00,94.27
2308.00,94.21
2307.00,94.16
2306.00,94.14
2305.00,94.14
2304.00,94.15
2303.00,94.15
2302.00,94.13
2301.00,94.11
2300.00,94.09
2299.00,94.07
2298.00,94.05
2297.00,94.03
2296.00,94.00
2295.00,93.98
2294.00,93.94
2293.00,93.89
2292.00,93.84
2291.00,93.80
2290.00,93.78
2289.00,93.78
2288.00,93.77
2287.00,93.73
2286.00,93.68
2285.00,93.63
2284.00,93.60
2283.00,93.58
2282.00,93.58
2281.00,93.58
2280.00,93.58
2279.00,93.55
2278.00,93.51
2277.00,93.48
2276.00,93.45
2275.00,93.43
2274.00,93.39
2273.00,93.33
2272.00,93.27
2271.00,93.23
2270.00,93.22
2269.00,93.23
2268.00,93.25
2267.00,93.25
2266.00,93.25
2265.00,93.24
2264.00,93.24
2263.00,93.22
2262.00,93.18
2261.00,93.13
2260.00,93.09
2259.00,93.03
2258.00,92.97
2257.00,92.90
2256.00,92.82
2255.00,92.72
2254.00,92.60
2253.00,92.46
2252.00,92.30
2251.00,92.11
2250.00,91.90
2249.00,91.66
2248.00,91.40
2247.00,91.11
2246.00,90.83
2245.00,90.58
2244.00,90.38
2243.00,90.23
2242.00,90.14
2241.00,90.12
2240.00,90.16
2239.00,90.28
2238.00,90.44
2237.00,90.64
2236.00,90.87
2235.00,91.12
2234.00,91.37
2233.00,91.60
2232.00,91.78
2231.00,91.91
2230.00,92.00
2229.00,92.08
2228.00,92.14
2227.00,92.16
2226.00,92.14
2225.00,92.11
2224.00,92.09
2223.00,92.10
2222.00,92.11
2221.00,92.13
2220.00,92.15
2219.00,92.15
2218.00,92.14
2217.00,92.11
2216.00,92.09
2215.00,92.07
2214.00,92.06
2213.00,92.06
2212.00,92.06
2211.00,92.05
2210.00,92.04
2209.00,92.02
2208.00,92.00
2207.00,91.99
2206.00,91.98
2205.00,91.97
2204.00,91.93
2203.00,91.88
2202.00,91.85
2201.00,91.84
2200.00,91.84
2199.00,91.83
2198.00,91.80
2197.00,91.77
2196.00,91.75
2195.00,91.72
2194.00,91.69
2193.00,91.67
2192.00,91.65
2191.00,91.64
2190.00,91.61
2189.00,91.56
2188.00,91.50
2187.00,91.44
2186.00,91.39
2185.00,91.38
2184.00,91.41
2183.00,91.45
2182.00,91.48
2181.00,91.49
2180.00,91.47
2179.00,91.46
2178.00,91.46
2177.00,91.49
2176.00,91.54
2175.00,91.58
2174.00,91.59
2173.00,91.55
2172.00,91.50
2171.00,91.44
2170.00,91.38
2169.00,91.31
2168.00,91.23
2167.00,91.16
2166.00,91.10
2165.00,91.04
2164.00,90.96
2163.00,90.84
2162.00,90.69
2161.00,90.58
2160.00,90.57
2159.00,90.68
2158.00,90.88
2157.00,91.10
2156.00,91.28
2155.00,91.39
2154.00,91.46
2153.00,91.53
2152.00,91.61
2151.00,91.69
2150.00,91.74
2149.00,91.77
2148.00,91.80
2147.00,91.86
2146.00,91.95
2145.00,92.04
2144.00,92.13
2143.00,92.21
2142.00,92.30
2141.00,92.37
2140.00,92.44
2139.00,92.49
2138.00,92.53
2137.00,92.59
2136.00,92.64
2135.00,92.70
2134.00,92.77
2133.00,92.84
2132.00,92.92
2131.00,92.97
2130.00,93.00
2129.00,93.02
2128.00,93.06
2127.00,93.10
2126.00,93.13
2125.00,93.13
2124.00,93.12
2123.00,93.13
2122.00,93.15
2121.00,93.16
2120.00,93.16
2119.00,93.16
2118.00,93.17
2117.00,93.19
2116.00,93.19
2115.00,93.15
2114.00,93.11
2113.00,93.09
2112.00,93.09
2111.00,93.10
2110.00,93.11
2109.00,93.10
2108.00,93.08
2107.00,93.06
2106.00,93.04
2105.00,93.02
2104.00,92.99
2103.00,92.97
2102.00,92.95
2101.00,92.95
2100.00,92.97
2099.00,93.01
2098.00,93.05
2097.00,93.08
2096.00,93.09
2095.00,93.08
2094.00,93.06
2093.00,93.05
2092.00,93.05
2091.00,93.08
2090.00,93.09
2089.00,93.07
2088.00,93.04
2087.00,93.00
2086.00,92.98
2085.00,93.00
2084.00,93.03
2083.00,93.06
2082.00,93.07
2081.00,93.03
2080.00,92.97
2079.00,92.90
2078.00,92.84
2077.00,92.81
2076.00,92.79
2075.00,92.79
2074.00,92.80
2073.00,92.81
2072.00,92.81
2071.00,92.81
2070.00,92.80
2069.00,92.78
2068.00,92.74
2067.00,92.70
2066.00,92.65
2065.00,92.60
2064.00,92.58
2063.00,92.60
2062.00,92.64
2061.00,92.67
2060.00,92.66
2059.00,92.60
2058.00,92.51
2057.00,92.44
2056.00,92.42
2055.00,92.44
2054.00,92.46
2053.00,92.43
2052.00,92.34
2051.00,92.23
2050.00,92.09
2049.00,91.98
2048.00,91.90
2047.00,91.86
2046.00,91.86
2045.00,91.87
2044.00,91.85
2043.00,91.78
2042.00,91.69
2041.00,91.65
2040.00,91.67
2039.00,91.71
2038.00,91.70
2037.00,91.60
2036.00,91.46
2035.00,91.35
2034.00,91.32
2033.00,91.37
2032.00,91.44
2031.00,91.50
2030.00,91.53
2029.00,91.54
2028.00,91.52
2027.00,91.47
2026.00,91.41
2025.00,91.40
2024.00,91.42
2023.00,91.43
2022.00,91.40
2021.00,91.34
2020.00,91.30
2019.00,91.32
2018.00,91.39
2017.00,91.47
2016.00,91.53
2015.00,91.56
2014.00,91.57
2013.00,91.57
2012.00,91.59
2011.00,91.62
2010.00,91.64
2009.00,91.62
2008.00,91.59
2007.00,91.59
2006.00,91.62
2005.00,91.72
2004.00,91.83
2003.00,91.91
2002.00,91.95
2001.00,91.94
2000.00,91.93
1999.00,91.94
1998.00,91.97
1997.00,92.01
1996.00,92.03
1995.00,92.05
1994.00,92.05
1993.00,92.06
1992.00,92.08
1991.00,92.10
1990.00,92.12
1989.00,92.12
1988.00,92.10
1987.00,92.05
1986.00,91.97
1985.00,91.86
1984.00,91.75
1983.00,91.67
1982.00,91.62
1981.00,91.59
1980.00,91.54
1979.00,91.49
1978.00,91.48
1977.00,91.52
1976.00,91.57
1975.00,91.59
1974.00,91.58
1973.00,91.58
1972.00,91.63
1971.00,91.72
1970.00,91.82
1969.00,91.91
1968.00,91.95
1967.00,91.98
1966.00,92.01
1965.00,92.06
1964.00,92.11
1963.00,92.13
1962.00,92.12
1961.00,92.14
1960.00,92.20
1959.00,92.29
1958.00,92.38
1957.00,92.46
1956.00,92.52
1955.00,92.56
1954.00,92.56
1953.00,92.52
1952.00,92.49
1951.00,92.52
1950.00,92.60
1949.00,92.71
1948.00,92.79
1947.00,92.84
1946.00,92.85
1945.00,92.86
1944.00,92.86
1943.00,92.87
1942.00,92.88
1941.00,92.90
1940.00,92.92
1939.00,92.93
1938.00,92.95
1937.00,92.98
1936.00,93.01
1935.00,93.04
1934.00,93.06
1933.00,93.09
1932.00,93.12
1931.00,93.16
1930.00,93.19
1929.00,93.22
1928.00,93.24
1927.00,93.26
1926.00,93.28
1925.00,93.30
1924.00,93.31
1923.00,93.33
1922.00,93.34
1921.00,93.34
1920.00,93.35
1919.00,93.37
1918.00,93.41
1917.00,93.44
1916.00,93.47
1915.00,93.48
1914.00,93.49
1913.00,93.48
1912.00,93.47
1911.00,93.46
1910.00,93.46
1909.00,93.48
1908.00,93.50
1907.00,93.53
1906.00,93.55
1905.00,93.56
1904.00,93.56
1903.00,93.56
1902.00,93.56
1901.00,93.59
1900.00,93.62
1899.00,93.68
1898.00,93.73
1897.00,93.75
1896.00,93.76
1895.00,93.75
1894.00,93.76
1893.00,93.77
1892.00,93.79
1891.00,93.79
1890.00,93.78
1889.00,93.77
1888.00,93.76
1887.00,93.78
1886.00,93.81
1885.00,93.82
1884.00,93.82
1883.00,93.81
1882.00,93.81
1881.00,93.83
1880.00,93.85
1879.00,93.87
1878.00,93.87
1877.00,93.87
1876.00,93.87
1875.00,93.87
1874.00,93.88
1873.00,93.91
1872.00,93.93
1871.00,93.95
1870.00,93.97
1869.00,93.98
1868.00,93.97
1867.00,93.95
1866.00,93.92
1865.00,93.91
1864.00,93.92
1863.00,93.96
1862.00,93.99
1861.00,93.99
1860.00,93.97
1859.00,93.96
1858.00,93.95
1857.00,93.97
1856.00,93.99
1855.00,94.00
1854.00,94.00
1853.00,94.01
1852.00,94.02
1851.00,94.03
1850.00,94.02
1849.00,94.02
1848.00,94.04
1847.00,94.07
1846.00,94.11
1845.00,94.14
1844.00,94.15
1843.00,94.14
1842.00,94.12
1841.00,94.11
1840.00,94.10
1839.00,94.11
1838.00,94.13
1837.00,94.14
1836.00,94.14
1835.00,94.14
1834.00,94.14
1833.00,94.14
1832.00,94.15
1831.00,94.16
1830.00,94.17
1829.00,94.16
1828.00,94.15
1827.00,94.15
1826.00,94.15
1825.00,94.16
1824.00,94.16
1823.00,94.16
1822.00,94.16
1821.00,94.17
1820.00,94.18
1819.00,94.21
1818.00,94.25
1817.00,94.27
1816.00,94.27
1815.00,94.26
1814.00,94.26
1813.00,94.27
1812.00,94.28
1811.00,94.30
1810.00,94.30
1809.00,94.30
1808.00,94.30
1807.00,94.31
1806.00,94.32
1805.00,94.33
1804.00,94.33
1803.00,94.33
1802.00,94.34
1801.00,94.35
1800.00,94.37
1799.00,94.38
1798.00,94.37
1797.00,94.35
1796.00,94.34
1795.00,94.33
1794.00,94.34
1793.00,94.35
1792.00,94.36
1791.00,94.36
1790.00,94.36
1789.00,94.36
1788.00,94.36
1787.00,94.36
1786.00,94.36
1785.00,94.37
1784.00,94.38
1783.00,94.39
1782.00,94.40
1781.00,94.40
1780.00,94.40
1779.00,94.40
1778.00,94.41
1777.00,94.41
1776.00,94.41
1775.00,94.40
1774.00,94.39
1773.00,94.39
1772.00,94.40
1771.00,94.41
1770.00,94.41
1769.00,94.41
1768.00,94.40
1767.00,94.39
1766.00,94.39
1765.00,94.39
1764.00,94.39
1763.00,94.40
1762.00,94.41
1761.00,94.41
1760.00,94.40
1759.00,94.39
1758.00,94.38
1757.00,94.37
1756.00,94.36
1755.00,94.33
1754.00,94.31
1753.00,94.29
1752.00,94.28
1751.00,94.28
1750.00,94.27
1749.00,94.27
1748.00,94.26
1747.00,94.25
1746.00,94.21
1745.00,94.17
1744.00,94.14
1743.00,94.11
1742.00,94.10
1741.00,94.09
1740.00,94.06
1739.00,94.03
1738.00,93.99
1737.00,93.96
1736.00,93.93
1735.00,93.91
1734.00,93.87
1733.00,93.84
1732.00,93.83
1731.00,93.84
1730.00,93.86
1729.00,93.89
1728.00,93.91
1727.00,93.92
1726.00,93.93
1725.00,93.94
1724.00,93.96
1723.00,93.98
1722.00,94.00
1721.00,94.01
1720.00,94.01
1719.00,94.02
1718.00,94.03
1717.00,94.05
1716.00,94.09
1715.00,94.13
1714.00,94.15
1713.00,94.16
1712.00,94.16
1711.00,94.15
1710.00,94.15
1709.00,94.15
1708.00,94.16
1707.00,94.16
1706.00,94.17
1705.00,94.17
1704.00,94.18
1703.00,94.19
1702.00,94.20
1701.00,94.22
1700.00,94.22
1699.00,94.22
1698.00,94.22
1697.00,94.22
1696.00,94.22
1695.00,94.22
1694.00,94.22
1693.00,94.23
1692.00,94.24
1691.00,94.24
1690.00,94.24
1689.00,94.24
1688.00,94.25
1687.00,94.26
1686.00,94.27
1685.00,94.28
1684.00,94.28
1683.00,94.28
1682.00,94.28
1681.00,94.28
1680.00,94.29
1679.00,94.30
1678.00,94.31
1677.00,94.30
1676.00,94.29
1675.00,94.27
1674.00,94.26
1673.00,94.26
1672.00,94.27
1671.00,94.26
1670.00,94.25
1669.00,94.23
1668.00,94.23
1667.00,94.23
1666.00,94.23
1665.00,94.23
1664.00,94.23
1663.00,94.22
1662.00,94.21
1661.00,94.21
1660.00,94.22
1659.00,94.22
1658.00,94.23
1657.00,94.24
1656.00,94.24
1655.00,94.24
1654.00,94.22
1653.00,94.19
1652.00,94.16
1651.00,94.16
1650.00,94.16
1649.00,94.15
1648.00,94.15
1647.00,94.16
1646.00,94.15
1645.00,94.15
1644.00,94.13
1643.00,94.12
1642.00,94.11
1641.00,94.09
1640.00,94.07
1639.00,94.06
1638.00,94.06
1637.00,94.07
1636.00,94.07
1635.00,94.06
1634.00,94.05
1633.00,94.05
1632.00,94.04
1631.00,94.04
1630.00,94.04
1629.00,94.02
1628.00,94.01
1627.00,94.01
1626.00,94.01
1625.00,94.01
1624.00,94.00
1623.00,93.98
1622.00,93.96
1621.00,93.95
1620.00,93.96
1619.00,93.97
1618.00,93.98
1617.00,93.98
1616.00,93.98
1615.00,93.97
1614.00,93.96
1613.00,93.97
1612.00,93.98
1611.00,94.00
1610.00,94.01
1609.00,94.01
1608.00,94.01
1607.00,94.01
1606.00,94.02
1605.00,94.02
1604.00,94.02
1603.00,94.03
1602.00,94.04
1601.00,94.05
1600.00,94.07
1599.00,94.08
1598.00,94.10
1597.00,94.11
1596.00,94.13
1595.00,94.13
1594.00,94.13
1593.00,94.13
1592.00,94.14
1591.00,94.15
1590.00,94.17
1589.00,94.19
1588.00,94.21
1587.00,94.23
1586.00,94.24
1585.00,94.25
1584.00,94.26
1583.00,94.26
1582.00,94.27
1581.00,94.27
1580.00,94.26
1579.00,94.26
1578.00,94.25
1577.00,94.25
1576.00,94.25
1575.00,94.26
1574.00,94.26
1573.00,94.26
1572.00,94.26
1571.00,94.26
1570.00,94.27
1569.00,94.28
1568.00,94.29
1567.00,94.30
1566.00,94.30
1565.00,94.30
1564.00,94.30
1563.00,94.30
1562.00,94.29
1561.00,94.29
1560.00,94.29
1559.00,94.29
1558.00,94.29
1557.00,94.30
1556.00,94.31
1555.00,94.32
1554.00,94.31
1553.00,94.30
1552.00,94.28
1551.00,94.28
1550.00,94.28
1549.00,94.28
1548.00,94.27
1547.00,94.26
1546.00,94.25
1545.00,94.25
1544.00,94.26
1543.00,94.27
1542.00,94.28
1541.00,94.29
1540.00,94.29
1539.00,94.28
1538.00,94.28
1537.00,94.28
1536.00,94.29
1535.00,94.30
1534.00,94.31
1533.00,94.33
1532.00,94.34
1531.00,94.34
1530.00,94.34
1529.00,94.34
1528.00,94.33
1527.00,94.33
1526.00,94.33
1525.00,94.33
1524.00,94.32
1523.00,94.30
1522.00,94.29
1521.00,94.29
1520.00,94.30
1519.00,94.31
1518.00,94.31
1517.00,94.31
1516.00,94.31
1515.00,94.33
1514.00,94.34
1513.00,94.36
1512.00,94.36
1511.00,94.36
1510.00,94.34
1509.00,94.31
1508.00,94.29
1507.00,94.29
1506.00,94.29
1505.00,94.30
1504.00,94.30
1503.00,94.31
1502.00,94.31
1501.00,94.29
1500.00,94.28
1499.00,94.27
1498.00,94.27
1497.00,94.29
1496.00,94.30
1495.00,94.30
1494.00,94.30
1493.00,94.28
1492.00,94.27
1491.00,94.26
1490.00,94.26
1489.00,94.25
1488.00,94.25
1487.00,94.24
1486.00,94.23
1485.00,94.21
1484.00,94.20
1483.00,94.19
1482.00,94.20
1481.00,94.21
1480.00,94.22
1479.00,94.22
1478.00,94.22
1477.00,94.22
1476.00,94.20
1475.00,94.19
1474.00,94.18
1473.00,94.18
1472.00,94.17
1471.00,94.16
1470.00,94.15
1469.00,94.14
1468.00,94.12
1467.00,94.11
1466.00,94.08
1465.00,94.04
1464.00,93.98
1463.00,93.92
1462.00,93.86
1461.00,93.77
1460.00,93.66
1459.00,93.51
1458.00,93.28
1457.00,92.98
1456.00,92.68
1455.00,92.43
1454.00,92.21
1453.00,91.99
1452.00,91.75
1451.00,91.51
1450.00,91.28
1449.00,91.05
1448.00,90.83
1447.00,90.63
1446.00,90.44
1445.00,90.25
1444.00,90.06
1443.00,89.88
1442.00,89.74
1441.00,89.61
1440.00,89.51
1439.00,89.46
1438.00,89.45
1437.00,89.50
1436.00,89.60
1435.00,89.73
1434.00,89.89
1433.00,90.06
1432.00,90.25
1431.00,90.48
1430.00,90.72
1429.00,90.96
1428.00,91.17
1427.00,91.36
1426.00,91.52
1425.00,91.68
1424.00,91.84
1423.00,91.99
1422.00,92.12
1421.00,92.23
1420.00,92.35
1419.00,92.47
1418.00,92.58
1417.00,92.69
1416.00,92.79
1415.00,92.88
1414.00,92.98
1413.00,93.06
1412.00,93.14
1411.00,93.20
1410.00,93.26
1409.00,93.31
1408.00,93.36
1407.00,93.40
1406.00,93.44
1405.00,93.47
1404.00,93.49
1403.00,93.50
1402.00,93.51
1401.00,93.52
1400.00,93.53
1399.00,93.54
1398.00,93.53
1397.00,93.51
1396.00,93.49
1395.00,93.46
1394.00,93.43
1393.00,93.42
1392.00,93.40
1391.00,93.38
1390.00,93.35
1389.00,93.30
1388.00,93.26
1387.00,93.21
1386.00,93.18
1385.00,93.16
1384.00,93.13
1383.00,93.10
1382.00,93.07
1381.00,93.03
1380.00,93.00
1379.00,92.96
1378.00,92.92
1377.00,92.87
1376.00,92.83
1375.00,92.79
1374.00,92.75
1373.00,92.70
1372.00,92.65
1371.00,92.57
1370.00,92.49
1369.00,92.41
1368.00,92.34
1367.00,92.28
1366.00,92.21
1365.00,92.15
1364.00,92.08
1363.00,92.01
1362.00,91.94
1361.00,91.87
1360.00,91.81
1359.00,91.76
1358.00,91.71
1357.00,91.67
1356.00,91.65
1355.00,91.64
1354.00,91.65
1353.00,91.67
1352.00,91.69
1351.00,91.72
1350.00,91.74
1349.00,91.78
1348.00,91.81
1347.00,91.85
1346.00,91.88
1345.00,91.91
1344.00,91.94
1343.00,91.97
1342.00,92.00
1341.00,92.02
1340.00,92.04
1339.00,92.06
1338.00,92.08
1337.00,92.10
1336.00,92.11
1335.00,92.12
1334.00,92.12
1333.00,92.12
1332.00,92.10
1331.00,92.09
1330.00,92.07
1329.00,92.07
1328.00,92.06
1327.00,92.05
1326.00,92.02
1325.00,91.99
1324.00,91.97
1323.00,91.96
1322.00,91.96
1321.00,91.97
1320.00,91.97
1319.00,91.97
1318.00,91.97
1317.00,91.97
1316.00,91.97
1315.00,91.96
1314.00,91.95
1313.00,91.92
1312.00,91.89
1311.00,91.87
1310.00,91.86
1309.00,91.85
1308.00,91.84
1307.00,91.82
1306.00,91.80
1305.00,91.78
1304.00,91.76
1303.00,91.74
1302.00,91.72
1301.00,91.68
1300.00,91.63
1299.00,91.59
1298.00,91.55
1297.00,91.52
1296.00,91.48
1295.00,91.43
1294.00,91.38
1293.00,91.34
1292.00,91.30
1291.00,91.29
1290.00,91.28
1289.00,91.28
1288.00,91.28
1287.00,91.29
1286.00,91.30
1285.00,91.31
1284.00,91.33
1283.00,91.34
1282.00,91.35
1281.00,91.37
1280.00,91.38
1279.00,91.40
1278.00,91.42
1277.00,91.43
1276.00,91.43
1275.00,91.42
1274.00,91.40
1273.00,91.37
1272.00,91.33
1271.00,91.30
1270.00,91.25
1269.00,91.18
1268.00,91.09
1267.00,90.99
1266.00,90.89
1265.00,90.81
1264.00,90.73
1263.00,90.67
1262.00,90.60
1261.00,90.53
1260.00,90.46
1259.00,90.41
1258.00,90.37
1257.00,90.34
1256.00,90.32
1255.00,90.30
1254.00,90.28
1253.00,90.27
1252.00,90.27
1251.00,90.27
1250.00,90.29
1249.00,90.30
1248.00,90.29
1247.00,90.28
1246.00,90.25
1245.00,90.23
1244.00,90.21
1243.00,90.19
1242.00,90.17
1241.00,90.17
1240.00,90.16
1239.00,90.16
1238.00,90.17
1237.00,90.18
1236.00,90.21
1235.00,90.26
1234.00,90.33
1233.00,90.42
1232.00,90.50
1231.00,90.59
1230.00,90.67
1229.00,90.74
1228.00,90.79
1227.00,90.83
1226.00,90.85
1225.00,90.85
1224.00,90.85
1223.00,90.83
1222.00,90.82
1221.00,90.81
1220.00,90.79
1219.00,90.76
1218.00,90.73
1217.00,90.71
1216.00,90.68
1215.00,90.64
1214.00,90.59
1213.00,90.55
1212.00,90.53
1211.00,90.52
1210.00,90.53
1209.00,90.53
1208.00,90.52
1207.00,90.51
1206.00,90.51
1205.00,90.52
1204.00,90.54
1203.00,90.55
1202.00,90.56
1201.00,90.58
1200.00,90.60
1199.00,90.63
1198.00,90.66
1197.00,90.71
1196.00,90.75
1195.00,90.80
1194.00,90.83
1193.00,90.85
1192.00,90.87
1191.00,90.90
1190.00,90.92
1189.00,90.93
1188.00,90.95
1187.00,90.97
1186.00,90.99
1185.00,91.00
1184.00,91.01
1183.00,91.02
1182.00,91.04
1181.00,91.07
1180.00,91.11
1179.00,91.13
1178.00,91.14
1177.00,91.14
1176.00,91.15
1175.00,91.17
1174.00,91.20
1173.00,91.22
1172.00,91.25
1171.00,91.27
1170.00,91.29
1169.00,91.33
1168.00,91.36
1167.00,91.41
1166.00,91.47
1165.00,91.54
1164.00,91.63
1163.00,91.72
1162.00,91.79
1161.00,91.86
1160.00,91.92
1159.00,91.96
1158.00,91.99
1157.00,92.01
1156.00,92.02
1155.00,92.03
1154.00,92.02
1153.00,92.02
1152.00,92.02
1151.00,92.03
1150.00,92.04
1149.00,92.06
1148.00,92.08
1147.00,92.11
1146.00,92.15
1145.00,92.17
1144.00,92.19
1143.00,92.21
1142.00,92.22
1141.00,92.23
1140.00,92.23
1139.00,92.23
1138.00,92.23
1137.00,92.24
1136.00,92.26
1135.00,92.26
1134.00,92.24
1133.00,92.19
1132.00,92.14
1131.00,92.09
1130.00,92.05
1129.00,91.99
1128.00,91.92
1127.00,91.85
1126.00,91.78
1125.00,91.70
1124.00,91.61
1123.00,91.52
1122.00,91.45
1121.00,91.40
1120.00,91.37
1119.00,91.33
1118.00,91.29
1117.00,91.24
1116.00,91.18
1115.00,91.10
1114.00,91.02
1113.00,90.95
1112.00,90.91
1111.00,90.90
1110.00,90.91
1109.00,90.92
1108.00,90.92
1107.00,90.92
1106.00,90.92
1105.00,90.94
1104.00,90.95
1103.00,90.93
1102.00,90.89
1101.00,90.85
1100.00,90.85
1099.00,90.87
1098.00,90.89
1097.00,90.91
1096.00,90.92
1095.00,90.92
1094.00,90.93
1093.00,90.94
1092.00,90.95
1091.00,90.97
1090.00,91.01
1089.00,91.05
1088.00,91.10
1087.00,91.13
1086.00,91.14
1085.00,91.13
1084.00,91.11
1083.00,91.10
1082.00,91.09
1081.00,91.10
1080.00,91.11
1079.00,91.13
1078.00,91.14
1077.00,91.14
1076.00,91.11
1075.00,91.07
1074.00,91.06
1073.00,91.07
1072.00,91.10
1071.00,91.14
1070.00,91.15
1069.00,91.13
1068.00,91.10
1067.00,91.07
1066.00,91.07
1065.00,91.07
1064.00,91.05
1063.00,91.01
1062.00,90.96
1061.00,90.91
1060.00,90.88
1059.00,90.87
1058.00,90.87
1057.00,90.87
1056.00,90.86
1055.00,90.83
1054.00,90.81
1053.00,90.78
1052.00,90.75
1051.00,90.73
1050.00,90.71
1049.00,90.68
1048.00,90.65
1047.00,90.61
1046.00,90.56
1045.00,90.51
1044.00,90.46
1043.00,90.40
1042.00,90.33
1041.00,90.27
1040.00,90.24
1039.00,90.23
1038.00,90.22
1037.00,90.23
1036.00,90.26
1035.00,90.32
1034.00,90.38
1033.00,90.43
1032.00,90.47
1031.00,90.52
1030.00,90.58
1029.00,90.64
1028.00,90.68
1027.00,90.73
1026.00,90.78
1025.00,90.83
1024.00,90.86
1023.00,90.88
1022.00,90.89
1021.00,90.89
1020.00,90.86
1019.00,90.84
1018.00,90.81
1017.00,90.80
1016.00,90.78
1015.00,90.74
1014.00,90.67
1013.00,90.59
1012.00,90.49
1011.00,90.40
1010.00,90.34
1009.00,90.29
1008.00,90.27
1007.00,90.23
1006.00,90.19
1005.00,90.14
1004.00,90.10
1003.00,90.07
1002.00,90.04
1001.00,90.01
1000.00,89.98
999.00,89.98
998.00,89.97
997.00,89.97
996.00,89.97
995.00,89.98
994.00,89.98
993.00,89.98
992.00,89.99
991.00,90.00
990.00,90.03
989.00,90.05
988.00,90.06
987.00,90.07
986.00,90.09
985.00,90.13
984.00,90.16
983.00,90.18
982.00,90.21
981.00,90.23
980.00,90.24
979.00,90.25
978.00,90.27
977.00,90.30
976.00,90.34
975.00,90.37
974.00,90.38
973.00,90.38
972.00,90.38
971.00,90.39
970.00,90.42
969.00,90.44
968.00,90.46
967.00,90.48
966.00,90.48
965.00,90.46
964.00,90.44
963.00,90.42
962.00,90.42
961.00,90.44
960.00,90.47
959.00,90.49
958.00,90.50
957.00,90.52
956.00,90.53
955.00,90.52
954.00,90.52
953.00,90.53
952.00,90.55
951.00,90.59
950.00,90.63
949.00,90.66
948.00,90.67
947.00,90.68
946.00,90.68
945.00,90.69
944.00,90.70
943.00,90.71
942.00,90.73
941.00,90.75
940.00,90.75
939.00,90.76
938.00,90.76
937.00,90.77
936.00,90.79
935.00,90.83
934.00,90.87
933.00,90.89
932.00,90.89
931.00,90.87
930.00,90.86
929.00,90.86
928.00,90.89
927.00,90.90
926.00,90.90
925.00,90.86
924.00,90.83
923.00,90.81
922.00,90.83
921.00,90.85
920.00,90.88
919.00,90.89
918.00,90.88
917.00,90.86
916.00,90.83
915.00,90.81
914.00,90.82
913.00,90.86
912.00,90.89
911.00,90.89
910.00,90.88
909.00,90.87
908.00,90.87
907.00,90.87
906.00,90.88
905.00,90.89
904.00,90.89
903.00,90.89
902.00,90.89
901.00,90.90
900.00,90.92
899.00,90.92
898.00,90.91
897.00,90.90
896.00,90.89
895.00,90.89
894.00,90.89
893.00,90.88
892.00,90.88
891.00,90.90
890.00,90.92
889.00,90.94
888.00,90.95
887.00,90.96
886.00,90.97
885.00,90.97
884.00,90.98
883.00,90.98
882.00,90.98
881.00,90.97
880.00,90.96
879.00,90.95
878.00,90.94
877.00,90.91
876.00,90.88
875.00,90.86
874.00,90.87
873.00,90.88
872.00,90.90
871.00,90.93
870.00,90.96
869.00,90.99
868.00,91.00
867.00,91.01
866.00,91.02
865.00,91.02
864.00,91.01
863.00,91.00
862.00,91.01
861.00,91.05
860.00,91.08
859.00,91.08
858.00,91.06
857.00,91.05
856.00,91.04
855.00,91.02
854.00,90.99
853.00,90.98
852.00,90.98
851.00,90.99
850.00,91.00
849.00,91.03
848.00,91.05
847.00,91.07
846.00,91.07
845.00,91.04
844.00,91.02
843.00,91.02
842.00,91.05
841.00,91.10
840.00,91.14
839.00,91.16
838.00,91.17
837.00,91.20
836.00,91.24
835.00,91.28
834.00,91.34
833.00,91.39
832.00,91.45
831.00,91.50
830.00,91.52
829.00,91.50
828.00,91.47
827.00,91.43
826.00,91.41
825.00,91.40
824.00,91.40
823.00,91.41
822.00,91.43
821.00,91.46
820.00,91.49
819.00,91.50
818.00,91.50
817.00,91.47
816.00,91.44
815.00,91.41
814.00,91.40
813.00,91.41
812.00,91.42
811.00,91.42
810.00,91.41
809.00,91.37
808.00,91.34
807.00,91.32
806.00,91.33
805.00,91.34
804.00,91.35
803.00,91.35
802.00,91.35
801.00,91.34
800.00,91.33
799.00,91.31
798.00,91.30
797.00,91.28
796.00,91.25
795.00,91.23
794.00,91.21
793.00,91.20
792.00,91.20
791.00,91.21
790.00,91.20
789.00,91.17
788.00,91.13
787.00,91.10
786.00,91.08
785.00,91.05
784.00,91.01
783.00,90.97
782.00,90.95
781.00,90.96
780.00,90.97
779.00,90.97
778.00,90.96
777.00,90.93
776.00,90.90
775.00,90.88
774.00,90.90
773.00,90.93
772.00,90.95
771.00,90.96
770.00,90.96
769.00,90.96
768.00,90.97
767.00,90.98
766.00,91.00
765.00,91.03
764.00,91.06
763.00,91.10
762.00,91.11
761.00,91.11
760.00,91.10
759.00,91.11
758.00,91.13
757.00,91.16
756.00,91.21
755.00,91.27
754.00,91.33
753.00,91.38
752.00,91.43
751.00,91.47
750.00,91.49
749.00,91.49
748.00,91.49
747.00,91.48
746.00,91.47
745.00,91.47
744.00,91.50
743.00,91.55
742.00,91.63
741.00,91.71
740.00,91.76
739.00,91.78
738.00,91.78
737.00,91.78
736.00,91.78
735.00,91.77
734.00,91.76
733.00,91.77
732.00,91.78
731.00,91.78
730.00,91.75
729.00,91.71
728.00,91.69
727.00,91.68
726.00,91.67
725.00,91.65
724.00,91.62
723.00,91.59
722.00,91.59
721.00,91.60
720.00,91.63
719.00,91.65
718.00,91.64
717.00,91.61
716.00,91.55
715.00,91.47
714.00,91.37
713.00,91.26
712.00,91.16
711.00,91.06
710.00,90.95
709.00,90.84
708.00,90.70
707.00,90.54
706.00,90.38
705.00,90.27
704.00,90.19
703.00,90.12
702.00,90.01
701.00,89.86
700.00,89.69
699.00,89.54
698.00,89.42
697.00,89.33
696.00,89.28
695.00,89.27
694.00,89.29
693.00,89.34
692.00,89.38
691.00,89.40
690.00,89.37
689.00,89.34
688.00,89.32
687.00,89.34
686.00,89.37
685.00,89.40
684.00,89.40
683.00,89.38
682.00,89.34
681.00,89.30
680.00,89.31
679.00,89.39
678.00,89.49
677.00,89.54
676.00,89.54
675.00,89.52
674.00,89.52
673.00,89.55
672.00,89.59
671.00,89.63
670.00,89.66
669.00,89.64
668.00,89.64
667.00,89.68
666.00,89.70
665.00,89.66
664.00,89.61
663.00,89.54
662.00,89.50
661.00,89.48
660.00,89.50
659.00,89.53
658.00,89.50
657.00,89.32
656.00,89.02
655.00,88.72
654.00,88.52
653.00,88.43
652.00,88.40
651.00,88.37
650.00,88.34
649.00,88.28
648.00,88.18
647.00,88.02
646.00,87.81
645.00,87.55
644.00,87.29
643.00,87.08
642.00,86.94
641.00,86.78
640.00,86.58
639.00,86.39
638.00,86.24
637.00,86.09
636.00,85.89
635.00,85.68
634.00,85.55
633.00,85.49
632.00,85.45
631.00,85.35
630.00,85.18
629.00,84.91
628.00,84.58
627.00,84.25
626.00,84.02
625.00,83.91
624.00,83.87
623.00,83.89
622.00,83.87
621.00,83.70
620.00,83.41
619.00,83.17
618.00,83.15
617.00,83.27
616.00,83.31
615.00,83.20
614.00,83.03
613.00,82.90
612.00,82.88
611.00,82.96
610.00,83.12
609.00,83.29
608.00,83.45
607.00,83.63
606.00,83.79
605.00,83.80
604.00,83.62
603.00,83.36
602.00,83.18
601.00,83.16
600.00,83.39
599.00,83.84
598.00,84.38
597.00,84.70
596.00,84.67
595.00,84.42
594.00,84.25
593.00,84.33
592.00,84.65
591.00,85.02
590.00,85.29
589.00,85.42
588.00,85.55
587.00,85.87
586.00,86.27
585.00,86.45
584.00,86.25
583.00,85.93
582.00,85.82
581.00,85.98
580.00,86.22
579.00,86.49
578.00,86.88
577.00,87.38
576.00,87.77
575.00,87.79
574.00,87.52
573.00,87.28
572.00,87.30
571.00,87.54
570.00,87.72
569.00,87.66
568.00,87.45
567.00,87.36
566.00,87.52
565.00,87.84
564.00,88.19
563.00,88.48
562.00,88.62
561.00,88.48
560.00,88.05
559.00,87.45
558.00,86.84
557.00,86.25
556.00,85.72
555.00,85.44
554.00,85.58
553.00,86.01
552.00,86.43
551.00,86.46
550.00,86.06
