Created as New Dataset,83. Allied Signal Fibers
cm-1,%T
4000.00,97.88
3999.00,97.87
3998.00,97.87
3997.00,97.86
3996.00,97.86
3995.00,97.86
3994.00,97.87
3993.00,97.88
3992.00,97.89
3991.00,97.89
3990.00,97.87
3989.00,97.84
3988.00,97.83
3987.00,97.84
3986.00,97.84
3985.00,97.85
3984.00,97.84
3983.00,97.84
3982.00,97.83
3981.00,97.85
3980.00,97.87
3979.00,97.89
3978.00,97.91
3977.00,97.92
3976.00,97.92
3975.00,97.93
3974.00,97.93
3973.00,97.92
3972.00,97.90
3971.00,97.88
3970.00,97.86
3969.00,97.85
3968.00,97.86
3967.00,97.86
3966.00,97.86
3965.00,97.85
3964.00,97.85
3963.00,97.87
3962.00,97.89
3961.00,97.92
3960.00,97.93
3959.00,97.92
3958.00,97.91
3957.00,97.90
3956.00,97.90
3955.00,97.91
3954.00,97.94
3953.00,97.96
3952.00,97.96
3951.00,97.94
3950.00,97.90
3949.00,97.87
3948.00,97.85
3947.00,97.86
3946.00,97.88
3945.00,97.90
3944.00,97.91
3943.00,97.91
3942.00,97.90
3941.00,97.90
3940.00,97.90
3939.00,97.89
3938.00,97.88
3937.00,97.87
3936.00,97.87
3935.00,97.89
3934.00,97.92
3933.00,97.95
3932.00,97.96
3931.00,97.94
3930.00,97.92
3929.00,97.90
3928.00,97.88
3927.00,97.87
3926.00,97.87
3925.00,97.87
3924.00,97.89
3923.00,97.92
3922.00,97.93
3921.00,97.93
3920.00,97.92
3919.00,97.89
3918.00,97.87
3917.00,97.86
3916.00,97.87
3915.00,97.89
3914.00,97.92
3913.00,97.94
3912.00,97.96
3911.00,97.97
3910.00,97.97
3909.00,97.96
3908.00,97.95
3907.00,97.94
3906.00,97.94
3905.00,97.94
3904.00,97.97
3903.00,98.01
3902.00,98.04
3901.00,98.05
3900.00,98.04
3899.00,98.00
3898.00,97.96
3897.00,97.92
3896.00,97.88
3895.00,97.86
3894.00,97.85
3893.00,97.86
3892.00,97.89
3891.00,97.92
3890.00,97.95
3889.00,97.98
3888.00,97.99
3887.00,97.99
3886.00,97.98
3885.00,97.97
3884.00,97.96
3883.00,97.95
3882.00,97.93
3881.00,97.92
3880.00,97.91
3879.00,97.92
3878.00,97.93
3877.00,97.94
3876.00,97.95
3875.00,97.95
3874.00,97.94
3873.00,97.95
3872.00,97.95
3871.00,97.95
3870.00,97.95
3869.00,97.94
3868.00,97.92
3867.00,97.92
3866.00,97.93
3865.00,97.94
3864.00,97.97
3863.00,97.98
3862.00,97.98
3861.00,97.96
3860.00,97.94
3859.00,97.93
3858.00,97.92
3857.00,97.92
3856.00,97.93
3855.00,97.94
3854.00,97.94
3853.00,97.94
3852.00,97.95
3851.00,97.95
3850.00,97.93
3849.00,97.90
3848.00,97.89
3847.00,97.89
3846.00,97.92
3845.00,97.95
3844.00,97.98
3843.00,98.00
3842.00,98.00
3841.00,97.98
3840.00,97.96
3839.00,97.93
3838.00,97.90
3837.00,97.87
3836.00,97.85
3835.00,97.83
3834.00,97.80
3833.00,97.79
3832.00,97.78
3831.00,97.79
3830.00,97.80
3829.00,97.81
3828.00,97.82
3827.00,97.81
3826.00,97.80
3825.00,97.79
3824.00,97.77
3823.00,97.76
3822.00,97.76
3821.00,97.77
3820.00,97.79
3819.00,97.81
3818.00,97.82
3817.00,97.82
3816.00,97.80
3815.00,97.79
3814.00,97.79
3813.00,97.78
3812.00,97.77
3811.00,97.75
3810.00,97.74
3809.00,97.75
3808.00,97.77
3807.00,97.80
3806.00,97.82
3805.00,97.84
3804.00,97.86
3803.00,97.86
3802.00,97.85
3801.00,97.84
3800.00,97.83
3799.00,97.82
3798.00,97.79
3797.00,97.77
3796.00,97.74
3795.00,97.74
3794.00,97.75
3793.00,97.77
3792.00,97.80
3791.00,97.81
3790.00,97.81
3789.00,97.80
3788.00,97.78
3787.00,97.77
3786.00,97.75
3785.00,97.73
3784.00,97.72
3783.00,97.71
3782.00,97.70
3781.00,97.71
3780.00,97.72
3779.00,97.75
3778.00,97.77
3777.00,97.79
3776.00,97.79
3775.00,97.77
3774.00,97.75
3773.00,97.74
3772.00,97.74
3771.00,97.75
3770.00,97.76
3769.00,97.76
3768.00,97.75
3767.00,97.74
3766.00,97.72
3765.00,97.72
3764.00,97.72
3763.00,97.72
3762.00,97.72
3761.00,97.71
3760.00,97.69
3759.00,97.68
3758.00,97.67
3757.00,97.67
3756.00,97.68
3755.00,97.69
3754.00,97.71
3753.00,97.71
3752.00,97.69
3751.00,97.67
3750.00,97.67
3749.00,97.70
3748.00,97.74
3747.00,97.77
3746.00,97.79
3745.00,97.80
3744.00,97.81
3743.00,97.82
3742.00,97.83
3741.00,97.82
3740.00,97.81
3739.00,97.79
3738.00,97.77
3737.00,97.75
3736.00,97.73
3735.00,97.72
3734.00,97.71
3733.00,97.70
3732.00,97.69
3731.00,97.69
3730.00,97.71
3729.00,97.72
3728.00,97.73
3727.00,97.72
3726.00,97.70
3725.00,97.68
3724.00,97.67
3723.00,97.67
3722.00,97.66
3721.00,97.66
3720.00,97.67
3719.00,97.66
3718.00,97.65
3717.00,97.65
3716.00,97.66
3715.00,97.68
3714.00,97.71
3713.00,97.73
3712.00,97.72
3711.00,97.69
3710.00,97.67
3709.00,97.64
3708.00,97.62
3707.00,97.60
3706.00,97.58
3705.00,97.57
3704.00,97.55
3703.00,97.53
3702.00,97.53
3701.00,97.55
3700.00,97.59
3699.00,97.63
3698.00,97.65
3697.00,97.64
3696.00,97.61
3695.00,97.58
3694.00,97.57
3693.00,97.59
3692.00,97.62
3691.00,97.63
3690.00,97.61
3689.00,97.56
3688.00,97.52
3687.00,97.50
3686.00,97.51
3685.00,97.53
3684.00,97.54
3683.00,97.53
3682.00,97.53
3681.00,97.52
3680.00,97.52
3679.00,97.51
3678.00,97.49
3677.00,97.47
3676.00,97.46
3675.00,97.46
3674.00,97.49
3673.00,97.51
3672.00,97.51
3671.00,97.51
3670.00,97.50
3669.00,97.49
3668.00,97.48
3667.00,97.47
3666.00,97.46
3665.00,97.44
3664.00,97.43
3663.00,97.42
3662.00,97.41
3661.00,97.40
3660.00,97.37
3659.00,97.35
3658.00,97.33
3657.00,97.32
3656.00,97.33
3655.00,97.36
3654.00,97.40
3653.00,97.44
3652.00,97.46
3651.00,97.48
3650.00,97.48
3649.00,97.47
3648.00,97.45
3647.00,97.44
3646.00,97.43
3645.00,97.41
3644.00,97.39
3643.00,97.36
3642.00,97.34
3641.00,97.33
3640.00,97.33
3639.00,97.32
3638.00,97.31
3637.00,97.29
3636.00,97.27
3635.00,97.26
3634.00,97.27
3633.00,97.29
3632.00,97.33
3631.00,97.35
3630.00,97.33
3629.00,97.29
3628.00,97.27
3627.00,97.26
3626.00,97.26
3625.00,97.25
3624.00,97.23
3623.00,97.21
3622.00,97.18
3621.00,97.16
3620.00,97.15
3619.00,97.16
3618.00,97.17
3617.00,97.18
3616.00,97.18
3615.00,97.18
3614.00,97.17
3613.00,97.16
3612.00,97.14
3611.00,97.12
3610.00,97.11
3609.00,97.12
3608.00,97.12
3607.00,97.11
3606.00,97.09
3605.00,97.06
3604.00,97.05
3603.00,97.05
3602.00,97.06
3601.00,97.08
3600.00,97.08
3599.00,97.07
3598.00,97.04
3597.00,97.01
3596.00,96.99
3595.00,96.98
3594.00,96.99
3593.00,96.99
3592.00,96.99
3591.00,96.97
3590.00,96.95
3589.00,96.93
3588.00,96.93
3587.00,96.95
3586.00,96.96
3585.00,96.94
3584.00,96.90
3583.00,96.86
3582.00,96.82
3581.00,96.80
3580.00,96.79
3579.00,96.79
3578.00,96.79
3577.00,96.79
3576.00,96.78
3575.00,96.77
3574.00,96.75
3573.00,96.73
3572.00,96.71
3571.00,96.69
3570.00,96.68
3569.00,96.69
3568.00,96.71
3567.00,96.73
3566.00,96.74
3565.00,96.71
3564.00,96.67
3563.00,96.61
3562.00,96.56
3561.00,96.53
3560.00,96.51
3559.00,96.51
3558.00,96.53
3557.00,96.55
3556.00,96.57
3555.00,96.56
3554.00,96.52
3553.00,96.45
3552.00,96.39
3551.00,96.35
3550.00,96.33
3549.00,96.32
3548.00,96.32
3547.00,96.32
3546.00,96.32
3545.00,96.32
3544.00,96.32
3543.00,96.31
3542.00,96.28
3541.00,96.24
3540.00,96.21
3539.00,96.18
3538.00,96.17
3537.00,96.18
3536.00,96.19
3535.00,96.19
3534.00,96.15
3533.00,96.09
3532.00,96.04
3531.00,96.01
3530.00,95.99
3529.00,95.98
3528.00,95.97
3527.00,95.96
3526.00,95.96
3525.00,95.96
3524.00,95.97
3523.00,95.97
3522.00,95.96
3521.00,95.93
3520.00,95.89
3519.00,95.85
3518.00,95.80
3517.00,95.75
3516.00,95.72
3515.00,95.69
3514.00,95.68
3513.00,95.68
3512.00,95.67
3511.00,95.66
3510.00,95.65
3509.00,95.63
3508.00,95.62
3507.00,95.62
3506.00,95.61
3505.00,95.62
3504.00,95.61
3503.00,95.60
3502.00,95.58
3501.00,95.56
3500.00,95.54
3499.00,95.51
3498.00,95.48
3497.00,95.44
3496.00,95.42
3495.00,95.40
3494.00,95.41
3493.00,95.42
3492.00,95.43
3491.00,95.43
3490.00,95.41
3489.00,95.39
3488.00,95.37
3487.00,95.37
3486.00,95.39
3485.00,95.40
3484.00,95.41
3483.00,95.40
3482.00,95.37
3481.00,95.34
3480.00,95.32
3479.00,95.30
3478.00,95.30
3477.00,95.31
3476.00,95.32
3475.00,95.32
3474.00,95.32
3473.00,95.31
3472.00,95.31
3471.00,95.32
3470.00,95.34
3469.00,95.35
3468.00,95.35
3467.00,95.32
3466.00,95.27
3465.00,95.24
3464.00,95.23
3463.00,95.24
3462.00,95.26
3461.00,95.27
3460.00,95.27
3459.00,95.25
3458.00,95.23
3457.00,95.20
3456.00,95.18
3455.00,95.17
3454.00,95.17
3453.00,95.15
3452.00,95.13
3451.00,95.10
3450.00,95.09
3449.00,95.09
3448.00,95.09
3447.00,95.08
3446.00,95.07
3445.00,95.06
3444.00,95.06
3443.00,95.06
3442.00,95.06
3441.00,95.04
3440.00,95.02
3439.00,95.01
3438.00,95.01
3437.00,95.01
3436.00,95.03
3435.00,95.04
3434.00,95.05
3433.00,95.05
3432.00,95.05
3431.00,95.05
3430.00,95.05
3429.00,95.04
3428.00,95.03
3427.00,95.01
3426.00,95.00
3425.00,95.00
3424.00,95.00
3423.00,95.00
3422.00,94.99
3421.00,94.98
3420.00,94.96
3419.00,94.95
3418.00,94.93
3417.00,94.91
3416.00,94.89
3415.00,94.89
3414.00,94.90
3413.00,94.90
3412.00,94.90
3411.00,94.89
3410.00,94.87
3409.00,94.87
3408.00,94.87
3407.00,94.86
3406.00,94.85
3405.00,94.83
3404.00,94.82
3403.00,94.80
3402.00,94.79
3401.00,94.78
3400.00,94.77
3399.00,94.76
3398.00,94.75
3397.00,94.75
3396.00,94.73
3395.00,94.70
3394.00,94.67
3393.00,94.63
3392.00,94.61
3391.00,94.60
3390.00,94.61
3389.00,94.61
3388.00,94.61
3387.00,94.60
3386.00,94.59
3385.00,94.59
3384.00,94.57
3383.00,94.55
3382.00,94.52
3381.00,94.47
3380.00,94.43
3379.00,94.40
3378.00,94.37
3377.00,94.35
3376.00,94.33
3375.00,94.31
3374.00,94.27
3373.00,94.23
3372.00,94.18
3371.00,94.15
3370.00,94.13
3369.00,94.09
3368.00,94.04
3367.00,93.98
3366.00,93.92
3365.00,93.87
3364.00,93.84
3363.00,93.80
3362.00,93.75
3361.00,93.69
3360.00,93.63
3359.00,93.56
3358.00,93.49
3357.00,93.42
3356.00,93.35
3355.00,93.27
3354.00,93.19
3353.00,93.13
3352.00,93.06
3351.00,93.00
3350.00,92.91
3349.00,92.80
3348.00,92.69
3347.00,92.59
3346.00,92.50
3345.00,92.42
3344.00,92.33
3343.00,92.23
3342.00,92.10
3341.00,91.98
3340.00,91.85
3339.00,91.72
3338.00,91.58
3337.00,91.42
3336.00,91.26
3335.00,91.10
3334.00,90.93
3333.00,90.76
3332.00,90.58
3331.00,90.40
3330.00,90.21
3329.00,90.00
3328.00,89.78
3327.00,89.54
3326.00,89.30
3325.00,89.06
3324.00,88.83
3323.00,88.59
3322.00,88.33
3321.00,88.08
3320.00,87.83
3319.00,87.58
3318.00,87.34
3317.00,87.08
3316.00,86.81
3315.00,86.53
3314.00,86.23
3313.00,85.93
3312.00,85.62
3311.00,85.31
3310.00,85.00
3309.00,84.68
3308.00,84.35
3307.00,84.01
3306.00,83.67
3305.00,83.35
3304.00,83.05
3303.00,82.75
3302.00,82.48
3301.00,82.23
3300.00,82.01
3299.00,81.84
3298.00,81.70
3297.00,81.60
3296.00,81.55
3295.00,81.54
3294.00,81.55
3293.00,81.59
3292.00,81.64
3291.00,81.71
3290.00,81.83
3289.00,81.97
3288.00,82.14
3287.00,82.33
3286.00,82.51
3285.00,82.69
3284.00,82.87
3283.00,83.06
3282.00,83.24
3281.00,83.43
3280.00,83.60
3279.00,83.78
3278.00,83.96
3277.00,84.15
3276.00,84.34
3275.00,84.52
3274.00,84.69
3273.00,84.86
3272.00,85.01
3271.00,85.18
3270.00,85.34
3269.00,85.51
3268.00,85.67
3267.00,85.84
3266.00,86.01
3265.00,86.19
3264.00,86.37
3263.00,86.55
3262.00,86.73
3261.00,86.89
3260.00,87.06
3259.00,87.22
3258.00,87.38
3257.00,87.54
3256.00,87.70
3255.00,87.86
3254.00,88.00
3253.00,88.15
3252.00,88.30
3251.00,88.47
3250.00,88.64
3249.00,88.81
3248.00,88.96
3247.00,89.10
3246.00,89.24
3245.00,89.37
3244.00,89.50
3243.00,89.63
3242.00,89.75
3241.00,89.85
3240.00,89.96
3239.00,90.07
3238.00,90.19
3237.00,90.31
3236.00,90.43
3235.00,90.56
3234.00,90.68
3233.00,90.78
3232.00,90.87
3231.00,90.94
3230.00,91.01
3229.00,91.09
3228.00,91.18
3227.00,91.26
3226.00,91.34
3225.00,91.42
3224.00,91.47
3223.00,91.52
3222.00,91.57
3221.00,91.63
3220.00,91.71
3219.00,91.80
3218.00,91.88
3217.00,91.94
3216.00,91.98
3215.00,92.00
3214.00,92.01
3213.00,92.03
3212.00,92.05
3211.00,92.09
3210.00,92.13
3209.00,92.18
3208.00,92.23
3207.00,92.29
3206.00,92.34
3205.00,92.37
3204.00,92.39
3203.00,92.42
3202.00,92.47
3201.00,92.52
3200.00,92.57
3199.00,92.60
3198.00,92.63
3197.00,92.67
3196.00,92.70
3195.00,92.74
3194.00,92.78
3193.00,92.82
3192.00,92.87
3191.00,92.93
3190.00,93.00
3189.00,93.05
3188.00,93.09
3187.00,93.12
3186.00,93.17
3185.00,93.22
3184.00,93.29
3183.00,93.34
3182.00,93.39
3181.00,93.44
3180.00,93.49
3179.00,93.55
3178.00,93.59
3177.00,93.64
3176.00,93.69
3175.00,93.72
3174.00,93.76
3173.00,93.80
3172.00,93.83
3171.00,93.88
3170.00,93.93
3169.00,93.98
3168.00,94.04
3167.00,94.10
3166.00,94.16
3165.00,94.22
3164.00,94.27
3163.00,94.31
3162.00,94.34
3161.00,94.37
3160.00,94.39
3159.00,94.43
3158.00,94.46
3157.00,94.50
3156.00,94.54
3155.00,94.58
3154.00,94.61
3153.00,94.63
3152.00,94.65
3151.00,94.68
3150.00,94.71
3149.00,94.73
3148.00,94.75
3147.00,94.77
3146.00,94.78
3145.00,94.77
3144.00,94.76
3143.00,94.74
3142.00,94.73
3141.00,94.74
3140.00,94.76
3139.00,94.77
3138.00,94.78
3137.00,94.78
3136.00,94.78
3135.00,94.78
3134.00,94.78
3133.00,94.79
3132.00,94.80
3131.00,94.82
3130.00,94.84
3129.00,94.85
3128.00,94.84
3127.00,94.81
3126.00,94.77
3125.00,94.74
3124.00,94.70
3123.00,94.67
3122.00,94.64
3121.00,94.61
3120.00,94.58
3119.00,94.54
3118.00,94.50
3117.00,94.45
3116.00,94.41
3115.00,94.36
3114.00,94.31
3113.00,94.25
3112.00,94.19
3111.00,94.15
3110.00,94.11
3109.00,94.07
3108.00,94.00
3107.00,93.92
3106.00,93.82
3105.00,93.75
3104.00,93.69
3103.00,93.65
3102.00,93.61
3101.00,93.57
3100.00,93.51
3099.00,93.44
3098.00,93.37
3097.00,93.31
3096.00,93.27
3095.00,93.22
3094.00,93.19
3093.00,93.15
3092.00,93.12
3091.00,93.11
3090.00,93.11
3089.00,93.13
3088.00,93.14
3087.00,93.14
3086.00,93.12
3085.00,93.11
3084.00,93.11
3083.00,93.13
3082.00,93.17
3081.00,93.20
3080.00,93.22
3079.00,93.22
3078.00,93.22
3077.00,93.23
3076.00,93.25
3075.00,93.27
3074.00,93.29
3073.00,93.31
3072.00,93.34
3071.00,93.39
3070.00,93.43
3069.00,93.49
3068.00,93.54
3067.00,93.59
3066.00,93.63
3065.00,93.65
3064.00,93.69
3063.00,93.72
3062.00,93.77
3061.00,93.81
3060.00,93.85
3059.00,93.90
3058.00,93.97
3057.00,94.04
3056.00,94.12
3055.00,94.20
3054.00,94.28
3053.00,94.35
3052.00,94.42
3051.00,94.48
3050.00,94.53
3049.00,94.58
3048.00,94.63
3047.00,94.69
3046.00,94.77
3045.00,94.85
3044.00,94.92
3043.00,95.00
3042.00,95.06
3041.00,95.11
3040.00,95.16
3039.00,95.20
3038.00,95.24
3037.00,95.29
3036.00,95.32
3035.00,95.35
3034.00,95.38
3033.00,95.42
3032.00,95.47
3031.00,95.51
3030.00,95.55
3029.00,95.58
3028.00,95.61
3027.00,95.63
3026.00,95.64
3025.00,95.66
3024.00,95.68
3023.00,95.71
3022.00,95.75
3021.00,95.77
3020.00,95.79
3019.00,95.80
3018.00,95.81
3017.00,95.82
3016.00,95.82
3015.00,95.83
3014.00,95.84
3013.00,95.85
3012.00,95.87
3011.00,95.89
3010.00,95.91
3009.00,95.93
3008.00,95.94
3007.00,95.95
3006.00,95.95
3005.00,95.96
3004.00,95.96
3003.00,95.96
3002.00,95.95
3001.00,95.95
3000.00,95.94
2999.00,95.95
2998.00,95.96
2997.00,95.96
2996.00,95.96
2995.00,95.95
2994.00,95.94
2993.00,95.92
2992.00,95.91
2991.00,95.88
2990.00,95.84
2989.00,95.79
2988.00,95.75
2987.00,95.71
2986.00,95.66
2985.00,95.60
2984.00,95.54
2983.00,95.48
2982.00,95.42
2981.00,95.35
2980.00,95.27
2979.00,95.19
2978.00,95.10
2977.00,94.99
2976.00,94.87
2975.00,94.74
2974.00,94.59
2973.00,94.43
2972.00,94.26
2971.00,94.08
2970.00,93.89
2969.00,93.69
2968.00,93.48
2967.00,93.27
2966.00,93.05
2965.00,92.84
2964.00,92.63
2963.00,92.43
2962.00,92.24
2961.00,92.03
2960.00,91.82
2959.00,91.59
2958.00,91.34
2957.00,91.08
2956.00,90.79
2955.00,90.47
2954.00,90.11
2953.00,89.72
2952.00,89.30
2951.00,88.86
2950.00,88.42
2949.00,87.97
2948.00,87.54
2947.00,87.14
2946.00,86.77
2945.00,86.43
2944.00,86.11
2943.00,85.81
2942.00,85.53
2941.00,85.27
2940.00,85.03
2939.00,84.80
2938.00,84.58
2937.00,84.38
2936.00,84.19
2935.00,84.03
2934.00,83.91
2933.00,83.84
2932.00,83.80
2931.00,83.80
2930.00,83.83
2929.00,83.89
2928.00,83.97
2927.00,84.07
2926.00,84.19
2925.00,84.32
2924.00,84.47
2923.00,84.64
2922.00,84.84
2921.00,85.06
2920.00,85.32
2919.00,85.60
2918.00,85.88
2917.00,86.17
2916.00,86.47
2915.00,86.76
2914.00,87.06
2913.00,87.36
2912.00,87.65
2911.00,87.92
2910.00,88.17
2909.00,88.41
2908.00,88.63
2907.00,88.82
2906.00,88.98
2905.00,89.11
2904.00,89.23
2903.00,89.35
2902.00,89.46
2901.00,89.57
2900.00,89.68
2899.00,89.80
2898.00,89.94
2897.00,90.09
2896.00,90.25
2895.00,90.41
2894.00,90.56
2893.00,90.71
2892.00,90.84
2891.00,90.95
2890.00,91.05
2889.00,91.14
2888.00,91.21
2887.00,91.26
2886.00,91.28
2885.00,91.27
2884.00,91.23
2883.00,91.16
2882.00,91.06
2881.00,90.92
2880.00,90.74
2879.00,90.54
2878.00,90.33
2877.00,90.10
2876.00,89.86
2875.00,89.61
2874.00,89.36
2873.00,89.11
2872.00,88.86
2871.00,88.63
2870.00,88.42
2869.00,88.24
2868.00,88.08
2867.00,87.94
2866.00,87.80
2865.00,87.67
2864.00,87.54
2863.00,87.43
2862.00,87.32
2861.00,87.24
2860.00,87.20
2859.00,87.19
2858.00,87.22
2857.00,87.28
2856.00,87.37
2855.00,87.50
2854.00,87.69
2853.00,87.92
2852.00,88.22
2851.00,88.57
2850.00,88.97
2849.00,89.41
2848.00,89.88
2847.00,90.36
2846.00,90.83
2845.00,91.28
2844.00,91.70
2843.00,92.09
2842.00,92.44
2841.00,92.74
2840.00,93.01
2839.00,93.25
2838.00,93.45
2837.00,93.61
2836.00,93.74
2835.00,93.85
2834.00,93.95
2833.00,94.04
2832.00,94.13
2831.00,94.21
2830.00,94.28
2829.00,94.36
2828.00,94.43
2827.00,94.49
2826.00,94.54
2825.00,94.59
2824.00,94.63
2823.00,94.69
2822.00,94.74
2821.00,94.77
2820.00,94.80
2819.00,94.82
2818.00,94.86
2817.00,94.91
2816.00,94.96
2815.00,95.00
2814.00,95.03
2813.00,95.06
2812.00,95.09
2811.00,95.13
2810.00,95.17
2809.00,95.21
2808.00,95.26
2807.00,95.30
2806.00,95.33
2805.00,95.35
2804.00,95.36
2803.00,95.37
2802.00,95.39
2801.00,95.42
2800.00,95.45
2799.00,95.48
2798.00,95.52
2797.00,95.54
2796.00,95.55
2795.00,95.54
2794.00,95.54
2793.00,95.55
2792.00,95.56
2791.00,95.59
2790.00,95.62
2789.00,95.65
2788.00,95.67
2787.00,95.68
2786.00,95.68
2785.00,95.69
2784.00,95.71
2783.00,95.73
2782.00,95.74
2781.00,95.75
2780.00,95.75
2779.00,95.77
2778.00,95.79
2777.00,95.82
2776.00,95.84
2775.00,95.87
2774.00,95.89
2773.00,95.92
2772.00,95.93
2771.00,95.94
2770.00,95.94
2769.00,95.95
2768.00,95.95
2767.00,95.96
2766.00,95.96
2765.00,95.96
2764.00,95.97
2763.00,95.99
2762.00,96.01
2761.00,96.02
2760.00,96.02
2759.00,96.02
2758.00,96.02
2757.00,96.02
2756.00,96.02
2755.00,96.02
2754.00,96.02
2753.00,96.02
2752.00,96.03
2751.00,96.03
2750.00,96.03
2749.00,96.04
2748.00,96.04
2747.00,96.06
2746.00,96.06
2745.00,96.06
2744.00,96.06
2743.00,96.07
2742.00,96.08
2741.00,96.08
2740.00,96.08
2739.00,96.08
2738.00,96.09
2737.00,96.10
2736.00,96.11
2735.00,96.12
2734.00,96.14
2733.00,96.15
2732.00,96.17
2731.00,96.19
2730.00,96.20
2729.00,96.21
2728.00,96.22
2727.00,96.23
2726.00,96.24
2725.00,96.25
2724.00,96.26
2723.00,96.27
2722.00,96.27
2721.00,96.27
2720.00,96.27
2719.00,96.28
2718.00,96.30
2717.00,96.32
2716.00,96.35
2715.00,96.38
2714.00,96.39
2713.00,96.39
2712.00,96.39
2711.00,96.39
2710.00,96.40
2709.00,96.41
2708.00,96.42
2707.00,96.42
2706.00,96.42
2705.00,96.43
2704.00,96.43
2703.00,96.43
2702.00,96.43
2701.00,96.42
2700.00,96.41
2699.00,96.40
2698.00,96.40
2697.00,96.40
2696.00,96.41
2695.00,96.43
2694.00,96.43
2693.00,96.44
2692.00,96.44
2691.00,96.45
2690.00,96.45
2689.00,96.45
2688.00,96.45
2687.00,96.46
2686.00,96.47
2685.00,96.47
2684.00,96.47
2683.00,96.47
2682.00,96.47
2681.00,96.47
2680.00,96.48
2679.00,96.48
2678.00,96.48
2677.00,96.48
2676.00,96.49
2675.00,96.51
2674.00,96.54
2673.00,96.56
2672.00,96.58
2671.00,96.58
2670.00,96.58
2669.00,96.57
2668.00,96.56
2667.00,96.54
2666.00,96.53
2665.00,96.52
2664.00,96.52
2663.00,96.52
2662.00,96.51
2661.00,96.50
2660.00,96.50
2659.00,96.49
2658.00,96.48
2657.00,96.47
2656.00,96.46
2655.00,96.47
2654.00,96.48
2653.00,96.47
2652.00,96.45
2651.00,96.42
2650.00,96.41
2649.00,96.41
2648.00,96.42
2647.00,96.43
2646.00,96.43
2645.00,96.42
2644.00,96.41
2643.00,96.40
2642.00,96.39
2641.00,96.38
2640.00,96.37
2639.00,96.37
2638.00,96.36
2637.00,96.36
2636.00,96.35
2635.00,96.33
2634.00,96.32
2633.00,96.33
2632.00,96.34
2631.00,96.35
2630.00,96.34
2629.00,96.33
2628.00,96.32
2627.00,96.31
2626.00,96.30
2625.00,96.30
2624.00,96.30
2623.00,96.29
2622.00,96.28
2621.00,96.27
2620.00,96.28
2619.00,96.29
2618.00,96.29
2617.00,96.28
2616.00,96.28
2615.00,96.28
2614.00,96.28
2613.00,96.28
2612.00,96.27
2611.00,96.25
2610.00,96.23
2609.00,96.22
2608.00,96.21
2607.00,96.21
2606.00,96.23
2605.00,96.25
2604.00,96.26
2603.00,96.26
2602.00,96.24
2601.00,96.21
2600.00,96.18
2599.00,96.18
2598.00,96.18
2597.00,96.19
2596.00,96.20
2595.00,96.21
2594.00,96.21
2593.00,96.20
2592.00,96.18
2591.00,96.16
2590.00,96.14
2589.00,96.13
2588.00,96.14
2587.00,96.15
2586.00,96.16
2585.00,96.16
2584.00,96.14
2583.00,96.11
2582.00,96.09
2581.00,96.08
2580.00,96.08
2579.00,96.09
2578.00,96.10
2577.00,96.11
2576.00,96.12
2575.00,96.12
2574.00,96.12
2573.00,96.13
2572.00,96.13
2571.00,96.13
2570.00,96.12
2569.00,96.11
2568.00,96.12
2567.00,96.12
2566.00,96.13
2565.00,96.12
2564.00,96.11
2563.00,96.10
2562.00,96.10
2561.00,96.09
2560.00,96.08
2559.00,96.07
2558.00,96.07
2557.00,96.08
2556.00,96.09
2555.00,96.11
2554.00,96.12
2553.00,96.13
2552.00,96.14
2551.00,96.15
2550.00,96.14
2549.00,96.12
2548.00,96.11
2547.00,96.10
2546.00,96.10
2545.00,96.12
2544.00,96.13
2543.00,96.13
2542.00,96.12
2541.00,96.10
2540.00,96.08
2539.00,96.06
2538.00,96.06
2537.00,96.06
2536.00,96.07
2535.00,96.09
2534.00,96.10
2533.00,96.12
2532.00,96.13
2531.00,96.13
2530.00,96.13
2529.00,96.14
2528.00,96.15
2527.00,96.17
2526.00,96.18
2525.00,96.17
2524.00,96.15
2523.00,96.13
2522.00,96.12
2521.00,96.12
2520.00,96.14
2519.00,96.16
2518.00,96.18
2517.00,96.18
2516.00,96.18
2515.00,96.18
2514.00,96.18
2513.00,96.19
2512.00,96.21
2511.00,96.23
2510.00,96.23
2509.00,96.22
2508.00,96.22
2507.00,96.23
2506.00,96.24
2505.00,96.23
2504.00,96.22
2503.00,96.22
2502.00,96.23
2501.00,96.24
2500.00,96.25
2499.00,96.25
2498.00,96.25
2497.00,96.24
2496.00,96.23
2495.00,96.23
2494.00,96.22
2493.00,96.22
2492.00,96.24
2491.00,96.26
2490.00,96.28
2489.00,96.27
2488.00,96.24
2487.00,96.22
2486.00,96.21
2485.00,96.22
2484.00,96.23
2483.00,96.24
2482.00,96.25
2481.00,96.24
2480.00,96.22
2479.00,96.20
2478.00,96.19
2477.00,96.20
2476.00,96.23
2475.00,96.25
2474.00,96.27
2473.00,96.29
2472.00,96.29
2471.00,96.28
2470.00,96.27
2469.00,96.25
2468.00,96.24
2467.00,96.23
2466.00,96.23
2465.00,96.23
2464.00,96.23
2463.00,96.23
2462.00,96.23
2461.00,96.24
2460.00,96.25
2459.00,96.26
2458.00,96.26
2457.00,96.26
2456.00,96.26
2455.00,96.27
2454.00,96.27
2453.00,96.26
2452.00,96.25
2451.00,96.24
2450.00,96.26
2449.00,96.28
2448.00,96.30
2447.00,96.31
2446.00,96.32
2445.00,96.32
2444.00,96.31
2443.00,96.29
2442.00,96.27
2441.00,96.26
2440.00,96.26
2439.00,96.27
2438.00,96.28
2437.00,96.29
2436.00,96.29
2435.00,96.28
2434.00,96.26
2433.00,96.26
2432.00,96.27
2431.00,96.30
2430.00,96.32
2429.00,96.33
2428.00,96.34
2427.00,96.35
2426.00,96.35
2425.00,96.34
2424.00,96.34
2423.00,96.35
2422.00,96.35
2421.00,96.34
2420.00,96.34
2419.00,96.34
2418.00,96.34
2417.00,96.33
2416.00,96.33
2415.00,96.34
2414.00,96.36
2413.00,96.38
2412.00,96.39
2411.00,96.40
2410.00,96.39
2409.00,96.39
2408.00,96.39
2407.00,96.40
2406.00,96.41
2405.00,96.42
2404.00,96.42
2403.00,96.42
2402.00,96.42
2401.00,96.43
2400.00,96.44
2399.00,96.45
2398.00,96.45
2397.00,96.46
2396.00,96.47
2395.00,96.48
2394.00,96.48
2393.00,96.48
2392.00,96.49
2391.00,96.51
2390.00,96.52
2389.00,96.54
2388.00,96.55
2387.00,96.58
2386.00,96.59
2385.00,96.60
2384.00,96.60
2383.00,96.60
2382.00,96.61
2381.00,96.64
2380.00,96.69
2379.00,96.74
2378.00,96.79
2377.00,96.82
2376.00,96.83
2375.00,96.83
2374.00,96.81
2373.00,96.78
2372.00,96.77
2371.00,96.77
2370.00,96.79
2369.00,96.82
2368.00,96.84
2367.00,96.85
2366.00,96.85
2365.00,96.85
2364.00,96.83
2363.00,96.78
2362.00,96.74
2361.00,96.74
2360.00,96.80
2359.00,96.86
2358.00,96.88
2357.00,96.85
2356.00,96.82
2355.00,96.81
2354.00,96.81
2353.00,96.82
2352.00,96.83
2351.00,96.85
2350.00,96.86
2349.00,96.85
2348.00,96.83
2347.00,96.81
2346.00,96.80
2345.00,96.80
2344.00,96.83
2343.00,96.85
2342.00,96.84
2341.00,96.82
2340.00,96.79
2339.00,96.78
2338.00,96.77
2337.00,96.76
2336.00,96.75
2335.00,96.76
2334.00,96.78
2333.00,96.80
2332.00,96.79
2331.00,96.77
2330.00,96.73
2329.00,96.70
2328.00,96.67
2327.00,96.65
2326.00,96.62
2325.00,96.58
2324.00,96.56
2323.00,96.57
2322.00,96.59
2321.00,96.59
2320.00,96.56
2319.00,96.53
2318.00,96.49
2317.00,96.47
2316.00,96.46
2315.00,96.48
2314.00,96.50
2313.00,96.50
2312.00,96.48
2311.00,96.47
2310.00,96.48
2309.00,96.48
2308.00,96.47
2307.00,96.45
2306.00,96.43
2305.00,96.41
2304.00,96.39
2303.00,96.37
2302.00,96.34
2301.00,96.31
2300.00,96.30
2299.00,96.29
2298.00,96.28
2297.00,96.26
2296.00,96.23
2295.00,96.22
2294.00,96.22
2293.00,96.20
2292.00,96.18
2291.00,96.14
2290.00,96.09
2289.00,96.03
2288.00,95.98
2287.00,95.95
2286.00,95.93
2285.00,95.93
2284.00,95.94
2283.00,95.94
2282.00,95.93
2281.00,95.92
2280.00,95.89
2279.00,95.87
2278.00,95.86
2277.00,95.86
2276.00,95.87
2275.00,95.89
2274.00,95.88
2273.00,95.85
2272.00,95.82
2271.00,95.79
2270.00,95.77
2269.00,95.73
2268.00,95.69
2267.00,95.68
2266.00,95.69
2265.00,95.71
2264.00,95.72
2263.00,95.72
2262.00,95.70
2261.00,95.65
2260.00,95.58
2259.00,95.52
2258.00,95.50
2257.00,95.51
2256.00,95.54
2255.00,95.56
2254.00,95.57
2253.00,95.56
2252.00,95.53
2251.00,95.50
2250.00,95.47
2249.00,95.44
2248.00,95.42
2247.00,95.41
2246.00,95.41
2245.00,95.42
2244.00,95.43
2243.00,95.42
2242.00,95.39
2241.00,95.35
2240.00,95.32
2239.00,95.30
2238.00,95.29
2237.00,95.29
2236.00,95.28
2235.00,95.26
2234.00,95.25
2233.00,95.25
2232.00,95.27
2231.00,95.30
2230.00,95.29
2229.00,95.26
2228.00,95.22
2227.00,95.21
2226.00,95.21
2225.00,95.21
2224.00,95.18
2223.00,95.13
2222.00,95.07
2221.00,95.01
2220.00,94.99
2219.00,95.02
2218.00,95.07
2217.00,95.11
2216.00,95.12
2215.00,95.10
2214.00,95.06
2213.00,95.02
2212.00,94.98
2211.00,94.96
2210.00,94.94
2209.00,94.94
2208.00,94.96
2207.00,95.00
2206.00,95.01
2205.00,94.98
2204.00,94.93
2203.00,94.90
2202.00,94.91
2201.00,94.94
2200.00,94.95
2199.00,94.94
2198.00,94.92
2197.00,94.89
2196.00,94.87
2195.00,94.82
2194.00,94.77
2193.00,94.71
2192.00,94.68
2191.00,94.67
2190.00,94.65
2189.00,94.62
2188.00,94.58
2187.00,94.54
2186.00,94.49
2185.00,94.46
2184.00,94.47
2183.00,94.52
2182.00,94.58
2181.00,94.61
2180.00,94.59
2179.00,94.54
2178.00,94.50
2177.00,94.49
2176.00,94.50
2175.00,94.49
2174.00,94.45
2173.00,94.40
2172.00,94.37
2171.00,94.37
2170.00,94.39
2169.00,94.39
2168.00,94.34
2167.00,94.23
2166.00,94.11
2165.00,94.01
2164.00,93.95
2163.00,93.92
2162.00,93.93
2161.00,94.02
2160.00,94.19
2159.00,94.39
2158.00,94.54
2157.00,94.61
2156.00,94.60
2155.00,94.57
2154.00,94.54
2153.00,94.55
2152.00,94.60
2151.00,94.66
2150.00,94.71
2149.00,94.72
2148.00,94.73
2147.00,94.75
2146.00,94.78
2145.00,94.82
2144.00,94.87
2143.00,94.92
2142.00,94.97
2141.00,95.01
2140.00,95.04
2139.00,95.07
2138.00,95.09
2137.00,95.12
2136.00,95.19
2135.00,95.29
2134.00,95.41
2133.00,95.50
2132.00,95.56
2131.00,95.60
2130.00,95.63
2129.00,95.66
2128.00,95.67
2127.00,95.66
2126.00,95.66
2125.00,95.67
2124.00,95.69
2123.00,95.72
2122.00,95.73
2121.00,95.71
2120.00,95.68
2119.00,95.65
2118.00,95.65
2117.00,95.65
2116.00,95.67
2115.00,95.71
2114.00,95.73
2113.00,95.73
2112.00,95.70
2111.00,95.67
2110.00,95.67
2109.00,95.68
2108.00,95.69
2107.00,95.68
2106.00,95.65
2105.00,95.60
2104.00,95.57
2103.00,95.57
2102.00,95.61
2101.00,95.65
2100.00,95.66
2099.00,95.65
2098.00,95.64
2097.00,95.63
2096.00,95.63
2095.00,95.64
2094.00,95.66
2093.00,95.70
2092.00,95.76
2091.00,95.81
2090.00,95.83
2089.00,95.83
2088.00,95.79
2087.00,95.74
2086.00,95.67
2085.00,95.61
2084.00,95.58
2083.00,95.58
2082.00,95.59
2081.00,95.60
2080.00,95.60
2079.00,95.62
2078.00,95.63
2077.00,95.63
2076.00,95.60
2075.00,95.56
2074.00,95.52
2073.00,95.49
2072.00,95.49
2071.00,95.49
2070.00,95.50
2069.00,95.48
2068.00,95.44
2067.00,95.41
2066.00,95.39
2065.00,95.40
2064.00,95.43
2063.00,95.45
2062.00,95.46
2061.00,95.45
2060.00,95.42
2059.00,95.36
2058.00,95.31
2057.00,95.29
2056.00,95.30
2055.00,95.32
2054.00,95.30
2053.00,95.21
2052.00,95.08
2051.00,94.98
2050.00,94.93
2049.00,94.93
2048.00,94.97
2047.00,95.01
2046.00,95.02
2045.00,94.99
2044.00,94.94
2043.00,94.87
2042.00,94.81
2041.00,94.75
2040.00,94.71
2039.00,94.67
2038.00,94.62
2037.00,94.55
2036.00,94.50
2035.00,94.49
2034.00,94.54
2033.00,94.60
2032.00,94.64
2031.00,94.64
2030.00,94.63
2029.00,94.62
2028.00,94.64
2027.00,94.66
2026.00,94.65
2025.00,94.63
2024.00,94.63
2023.00,94.66
2022.00,94.71
2021.00,94.76
2020.00,94.81
2019.00,94.86
2018.00,94.89
2017.00,94.87
2016.00,94.83
2015.00,94.80
2014.00,94.82
2013.00,94.84
2012.00,94.83
2011.00,94.79
2010.00,94.76
2009.00,94.76
2008.00,94.79
2007.00,94.85
2006.00,94.94
2005.00,95.05
2004.00,95.16
2003.00,95.21
2002.00,95.19
2001.00,95.15
2000.00,95.13
1999.00,95.15
1998.00,95.20
1997.00,95.25
1996.00,95.27
1995.00,95.27
1994.00,95.24
1993.00,95.20
1992.00,95.17
1991.00,95.18
1990.00,95.21
1989.00,95.22
1988.00,95.19
1987.00,95.11
1986.00,95.01
1985.00,94.94
1984.00,94.92
1983.00,94.92
1982.00,94.90
1981.00,94.84
1980.00,94.75
1979.00,94.70
1978.00,94.72
1977.00,94.80
1976.00,94.88
1975.00,94.92
1974.00,94.92
1973.00,94.92
1972.00,94.95
1971.00,95.02
1970.00,95.10
1969.00,95.15
1968.00,95.17
1967.00,95.17
1966.00,95.17
1965.00,95.17
1964.00,95.18
1963.00,95.19
1962.00,95.20
1961.00,95.23
1960.00,95.28
1959.00,95.35
1958.00,95.43
1957.00,95.49
1956.00,95.54
1955.00,95.60
1954.00,95.67
1953.00,95.73
1952.00,95.78
1951.00,95.82
1950.00,95.83
1949.00,95.83
1948.00,95.83
1947.00,95.83
1946.00,95.83
1945.00,95.81
1944.00,95.78
1943.00,95.76
1942.00,95.76
1941.00,95.78
1940.00,95.81
1939.00,95.86
1938.00,95.92
1937.00,95.98
1936.00,96.02
1935.00,96.03
1934.00,96.03
1933.00,96.03
1932.00,96.06
1931.00,96.10
1930.00,96.14
1929.00,96.15
1928.00,96.16
1927.00,96.19
1926.00,96.23
1925.00,96.25
1924.00,96.24
1923.00,96.23
1922.00,96.23
1921.00,96.25
1920.00,96.26
1919.00,96.28
1918.00,96.28
1917.00,96.28
1916.00,96.28
1915.00,96.29
1914.00,96.30
1913.00,96.32
1912.00,96.34
1911.00,96.37
1910.00,96.38
1909.00,96.40
1908.00,96.41
1907.00,96.43
1906.00,96.45
1905.00,96.47
1904.00,96.49
1903.00,96.51
1902.00,96.51
1901.00,96.49
1900.00,96.48
1899.00,96.48
1898.00,96.50
1897.00,96.53
1896.00,96.54
1895.00,96.54
1894.00,96.54
1893.00,96.52
1892.00,96.52
1891.00,96.52
1890.00,96.53
1889.00,96.53
1888.00,96.54
1887.00,96.57
1886.00,96.60
1885.00,96.64
1884.00,96.67
1883.00,96.68
1882.00,96.68
1881.00,96.67
1880.00,96.67
1879.00,96.68
1878.00,96.70
1877.00,96.70
1876.00,96.68
1875.00,96.65
1874.00,96.63
1873.00,96.61
1872.00,96.61
1871.00,96.61
1870.00,96.62
1869.00,96.63
1868.00,96.65
1867.00,96.68
1866.00,96.70
1865.00,96.72
1864.00,96.74
1863.00,96.74
1862.00,96.74
1861.00,96.72
1860.00,96.73
1859.00,96.76
1858.00,96.79
1857.00,96.81
1856.00,96.83
1855.00,96.84
1854.00,96.87
1853.00,96.89
1852.00,96.90
1851.00,96.90
1850.00,96.87
1849.00,96.85
1848.00,96.84
1847.00,96.84
1846.00,96.85
1845.00,96.86
1844.00,96.88
1843.00,96.91
1842.00,96.95
1841.00,96.96
1840.00,96.95
1839.00,96.94
1838.00,96.93
1837.00,96.93
1836.00,96.96
1835.00,96.99
1834.00,97.02
1833.00,97.02
1832.00,97.00
1831.00,96.98
1830.00,96.96
1829.00,96.95
1828.00,96.95
1827.00,96.96
1826.00,96.97
1825.00,96.97
1824.00,96.97
1823.00,96.98
1822.00,96.98
1821.00,96.99
1820.00,97.00
1819.00,97.02
1818.00,97.05
1817.00,97.06
1816.00,97.07
1815.00,97.07
1814.00,97.07
1813.00,97.07
1812.00,97.07
1811.00,97.08
1810.00,97.10
1809.00,97.12
1808.00,97.13
1807.00,97.13
1806.00,97.13
1805.00,97.14
1804.00,97.15
1803.00,97.16
1802.00,97.16
1801.00,97.15
1800.00,97.15
1799.00,97.16
1798.00,97.17
1797.00,97.17
1796.00,97.17
1795.00,97.17
1794.00,97.18
1793.00,97.19
1792.00,97.20
1791.00,97.20
1790.00,97.21
1789.00,97.21
1788.00,97.22
1787.00,97.22
1786.00,97.22
1785.00,97.22
1784.00,97.21
1783.00,97.22
1782.00,97.22
1781.00,97.21
1780.00,97.20
1779.00,97.20
1778.00,97.21
1777.00,97.21
1776.00,97.22
1775.00,97.23
1774.00,97.25
1773.00,97.27
1772.00,97.28
1771.00,97.29
1770.00,97.29
1769.00,97.25
1768.00,97.21
1767.00,97.19
1766.00,97.19
1765.00,97.21
1764.00,97.21
1763.00,97.19
1762.00,97.18
1761.00,97.16
1760.00,97.16
1759.00,97.16
1758.00,97.14
1757.00,97.11
1756.00,97.08
1755.00,97.08
1754.00,97.08
1753.00,97.06
1752.00,97.03
1751.00,97.00
1750.00,96.97
1749.00,96.95
1748.00,96.93
1747.00,96.93
1746.00,96.93
1745.00,96.93
1744.00,96.92
1743.00,96.92
1742.00,96.92
1741.00,96.92
1740.00,96.93
1739.00,96.94
1738.00,96.95
1737.00,96.94
1736.00,96.93
1735.00,96.94
1734.00,96.98
1733.00,97.00
1732.00,96.99
1731.00,96.96
1730.00,96.91
1729.00,96.89
1728.00,96.88
1727.00,96.89
1726.00,96.91
1725.00,96.90
1724.00,96.89
1723.00,96.89
1722.00,96.90
1721.00,96.92
1720.00,96.92
1719.00,96.92
1718.00,96.91
1717.00,96.90
1716.00,96.91
1715.00,96.92
1714.00,96.92
1713.00,96.91
1712.00,96.90
1711.00,96.89
1710.00,96.89
1709.00,96.89
1708.00,96.89
1707.00,96.90
1706.00,96.91
1705.00,96.89
1704.00,96.88
1703.00,96.87
1702.00,96.87
1701.00,96.86
1700.00,96.84
1699.00,96.84
1698.00,96.83
1697.00,96.79
1696.00,96.74
1695.00,96.70
1694.00,96.67
1693.00,96.60
1692.00,96.48
1691.00,96.36
1690.00,96.24
1689.00,96.13
1688.00,96.03
1687.00,95.95
1686.00,95.85
1685.00,95.65
1684.00,95.33
1683.00,95.03
1682.00,94.79
1681.00,94.52
1680.00,94.22
1679.00,93.93
1678.00,93.67
1677.00,93.37
1676.00,92.97
1675.00,92.51
1674.00,92.09
1673.00,91.71
1672.00,91.28
1671.00,90.72
1670.00,90.01
1669.00,89.21
1668.00,88.45
1667.00,87.80
1666.00,87.22
1665.00,86.60
1664.00,85.86
1663.00,85.04
1662.00,84.25
1661.00,83.56
1660.00,82.92
1659.00,82.32
1658.00,81.77
1657.00,81.27
1656.00,80.81
1655.00,80.26
1654.00,79.32
1653.00,77.92
1652.00,76.79
1651.00,76.14
1650.00,75.60
1649.00,74.89
1648.00,73.81
1647.00,72.40
1646.00,71.02
1645.00,69.92
1644.00,68.99
1643.00,68.08
1642.00,67.19
1641.00,66.30
1640.00,65.49
1639.00,64.80
1638.00,64.23
1637.00,63.67
1636.00,63.12
1635.00,62.76
1634.00,62.70
1633.00,62.83
1632.00,63.03
1631.00,63.31
1630.00,63.67
1629.00,64.11
1628.00,64.59
1627.00,65.06
1626.00,65.55
1625.00,66.08
1624.00,66.71
1623.00,67.44
1622.00,68.19
1621.00,68.89
1620.00,69.57
1619.00,70.31
1618.00,71.23
1617.00,72.36
1616.00,73.48
1615.00,74.41
1614.00,75.14
1613.00,75.83
1612.00,76.54
1611.00,77.30
1610.00,78.05
1609.00,78.80
1608.00,79.56
1607.00,80.31
1606.00,81.01
1605.00,81.68
1604.00,82.35
1603.00,82.98
1602.00,83.54
1601.00,84.07
1600.00,84.56
1599.00,85.01
1598.00,85.39
1597.00,85.73
1596.00,86.05
1595.00,86.33
1594.00,86.55
1593.00,86.72
1592.00,86.89
1591.00,87.02
1590.00,87.09
1589.00,87.11
1588.00,87.12
1587.00,87.09
1586.00,87.00
1585.00,86.85
1584.00,86.66
1583.00,86.42
1582.00,86.10
1581.00,85.75
1580.00,85.42
1579.00,85.08
1578.00,84.64
1577.00,84.01
1576.00,83.25
1575.00,82.55
1574.00,81.95
1573.00,81.42
1572.00,80.88
1571.00,80.25
1570.00,79.48
1569.00,78.72
1568.00,78.12
1567.00,77.63
1566.00,77.13
1565.00,76.60
1564.00,76.11
1563.00,75.75
1562.00,75.47
1561.00,75.18
1560.00,74.67
1559.00,73.91
1558.00,73.30
1557.00,73.00
1556.00,72.73
1555.00,72.37
1554.00,71.95
1553.00,71.53
1552.00,71.11
1551.00,70.62
1550.00,70.03
1549.00,69.44
1548.00,68.93
1547.00,68.47
1546.00,67.97
1545.00,67.43
1544.00,66.92
1543.00,66.51
1542.00,66.16
1541.00,65.84
1540.00,65.58
1539.00,65.49
1538.00,65.54
1537.00,65.66
1536.00,65.80
1535.00,66.01
1534.00,66.33
1533.00,66.77
1532.00,67.24
1531.00,67.70
1530.00,68.18
1529.00,68.71
1528.00,69.29
1527.00,69.92
1526.00,70.58
1525.00,71.21
1524.00,71.80
1523.00,72.41
1522.00,73.14
1521.00,73.93
1520.00,74.61
1519.00,75.18
1518.00,75.76
1517.00,76.38
1516.00,77.00
1515.00,77.56
1514.00,78.08
1513.00,78.58
1512.00,79.07
1511.00,79.54
1510.00,79.97
1509.00,80.39
1508.00,80.86
1507.00,81.47
1506.00,82.15
1505.00,82.68
1504.00,83.04
1503.00,83.31
1502.00,83.57
1501.00,83.86
1500.00,84.15
1499.00,84.44
1498.00,84.77
1497.00,85.12
1496.00,85.45
1495.00,85.75
1494.00,86.01
1493.00,86.21
1492.00,86.36
1491.00,86.51
1490.00,86.66
1489.00,86.78
1488.00,86.82
1487.00,86.80
1486.00,86.71
1485.00,86.52
1484.00,86.23
1483.00,85.85
1482.00,85.40
1481.00,84.93
1480.00,84.49
1479.00,84.13
1478.00,83.85
1477.00,83.63
1476.00,83.47
1475.00,83.42
1474.00,83.45
1473.00,83.51
1472.00,83.50
1471.00,83.40
1470.00,83.19
1469.00,82.88
1468.00,82.45
1467.00,81.91
1466.00,81.25
1465.00,80.54
1464.00,79.98
1463.00,79.70
1462.00,79.66
1461.00,79.79
1460.00,80.04
1459.00,80.43
1458.00,80.96
1457.00,81.52
1456.00,81.93
1455.00,82.19
1454.00,82.35
1453.00,82.47
1452.00,82.58
1451.00,82.68
1450.00,82.78
1449.00,82.84
1448.00,82.87
1447.00,82.87
1446.00,82.86
1445.00,82.82
1444.00,82.74
1443.00,82.63
1442.00,82.50
1441.00,82.38
1440.00,82.26
1439.00,82.16
1438.00,82.08
1437.00,82.03
1436.00,82.04
1435.00,82.13
1434.00,82.27
1433.00,82.44
1432.00,82.65
1431.00,82.90
1430.00,83.18
1429.00,83.44
1428.00,83.64
1427.00,83.76
1426.00,83.79
1425.00,83.75
1424.00,83.62
1423.00,83.46
1422.00,83.30
1421.00,83.12
1420.00,82.90
1419.00,82.69
1418.00,82.58
1417.00,82.60
1416.00,82.73
1415.00,82.94
1414.00,83.23
1413.00,83.61
1412.00,84.04
1411.00,84.50
1410.00,84.96
1409.00,85.40
1408.00,85.81
1407.00,86.17
1406.00,86.52
1405.00,86.84
1404.00,87.13
1403.00,87.37
1402.00,87.55
1401.00,87.68
1400.00,87.79
1399.00,87.86
1398.00,87.90
1397.00,87.92
1396.00,87.91
1395.00,87.87
1394.00,87.82
1393.00,87.76
1392.00,87.69
1391.00,87.58
1390.00,87.44
1389.00,87.26
1388.00,87.05
1387.00,86.82
1386.00,86.59
1385.00,86.39
1384.00,86.17
1383.00,85.92
1382.00,85.64
1381.00,85.36
1380.00,85.06
1379.00,84.77
1378.00,84.50
1377.00,84.27
1376.00,84.04
1375.00,83.80
1374.00,83.59
1373.00,83.44
1372.00,83.33
1371.00,83.27
1370.00,83.24
1369.00,83.23
1368.00,83.25
1367.00,83.31
1366.00,83.40
1365.00,83.52
1364.00,83.65
1363.00,83.78
1362.00,83.93
1361.00,84.10
1360.00,84.28
1359.00,84.47
1358.00,84.66
1357.00,84.85
1356.00,85.02
1355.00,85.18
1354.00,85.36
1353.00,85.53
1352.00,85.70
1351.00,85.85
1350.00,85.97
1349.00,86.08
1348.00,86.18
1347.00,86.27
1346.00,86.37
1345.00,86.48
1344.00,86.59
1343.00,86.69
1342.00,86.78
1341.00,86.87
1340.00,86.94
1339.00,87.00
1338.00,87.06
1337.00,87.13
1336.00,87.19
1335.00,87.26
1334.00,87.34
1333.00,87.42
1332.00,87.52
1331.00,87.61
1330.00,87.70
1329.00,87.78
1328.00,87.84
1327.00,87.88
1326.00,87.89
1325.00,87.88
1324.00,87.85
1323.00,87.81
1322.00,87.76
1321.00,87.72
1320.00,87.68
1319.00,87.63
1318.00,87.57
1317.00,87.51
1316.00,87.43
1315.00,87.34
1314.00,87.24
1313.00,87.14
1312.00,87.02
1311.00,86.90
1310.00,86.77
1309.00,86.66
1308.00,86.56
1307.00,86.48
1306.00,86.43
1305.00,86.38
1304.00,86.33
1303.00,86.26
1302.00,86.19
1301.00,86.14
1300.00,86.10
1299.00,86.09
1298.00,86.10
1297.00,86.11
1296.00,86.12
1295.00,86.13
1294.00,86.13
1293.00,86.13
1292.00,86.13
1291.00,86.14
1290.00,86.15
1289.00,86.15
1288.00,86.11
1287.00,86.05
1286.00,85.96
1285.00,85.84
1284.00,85.68
1283.00,85.50
1282.00,85.31
1281.00,85.13
1280.00,84.96
1279.00,84.83
1278.00,84.73
1277.00,84.66
1276.00,84.60
1275.00,84.53
1274.00,84.42
1273.00,84.26
1272.00,84.02
1271.00,83.70
1270.00,83.30
1269.00,82.84
1268.00,82.36
1267.00,81.88
1266.00,81.44
1265.00,81.08
1264.00,80.82
1263.00,80.67
1262.00,80.64
1261.00,80.71
1260.00,80.84
1259.00,81.03
1258.00,81.28
1257.00,81.56
1256.00,81.86
1255.00,82.17
1254.00,82.48
1253.00,82.78
1252.00,83.08
1251.00,83.35
1250.00,83.60
1249.00,83.82
1248.00,83.98
1247.00,84.12
1246.00,84.22
1245.00,84.28
1244.00,84.29
1243.00,84.24
1242.00,84.17
1241.00,84.07
1240.00,83.95
1239.00,83.79
1238.00,83.60
1237.00,83.42
1236.00,83.29
1235.00,83.26
1234.00,83.37
1233.00,83.62
1232.00,84.01
1231.00,84.50
1230.00,85.05
1229.00,85.60
1228.00,86.12
1227.00,86.59
1226.00,86.99
1225.00,87.32
1224.00,87.57
1223.00,87.73
1222.00,87.79
1221.00,87.75
1220.00,87.59
1219.00,87.34
1218.00,87.04
1217.00,86.73
1216.00,86.45
1215.00,86.21
1214.00,86.02
1213.00,85.87
1212.00,85.77
1211.00,85.74
1210.00,85.74
1209.00,85.76
1208.00,85.75
1207.00,85.67
1206.00,85.49
1205.00,85.21
1204.00,84.84
1203.00,84.42
1202.00,84.03
1201.00,83.77
1200.00,83.67
1199.00,83.77
1198.00,84.04
1197.00,84.41
1196.00,84.85
1195.00,85.30
1194.00,85.75
1193.00,86.17
1192.00,86.55
1191.00,86.89
1190.00,87.21
1189.00,87.50
1188.00,87.75
1187.00,87.98
1186.00,88.18
1185.00,88.33
1184.00,88.40
1183.00,88.39
1182.00,88.32
1181.00,88.17
1180.00,87.96
1179.00,87.66
1178.00,87.26
1177.00,86.76
1176.00,86.18
1175.00,85.55
1174.00,84.90
1173.00,84.29
1172.00,83.74
1171.00,83.29
1170.00,82.98
1169.00,82.86
1168.00,82.93
1167.00,83.21
1166.00,83.67
1165.00,84.26
1164.00,84.90
1163.00,85.55
1162.00,86.16
1161.00,86.73
1160.00,87.23
1159.00,87.67
1158.00,88.07
1157.00,88.42
1156.00,88.74
1155.00,89.01
1154.00,89.25
1153.00,89.47
1152.00,89.68
1151.00,89.89
1150.00,90.08
1149.00,90.27
1148.00,90.44
1147.00,90.58
1146.00,90.70
1145.00,90.82
1144.00,90.95
1143.00,91.08
1142.00,91.21
1141.00,91.31
1140.00,91.37
1139.00,91.42
1138.00,91.46
1137.00,91.50
1136.00,91.52
1135.00,91.52
1134.00,91.49
1133.00,91.43
1132.00,91.35
1131.00,91.23
1130.00,91.05
1129.00,90.80
1128.00,90.50
1127.00,90.17
1126.00,89.84
1125.00,89.54
1124.00,89.27
1123.00,89.04
1122.00,88.87
1121.00,88.75
1120.00,88.68
1119.00,88.66
1118.00,88.69
1117.00,88.76
1116.00,88.86
1115.00,88.97
1114.00,89.08
1113.00,89.19
1112.00,89.29
1111.00,89.39
1110.00,89.50
1109.00,89.62
1108.00,89.76
1107.00,89.91
1106.00,90.08
1105.00,90.24
1104.00,90.39
1103.00,90.52
1102.00,90.64
1101.00,90.74
1100.00,90.84
1099.00,90.92
1098.00,90.99
1097.00,91.04
1096.00,91.07
1095.00,91.10
1094.00,91.12
1093.00,91.12
1092.00,91.13
1091.00,91.12
1090.00,91.10
1089.00,91.07
1088.00,91.03
1087.00,90.98
1086.00,90.92
1085.00,90.85
1084.00,90.77
1083.00,90.69
1082.00,90.61
1081.00,90.53
1080.00,90.46
1079.00,90.41
1078.00,90.37
1077.00,90.35
1076.00,90.36
1075.00,90.40
1074.00,90.44
1073.00,90.46
1072.00,90.47
1071.00,90.48
1070.00,90.53
1069.00,90.60
1068.00,90.67
1067.00,90.70
1066.00,90.73
1065.00,90.79
1064.00,90.89
1063.00,91.00
1062.00,91.11
1061.00,91.19
1060.00,91.26
1059.00,91.35
1058.00,91.45
1057.00,91.54
1056.00,91.62
1055.00,91.68
1054.00,91.74
1053.00,91.81
1052.00,91.89
1051.00,91.99
1050.00,92.10
1049.00,92.19
1048.00,92.25
1047.00,92.27
1046.00,92.29
1045.00,92.30
1044.00,92.30
1043.00,92.29
1042.00,92.30
1041.00,92.32
1040.00,92.34
1039.00,92.35
1038.00,92.34
1037.00,92.30
1036.00,92.25
1035.00,92.18
1034.00,92.11
1033.00,92.06
1032.00,92.01
1031.00,91.97
1030.00,91.93
1029.00,91.89
1028.00,91.87
1027.00,91.87
1026.00,91.89
1025.00,91.92
1024.00,91.96
1023.00,92.01
1022.00,92.08
1021.00,92.14
1020.00,92.20
1019.00,92.25
1018.00,92.31
1017.00,92.37
1016.00,92.42
1015.00,92.46
1014.00,92.48
1013.00,92.45
1012.00,92.41
1011.00,92.38
1010.00,92.37
1009.00,92.37
1008.00,92.34
1007.00,92.30
1006.00,92.25
1005.00,92.24
1004.00,92.24
1003.00,92.24
1002.00,92.23
1001.00,92.22
1000.00,92.22
999.00,92.24
998.00,92.26
997.00,92.26
996.00,92.24
995.00,92.22
994.00,92.19
993.00,92.16
992.00,92.11
991.00,92.07
990.00,92.02
989.00,91.97
988.00,91.91
987.00,91.85
986.00,91.78
985.00,91.72
984.00,91.67
983.00,91.60
982.00,91.52
981.00,91.41
980.00,91.29
979.00,91.16
978.00,91.02
977.00,90.88
976.00,90.75
975.00,90.64
974.00,90.58
973.00,90.57
972.00,90.59
971.00,90.65
970.00,90.73
969.00,90.84
968.00,90.93
967.00,91.01
966.00,91.06
965.00,91.09
964.00,91.10
963.00,91.09
962.00,91.05
961.00,91.00
960.00,90.96
959.00,90.98
958.00,91.04
957.00,91.15
956.00,91.26
955.00,91.35
954.00,91.42
953.00,91.46
952.00,91.50
951.00,91.53
950.00,91.59
949.00,91.66
948.00,91.76
947.00,91.88
946.00,92.00
945.00,92.11
944.00,92.21
943.00,92.29
942.00,92.35
941.00,92.40
940.00,92.42
939.00,92.43
938.00,92.41
937.00,92.37
936.00,92.30
935.00,92.21
934.00,92.10
933.00,91.98
932.00,91.85
931.00,91.73
930.00,91.62
929.00,91.56
928.00,91.57
927.00,91.63
926.00,91.73
925.00,91.83
924.00,91.94
923.00,92.04
922.00,92.13
921.00,92.19
920.00,92.25
919.00,92.30
918.00,92.37
917.00,92.45
916.00,92.51
915.00,92.55
914.00,92.57
913.00,92.60
912.00,92.63
911.00,92.67
910.00,92.70
909.00,92.72
908.00,92.74
907.00,92.77
906.00,92.81
905.00,92.86
904.00,92.91
903.00,92.95
902.00,92.98
901.00,92.99
900.00,93.00
899.00,93.01
898.00,93.04
897.00,93.06
896.00,93.07
895.00,93.09
894.00,93.09
893.00,93.09
892.00,93.09
891.00,93.09
890.00,93.11
889.00,93.14
888.00,93.16
887.00,93.18
886.00,93.20
885.00,93.23
884.00,93.25
883.00,93.27
882.00,93.27
881.00,93.27
880.00,93.27
879.00,93.29
878.00,93.30
877.00,93.32
876.00,93.33
875.00,93.36
874.00,93.40
873.00,93.44
872.00,93.45
871.00,93.42
870.00,93.38
869.00,93.35
868.00,93.34
867.00,93.35
866.00,93.37
865.00,93.38
864.00,93.38
863.00,93.37
862.00,93.39
861.00,93.41
860.00,93.42
859.00,93.42
858.00,93.40
857.00,93.38
856.00,93.36
855.00,93.34
854.00,93.32
853.00,93.30
852.00,93.29
851.00,93.29
850.00,93.29
849.00,93.28
848.00,93.25
847.00,93.22
846.00,93.19
845.00,93.15
844.00,93.11
843.00,93.04
842.00,92.97
841.00,92.89
840.00,92.80
839.00,92.69
838.00,92.57
837.00,92.45
836.00,92.34
835.00,92.24
834.00,92.16
833.00,92.11
832.00,92.10
831.00,92.11
830.00,92.14
829.00,92.17
828.00,92.21
827.00,92.26
826.00,92.30
825.00,92.33
824.00,92.33
823.00,92.33
822.00,92.34
821.00,92.37
820.00,92.40
819.00,92.40
818.00,92.36
817.00,92.29
816.00,92.21
815.00,92.14
814.00,92.08
813.00,92.02
812.00,91.95
811.00,91.87
810.00,91.82
809.00,91.79
808.00,91.76
807.00,91.73
806.00,91.68
805.00,91.62
804.00,91.52
803.00,91.43
802.00,91.33
801.00,91.27
800.00,91.22
799.00,91.18
798.00,91.13
797.00,91.08
796.00,91.02
795.00,90.96
794.00,90.89
793.00,90.79
792.00,90.68
791.00,90.58
790.00,90.49
789.00,90.40
788.00,90.30
787.00,90.21
786.00,90.13
785.00,90.05
784.00,89.95
783.00,89.84
782.00,89.72
781.00,89.62
780.00,89.53
779.00,89.45
778.00,89.38
777.00,89.30
776.00,89.23
775.00,89.16
774.00,89.12
773.00,89.07
772.00,89.01
771.00,88.95
770.00,88.90
769.00,88.84
768.00,88.79
767.00,88.72
766.00,88.66
765.00,88.60
764.00,88.54
763.00,88.47
762.00,88.40
761.00,88.30
760.00,88.15
759.00,87.98
758.00,87.82
757.00,87.66
756.00,87.48
755.00,87.30
754.00,87.12
753.00,86.95
752.00,86.80
751.00,86.67
750.00,86.55
749.00,86.40
748.00,86.20
747.00,85.99
746.00,85.78
745.00,85.59
744.00,85.40
743.00,85.21
742.00,85.03
741.00,84.85
740.00,84.64
739.00,84.42
738.00,84.16
737.00,83.85
736.00,83.46
735.00,83.00
734.00,82.50
733.00,82.02
732.00,81.58
731.00,81.16
730.00,80.77
729.00,80.45
728.00,80.24
727.00,80.18
726.00,80.23
725.00,80.30
724.00,80.34
723.00,80.35
722.00,80.34
721.00,80.28
720.00,80.17
719.00,80.02
718.00,79.87
717.00,79.71
716.00,79.53
715.00,79.34
714.00,79.16
713.00,78.98
712.00,78.83
711.00,78.73
710.00,78.65
709.00,78.57
708.00,78.46
707.00,78.37
706.00,78.32
705.00,78.29
704.00,78.24
703.00,78.16
702.00,78.05
701.00,77.90
700.00,77.72
699.00,77.51
698.00,77.34
697.00,77.19
696.00,77.05
695.00,76.87
694.00,76.65
693.00,76.42
692.00,76.22
691.00,76.07
690.00,75.98
689.00,75.90
688.00,75.81
687.00,75.71
686.00,75.64
685.00,75.62
684.00,75.65
683.00,75.73
682.00,75.84
681.00,75.94
680.00,76.02
679.00,76.10
678.00,76.20
677.00,76.31
676.00,76.43
675.00,76.56
674.00,76.70
673.00,76.82
672.00,76.90
671.00,76.97
670.00,77.10
669.00,77.29
668.00,77.52
667.00,77.70
666.00,77.82
665.00,77.93
664.00,78.04
663.00,78.18
662.00,78.37
661.00,78.61
660.00,78.86
659.00,79.13
658.00,79.39
657.00,79.59
656.00,79.70
655.00,79.76
654.00,79.81
653.00,79.88
652.00,79.98
651.00,80.09
650.00,80.22
649.00,80.35
648.00,80.47
647.00,80.57
646.00,80.64
645.00,80.69
644.00,80.75
643.00,80.85
642.00,80.98
641.00,81.06
640.00,80.99
639.00,80.80
638.00,80.58
637.00,80.41
636.00,80.33
635.00,80.33
634.00,80.39
633.00,80.41
632.00,80.34
631.00,80.20
630.00,80.07
629.00,80.02
628.00,80.00
627.00,79.96
626.00,79.89
625.00,79.78
624.00,79.64
623.00,79.52
622.00,79.49
621.00,79.60
620.00,79.79
619.00,79.94
618.00,79.99
617.00,79.95
616.00,79.91
615.00,79.94
614.00,79.95
613.00,79.82
612.00,79.53
611.00,79.22
610.00,79.00
609.00,78.92
608.00,79.00
607.00,79.23
606.00,79.49
605.00,79.56
604.00,79.38
603.00,79.11
602.00,78.91
601.00,78.77
600.00,78.62
599.00,78.49
598.00,78.45
597.00,78.50
596.00,78.63
595.00,78.88
594.00,79.19
593.00,79.34
592.00,79.19
591.00,78.84
590.00,78.48
589.00,78.11
588.00,77.69
587.00,77.41
586.00,77.46
585.00,77.67
584.00,77.70
583.00,77.42
582.00,76.91
581.00,76.23
580.00,75.40
579.00,74.67
578.00,74.35
577.00,74.35
576.00,74.37
575.00,74.37
574.00,74.54
573.00,74.90
572.00,75.25
571.00,75.56
570.00,75.98
569.00,76.55
568.00,77.17
567.00,77.64
566.00,77.76
565.00,77.44
564.00,76.76
563.00,76.05
562.00,75.66
561.00,75.63
560.00,75.84
559.00,76.24
558.00,76.72
557.00,77.10
556.00,77.33
555.00,77.47
554.00,77.61
553.00,77.74
552.00,77.81
551.00,77.79
550.00,77.61
