Created as New Dataset,75 Nylon Allied Signal Fibers
cm-1,%T
4000.00,101.37
3999.00,101.38
3998.00,101.40
3997.00,101.41
3996.00,101.41
3995.00,101.39
3994.00,101.37
3993.00,101.36
3992.00,101.36
3991.00,101.36
3990.00,101.37
3989.00,101.38
3988.00,101.39
3987.00,101.41
3986.00,101.41
3985.00,101.40
3984.00,101.38
3983.00,101.36
3982.00,101.34
3981.00,101.34
3980.00,101.35
3979.00,101.35
3978.00,101.35
3977.00,101.35
3976.00,101.35
3975.00,101.36
3974.00,101.37
3973.00,101.37
3972.00,101.35
3971.00,101.33
3970.00,101.31
3969.00,101.30
3968.00,101.32
3967.00,101.34
3966.00,101.36
3965.00,101.39
3964.00,101.41
3963.00,101.42
3962.00,101.42
3961.00,101.41
3960.00,101.40
3959.00,101.39
3958.00,101.40
3957.00,101.41
3956.00,101.43
3955.00,101.44
3954.00,101.45
3953.00,101.45
3952.00,101.44
3951.00,101.43
3950.00,101.42
3949.00,101.42
3948.00,101.43
3947.00,101.45
3946.00,101.47
3945.00,101.47
3944.00,101.46
3943.00,101.45
3942.00,101.44
3941.00,101.44
3940.00,101.44
3939.00,101.44
3938.00,101.45
3937.00,101.46
3936.00,101.46
3935.00,101.47
3934.00,101.46
3933.00,101.45
3932.00,101.43
3931.00,101.43
3930.00,101.43
3929.00,101.44
3928.00,101.44
3927.00,101.44
3926.00,101.44
3925.00,101.43
3924.00,101.43
3923.00,101.44
3922.00,101.46
3921.00,101.47
3920.00,101.47
3919.00,101.46
3918.00,101.46
3917.00,101.45
3916.00,101.45
3915.00,101.45
3914.00,101.44
3913.00,101.44
3912.00,101.43
3911.00,101.43
3910.00,101.42
3909.00,101.40
3908.00,101.39
3907.00,101.38
3906.00,101.39
3905.00,101.41
3904.00,101.43
3903.00,101.46
3902.00,101.48
3901.00,101.49
3900.00,101.46
3899.00,101.44
3898.00,101.42
3897.00,101.43
3896.00,101.43
3895.00,101.42
3894.00,101.41
3893.00,101.40
3892.00,101.40
3891.00,101.42
3890.00,101.44
3889.00,101.47
3888.00,101.47
3887.00,101.45
3886.00,101.43
3885.00,101.42
3884.00,101.44
3883.00,101.46
3882.00,101.45
3881.00,101.40
3880.00,101.35
3879.00,101.33
3878.00,101.33
3877.00,101.35
3876.00,101.38
3875.00,101.40
3874.00,101.43
3873.00,101.45
3872.00,101.47
3871.00,101.45
3870.00,101.42
3869.00,101.41
3868.00,101.42
3867.00,101.43
3866.00,101.42
3865.00,101.39
3864.00,101.36
3863.00,101.35
3862.00,101.36
3861.00,101.37
3860.00,101.39
3859.00,101.42
3858.00,101.48
3857.00,101.55
3856.00,101.62
3855.00,101.66
3854.00,101.64
3853.00,101.60
3852.00,101.58
3851.00,101.57
3850.00,101.53
3849.00,101.46
3848.00,101.41
3847.00,101.38
3846.00,101.36
3845.00,101.36
3844.00,101.37
3843.00,101.39
3842.00,101.41
3841.00,101.42
3840.00,101.41
3839.00,101.39
3838.00,101.39
3837.00,101.40
3836.00,101.42
3835.00,101.43
3834.00,101.42
3833.00,101.40
3832.00,101.38
3831.00,101.37
3830.00,101.36
3829.00,101.36
3828.00,101.37
3827.00,101.39
3826.00,101.41
3825.00,101.44
3824.00,101.48
3823.00,101.50
3822.00,101.50
3821.00,101.49
3820.00,101.47
3819.00,101.47
3818.00,101.45
3817.00,101.42
3816.00,101.39
3815.00,101.38
3814.00,101.37
3813.00,101.36
3812.00,101.33
3811.00,101.31
3810.00,101.33
3809.00,101.36
3808.00,101.39
3807.00,101.39
3806.00,101.39
3805.00,101.40
3804.00,101.40
3803.00,101.39
3802.00,101.39
3801.00,101.40
3800.00,101.43
3799.00,101.44
3798.00,101.41
3797.00,101.36
3796.00,101.33
3795.00,101.33
3794.00,101.35
3793.00,101.36
3792.00,101.36
3791.00,101.35
3790.00,101.36
3789.00,101.37
3788.00,101.38
3787.00,101.37
3786.00,101.36
3785.00,101.35
3784.00,101.35
3783.00,101.35
3782.00,101.35
3781.00,101.34
3780.00,101.32
3779.00,101.30
3778.00,101.30
3777.00,101.29
3776.00,101.28
3775.00,101.28
3774.00,101.28
3773.00,101.29
3772.00,101.30
3771.00,101.30
3770.00,101.31
3769.00,101.32
3768.00,101.35
3767.00,101.37
3766.00,101.36
3765.00,101.34
3764.00,101.32
3763.00,101.31
3762.00,101.32
3761.00,101.33
3760.00,101.34
3759.00,101.35
3758.00,101.36
3757.00,101.37
3756.00,101.39
3755.00,101.41
3754.00,101.43
3753.00,101.43
3752.00,101.42
3751.00,101.40
3750.00,101.39
3749.00,101.39
3748.00,101.38
3747.00,101.37
3746.00,101.35
3745.00,101.33
3744.00,101.32
3743.00,101.34
3742.00,101.37
3741.00,101.37
3740.00,101.37
3739.00,101.39
3738.00,101.43
3737.00,101.45
3736.00,101.45
3735.00,101.45
3734.00,101.45
3733.00,101.44
3732.00,101.43
3731.00,101.40
3730.00,101.38
3729.00,101.36
3728.00,101.34
3727.00,101.31
3726.00,101.30
3725.00,101.29
3724.00,101.29
3723.00,101.27
3722.00,101.26
3721.00,101.25
3720.00,101.26
3719.00,101.27
3718.00,101.27
3717.00,101.26
3716.00,101.27
3715.00,101.30
3714.00,101.34
3713.00,101.37
3712.00,101.38
3711.00,101.38
3710.00,101.37
3709.00,101.35
3708.00,101.32
3707.00,101.30
3706.00,101.28
3705.00,101.27
3704.00,101.26
3703.00,101.25
3702.00,101.25
3701.00,101.25
3700.00,101.27
3699.00,101.28
3698.00,101.29
3697.00,101.29
3696.00,101.28
3695.00,101.26
3694.00,101.26
3693.00,101.26
3692.00,101.29
3691.00,101.33
3690.00,101.37
3689.00,101.38
3688.00,101.38
3687.00,101.37
3686.00,101.34
3685.00,101.30
3684.00,101.27
3683.00,101.26
3682.00,101.27
3681.00,101.29
3680.00,101.30
3679.00,101.30
3678.00,101.29
3677.00,101.30
3676.00,101.32
3675.00,101.34
3674.00,101.38
3673.00,101.39
3672.00,101.36
3671.00,101.29
3670.00,101.24
3669.00,101.23
3668.00,101.25
3667.00,101.26
3666.00,101.25
3665.00,101.24
3664.00,101.23
3663.00,101.24
3662.00,101.23
3661.00,101.23
3660.00,101.22
3659.00,101.22
3658.00,101.22
3657.00,101.22
3656.00,101.20
3655.00,101.20
3654.00,101.23
3653.00,101.27
3652.00,101.30
3651.00,101.33
3650.00,101.32
3649.00,101.30
3648.00,101.29
3647.00,101.29
3646.00,101.27
3645.00,101.24
3644.00,101.21
3643.00,101.20
3642.00,101.20
3641.00,101.20
3640.00,101.19
3639.00,101.18
3638.00,101.18
3637.00,101.19
3636.00,101.21
3635.00,101.22
3634.00,101.21
3633.00,101.20
3632.00,101.21
3631.00,101.21
3630.00,101.21
3629.00,101.21
3628.00,101.23
3627.00,101.26
3626.00,101.26
3625.00,101.23
3624.00,101.19
3623.00,101.17
3622.00,101.17
3621.00,101.18
3620.00,101.20
3619.00,101.22
3618.00,101.24
3617.00,101.24
3616.00,101.22
3615.00,101.18
3614.00,101.15
3613.00,101.13
3612.00,101.13
3611.00,101.13
3610.00,101.12
3609.00,101.11
3608.00,101.10
3607.00,101.11
3606.00,101.12
3605.00,101.12
3604.00,101.10
3603.00,101.07
3602.00,101.05
3601.00,101.05
3600.00,101.06
3599.00,101.08
3598.00,101.09
3597.00,101.10
3596.00,101.09
3595.00,101.06
3594.00,101.04
3593.00,101.03
3592.00,101.04
3591.00,101.04
3590.00,101.05
3589.00,101.05
3588.00,101.05
3587.00,101.04
3586.00,101.02
3585.00,101.00
3584.00,100.99
3583.00,100.98
3582.00,100.98
3581.00,100.99
3580.00,101.01
3579.00,101.00
3578.00,100.98
3577.00,100.94
3576.00,100.91
3575.00,100.90
3574.00,100.91
3573.00,100.92
3572.00,100.94
3571.00,100.95
3570.00,100.97
3569.00,100.98
3568.00,100.98
3567.00,100.98
3566.00,100.97
3565.00,100.96
3564.00,100.95
3563.00,100.93
3562.00,100.91
3561.00,100.89
3560.00,100.89
3559.00,100.88
3558.00,100.86
3557.00,100.84
3556.00,100.82
3555.00,100.79
3554.00,100.78
3553.00,100.78
3552.00,100.79
3551.00,100.81
3550.00,100.82
3549.00,100.82
3548.00,100.80
3547.00,100.77
3546.00,100.75
3545.00,100.74
3544.00,100.74
3543.00,100.75
3542.00,100.75
3541.00,100.74
3540.00,100.74
3539.00,100.74
3538.00,100.74
3537.00,100.74
3536.00,100.74
3535.00,100.72
3534.00,100.71
3533.00,100.69
3532.00,100.67
3531.00,100.66
3530.00,100.65
3529.00,100.65
3528.00,100.65
3527.00,100.64
3526.00,100.62
3525.00,100.61
3524.00,100.59
3523.00,100.59
3522.00,100.58
3521.00,100.58
3520.00,100.57
3519.00,100.55
3518.00,100.54
3517.00,100.53
3516.00,100.53
3515.00,100.53
3514.00,100.52
3513.00,100.52
3512.00,100.52
3511.00,100.51
3510.00,100.50
3509.00,100.50
3508.00,100.50
3507.00,100.51
3506.00,100.52
3505.00,100.51
3504.00,100.49
3503.00,100.46
3502.00,100.44
3501.00,100.43
3500.00,100.42
3499.00,100.42
3498.00,100.41
3497.00,100.41
3496.00,100.41
3495.00,100.41
3494.00,100.41
3493.00,100.41
3492.00,100.42
3491.00,100.43
3490.00,100.42
3489.00,100.41
3488.00,100.40
3487.00,100.40
3486.00,100.39
3485.00,100.38
3484.00,100.37
3483.00,100.37
3482.00,100.37
3481.00,100.39
3480.00,100.40
3479.00,100.40
3478.00,100.39
3477.00,100.37
3476.00,100.36
3475.00,100.36
3474.00,100.35
3473.00,100.35
3472.00,100.35
3471.00,100.35
3470.00,100.33
3469.00,100.32
3468.00,100.31
3467.00,100.31
3466.00,100.33
3465.00,100.35
3464.00,100.38
3463.00,100.39
3462.00,100.38
3461.00,100.36
3460.00,100.32
3459.00,100.30
3458.00,100.28
3457.00,100.27
3456.00,100.26
3455.00,100.25
3454.00,100.25
3453.00,100.25
3452.00,100.26
3451.00,100.27
3450.00,100.26
3449.00,100.24
3448.00,100.23
3447.00,100.24
3446.00,100.27
3445.00,100.29
3444.00,100.29
3443.00,100.26
3442.00,100.21
3441.00,100.16
3440.00,100.13
3439.00,100.14
3438.00,100.17
3437.00,100.20
3436.00,100.22
3435.00,100.22
3434.00,100.22
3433.00,100.22
3432.00,100.23
3431.00,100.24
3430.00,100.24
3429.00,100.23
3428.00,100.22
3427.00,100.21
3426.00,100.20
3425.00,100.19
3424.00,100.19
3423.00,100.18
3422.00,100.17
3421.00,100.16
3420.00,100.14
3419.00,100.12
3418.00,100.11
3417.00,100.11
3416.00,100.12
3415.00,100.14
3414.00,100.14
3413.00,100.14
3412.00,100.13
3411.00,100.12
3410.00,100.11
3409.00,100.09
3408.00,100.06
3407.00,100.04
3406.00,100.03
3405.00,100.03
3404.00,100.04
3403.00,100.05
3402.00,100.05
3401.00,100.04
3400.00,100.04
3399.00,100.04
3398.00,100.04
3397.00,100.03
3396.00,100.01
3395.00,99.99
3394.00,99.98
3393.00,99.98
3392.00,99.99
3391.00,99.98
3390.00,99.96
3389.00,99.93
3388.00,99.90
3387.00,99.88
3386.00,99.87
3385.00,99.86
3384.00,99.84
3383.00,99.84
3382.00,99.84
3381.00,99.84
3380.00,99.83
3379.00,99.80
3378.00,99.77
3377.00,99.73
3376.00,99.70
3375.00,99.67
3374.00,99.66
3373.00,99.65
3372.00,99.65
3371.00,99.64
3370.00,99.62
3369.00,99.58
3368.00,99.53
3367.00,99.48
3366.00,99.44
3365.00,99.40
3364.00,99.39
3363.00,99.38
3362.00,99.37
3361.00,99.35
3360.00,99.32
3359.00,99.29
3358.00,99.25
3357.00,99.22
3356.00,99.18
3355.00,99.14
3354.00,99.09
3353.00,99.04
3352.00,98.99
3351.00,98.95
3350.00,98.91
3349.00,98.85
3348.00,98.80
3347.00,98.77
3346.00,98.73
3345.00,98.69
3344.00,98.62
3343.00,98.53
3342.00,98.44
3341.00,98.36
3340.00,98.30
3339.00,98.26
3338.00,98.22
3337.00,98.17
3336.00,98.10
3335.00,98.03
3334.00,97.95
3333.00,97.88
3332.00,97.81
3331.00,97.73
3330.00,97.65
3329.00,97.57
3328.00,97.49
3327.00,97.40
3326.00,97.30
3325.00,97.20
3324.00,97.11
3323.00,97.01
3322.00,96.92
3321.00,96.83
3320.00,96.74
3319.00,96.65
3318.00,96.57
3317.00,96.49
3316.00,96.41
3315.00,96.32
3314.00,96.22
3313.00,96.10
3312.00,95.98
3311.00,95.86
3310.00,95.75
3309.00,95.65
3308.00,95.57
3307.00,95.49
3306.00,95.41
3305.00,95.33
3304.00,95.24
3303.00,95.15
3302.00,95.07
3301.00,95.01
3300.00,94.96
3299.00,94.92
3298.00,94.89
3297.00,94.87
3296.00,94.85
3295.00,94.82
3294.00,94.80
3293.00,94.79
3292.00,94.79
3291.00,94.80
3290.00,94.82
3289.00,94.85
3288.00,94.89
3287.00,94.93
3286.00,94.98
3285.00,95.02
3284.00,95.06
3283.00,95.09
3282.00,95.12
3281.00,95.14
3280.00,95.18
3279.00,95.23
3278.00,95.30
3277.00,95.35
3276.00,95.40
3275.00,95.44
3274.00,95.48
3273.00,95.53
3272.00,95.60
3271.00,95.67
3270.00,95.73
3269.00,95.78
3268.00,95.83
3267.00,95.87
3266.00,95.92
3265.00,95.98
3264.00,96.06
3263.00,96.15
3262.00,96.24
3261.00,96.31
3260.00,96.36
3259.00,96.41
3258.00,96.47
3257.00,96.54
3256.00,96.61
3255.00,96.68
3254.00,96.74
3253.00,96.80
3252.00,96.87
3251.00,96.96
3250.00,97.05
3249.00,97.14
3248.00,97.22
3247.00,97.29
3246.00,97.37
3245.00,97.44
3244.00,97.50
3243.00,97.56
3242.00,97.61
3241.00,97.66
3240.00,97.72
3239.00,97.79
3238.00,97.87
3237.00,97.95
3236.00,98.02
3235.00,98.06
3234.00,98.09
3233.00,98.12
3232.00,98.15
3231.00,98.20
3230.00,98.25
3229.00,98.29
3228.00,98.32
3227.00,98.34
3226.00,98.36
3225.00,98.41
3224.00,98.46
3223.00,98.51
3222.00,98.54
3221.00,98.56
3220.00,98.58
3219.00,98.60
3218.00,98.63
3217.00,98.67
3216.00,98.71
3215.00,98.73
3214.00,98.74
3213.00,98.74
3212.00,98.74
3211.00,98.75
3210.00,98.78
3209.00,98.83
3208.00,98.87
3207.00,98.91
3206.00,98.91
3205.00,98.91
3204.00,98.90
3203.00,98.90
3202.00,98.92
3201.00,98.95
3200.00,98.98
3199.00,99.00
3198.00,99.02
3197.00,99.04
3196.00,99.05
3195.00,99.06
3194.00,99.08
3193.00,99.10
3192.00,99.12
3191.00,99.14
3190.00,99.16
3189.00,99.18
3188.00,99.21
3187.00,99.23
3186.00,99.26
3185.00,99.28
3184.00,99.30
3183.00,99.31
3182.00,99.33
3181.00,99.35
3180.00,99.38
3179.00,99.40
3178.00,99.42
3177.00,99.43
3176.00,99.45
3175.00,99.48
3174.00,99.52
3173.00,99.56
3172.00,99.61
3171.00,99.64
3170.00,99.65
3169.00,99.66
3168.00,99.66
3167.00,99.67
3166.00,99.68
3165.00,99.70
3164.00,99.72
3163.00,99.75
3162.00,99.78
3161.00,99.81
3160.00,99.83
3159.00,99.84
3158.00,99.86
3157.00,99.88
3156.00,99.90
3155.00,99.93
3154.00,99.95
3153.00,99.96
3152.00,99.95
3151.00,99.94
3150.00,99.93
3149.00,99.93
3148.00,99.94
3147.00,99.96
3146.00,99.96
3145.00,99.96
3144.00,99.95
3143.00,99.95
3142.00,99.96
3141.00,99.97
3140.00,99.98
3139.00,99.98
3138.00,99.98
3137.00,99.96
3136.00,99.95
3135.00,99.94
3134.00,99.94
3133.00,99.95
3132.00,99.95
3131.00,99.95
3130.00,99.95
3129.00,99.95
3128.00,99.94
3127.00,99.94
3126.00,99.93
3125.00,99.92
3124.00,99.91
3123.00,99.90
3122.00,99.89
3121.00,99.89
3120.00,99.88
3119.00,99.86
3118.00,99.83
3117.00,99.81
3116.00,99.81
3115.00,99.81
3114.00,99.80
3113.00,99.79
3112.00,99.75
3111.00,99.72
3110.00,99.68
3109.00,99.65
3108.00,99.62
3107.00,99.59
3106.00,99.55
3105.00,99.51
3104.00,99.47
3103.00,99.45
3102.00,99.42
3101.00,99.40
3100.00,99.38
3099.00,99.36
3098.00,99.35
3097.00,99.32
3096.00,99.29
3095.00,99.25
3094.00,99.21
3093.00,99.17
3092.00,99.14
3091.00,99.13
3090.00,99.12
3089.00,99.11
3088.00,99.11
3087.00,99.10
3086.00,99.10
3085.00,99.08
3084.00,99.05
3083.00,99.03
3082.00,99.01
3081.00,99.00
3080.00,99.01
3079.00,99.02
3078.00,99.04
3077.00,99.05
3076.00,99.06
3075.00,99.07
3074.00,99.08
3073.00,99.10
3072.00,99.11
3071.00,99.12
3070.00,99.12
3069.00,99.13
3068.00,99.14
3067.00,99.16
3066.00,99.19
3065.00,99.22
3064.00,99.25
3063.00,99.27
3062.00,99.28
3061.00,99.30
3060.00,99.34
3059.00,99.38
3058.00,99.43
3057.00,99.46
3056.00,99.48
3055.00,99.50
3054.00,99.53
3053.00,99.57
3052.00,99.62
3051.00,99.66
3050.00,99.70
3049.00,99.74
3048.00,99.77
3047.00,99.81
3046.00,99.83
3045.00,99.85
3044.00,99.86
3043.00,99.87
3042.00,99.89
3041.00,99.90
3040.00,99.91
3039.00,99.93
3038.00,99.95
3037.00,99.99
3036.00,100.03
3035.00,100.07
3034.00,100.09
3033.00,100.09
3032.00,100.10
3031.00,100.11
3030.00,100.13
3029.00,100.16
3028.00,100.19
3027.00,100.21
3026.00,100.22
3025.00,100.22
3024.00,100.21
3023.00,100.21
3022.00,100.21
3021.00,100.21
3020.00,100.22
3019.00,100.22
3018.00,100.23
3017.00,100.24
3016.00,100.26
3015.00,100.27
3014.00,100.27
3013.00,100.26
3012.00,100.26
3011.00,100.25
3010.00,100.25
3009.00,100.26
3008.00,100.26
3007.00,100.27
3006.00,100.28
3005.00,100.28
3004.00,100.28
3003.00,100.27
3002.00,100.26
3001.00,100.23
3000.00,100.22
2999.00,100.22
2998.00,100.23
2997.00,100.23
2996.00,100.21
2995.00,100.20
2994.00,100.18
2993.00,100.17
2992.00,100.16
2991.00,100.14
2990.00,100.11
2989.00,100.08
2988.00,100.06
2987.00,100.03
2986.00,100.01
2985.00,99.99
2984.00,99.97
2983.00,99.95
2982.00,99.92
2981.00,99.88
2980.00,99.82
2979.00,99.75
2978.00,99.68
2977.00,99.62
2976.00,99.57
2975.00,99.51
2974.00,99.44
2973.00,99.35
2972.00,99.24
2971.00,99.15
2970.00,99.06
2969.00,98.99
2968.00,98.91
2967.00,98.83
2966.00,98.73
2965.00,98.62
2964.00,98.50
2963.00,98.38
2962.00,98.26
2961.00,98.13
2960.00,97.99
2959.00,97.84
2958.00,97.71
2957.00,97.58
2956.00,97.46
2955.00,97.34
2954.00,97.20
2953.00,97.05
2952.00,96.89
2951.00,96.74
2950.00,96.58
2949.00,96.43
2948.00,96.27
2947.00,96.11
2946.00,95.95
2945.00,95.81
2944.00,95.68
2943.00,95.56
2942.00,95.44
2941.00,95.33
2940.00,95.21
2939.00,95.09
2938.00,95.00
2937.00,94.92
2936.00,94.87
2935.00,94.83
2934.00,94.80
2933.00,94.77
2932.00,94.75
2931.00,94.73
2930.00,94.72
2929.00,94.74
2928.00,94.78
2927.00,94.84
2926.00,94.90
2925.00,94.96
2924.00,95.03
2923.00,95.11
2922.00,95.21
2921.00,95.32
2920.00,95.44
2919.00,95.56
2918.00,95.67
2917.00,95.78
2916.00,95.90
2915.00,96.01
2914.00,96.13
2913.00,96.24
2912.00,96.35
2911.00,96.44
2910.00,96.54
2909.00,96.63
2908.00,96.72
2907.00,96.80
2906.00,96.88
2905.00,96.95
2904.00,97.01
2903.00,97.08
2902.00,97.14
2901.00,97.21
2900.00,97.26
2899.00,97.32
2898.00,97.39
2897.00,97.46
2896.00,97.54
2895.00,97.62
2894.00,97.69
2893.00,97.76
2892.00,97.81
2891.00,97.85
2890.00,97.88
2889.00,97.91
2888.00,97.94
2887.00,97.96
2886.00,97.97
2885.00,97.96
2884.00,97.94
2883.00,97.92
2882.00,97.88
2881.00,97.83
2880.00,97.76
2879.00,97.68
2878.00,97.58
2877.00,97.47
2876.00,97.36
2875.00,97.25
2874.00,97.13
2873.00,97.01
2872.00,96.91
2871.00,96.81
2870.00,96.71
2869.00,96.61
2868.00,96.52
2867.00,96.44
2866.00,96.37
2865.00,96.31
2864.00,96.25
2863.00,96.21
2862.00,96.18
2861.00,96.16
2860.00,96.16
2859.00,96.19
2858.00,96.23
2857.00,96.29
2856.00,96.38
2855.00,96.50
2854.00,96.63
2853.00,96.75
2852.00,96.88
2851.00,97.02
2850.00,97.19
2849.00,97.39
2848.00,97.61
2847.00,97.82
2846.00,98.03
2845.00,98.23
2844.00,98.43
2843.00,98.61
2842.00,98.78
2841.00,98.92
2840.00,99.04
2839.00,99.13
2838.00,99.21
2837.00,99.28
2836.00,99.34
2835.00,99.40
2834.00,99.45
2833.00,99.51
2832.00,99.56
2831.00,99.62
2830.00,99.67
2829.00,99.70
2828.00,99.73
2827.00,99.75
2826.00,99.77
2825.00,99.79
2824.00,99.80
2823.00,99.82
2822.00,99.83
2821.00,99.85
2820.00,99.87
2819.00,99.90
2818.00,99.92
2817.00,99.93
2816.00,99.93
2815.00,99.92
2814.00,99.92
2813.00,99.93
2812.00,99.95
2811.00,99.98
2810.00,100.01
2809.00,100.03
2808.00,100.06
2807.00,100.08
2806.00,100.10
2805.00,100.11
2804.00,100.12
2803.00,100.13
2802.00,100.13
2801.00,100.13
2800.00,100.13
2799.00,100.12
2798.00,100.12
2797.00,100.14
2796.00,100.16
2795.00,100.18
2794.00,100.19
2793.00,100.19
2792.00,100.18
2791.00,100.16
2790.00,100.16
2789.00,100.16
2788.00,100.17
2787.00,100.18
2786.00,100.19
2785.00,100.20
2784.00,100.22
2783.00,100.23
2782.00,100.24
2781.00,100.25
2780.00,100.25
2779.00,100.26
2778.00,100.27
2777.00,100.29
2776.00,100.31
2775.00,100.32
2774.00,100.33
2773.00,100.33
2772.00,100.33
2771.00,100.33
2770.00,100.33
2769.00,100.33
2768.00,100.33
2767.00,100.34
2766.00,100.34
2765.00,100.33
2764.00,100.34
2763.00,100.34
2762.00,100.36
2761.00,100.37
2760.00,100.39
2759.00,100.40
2758.00,100.41
2757.00,100.42
2756.00,100.41
2755.00,100.40
2754.00,100.38
2753.00,100.37
2752.00,100.37
2751.00,100.37
2750.00,100.38
2749.00,100.38
2748.00,100.38
2747.00,100.38
2746.00,100.38
2745.00,100.39
2744.00,100.40
2743.00,100.41
2742.00,100.41
2741.00,100.40
2740.00,100.39
2739.00,100.38
2738.00,100.37
2737.00,100.37
2736.00,100.38
2735.00,100.39
2734.00,100.40
2733.00,100.41
2732.00,100.42
2731.00,100.43
2730.00,100.43
2729.00,100.42
2728.00,100.41
2727.00,100.41
2726.00,100.42
2725.00,100.42
2724.00,100.42
2723.00,100.43
2722.00,100.44
2721.00,100.45
2720.00,100.46
2719.00,100.46
2718.00,100.46
2717.00,100.47
2716.00,100.47
2715.00,100.47
2714.00,100.48
2713.00,100.47
2712.00,100.46
2711.00,100.46
2710.00,100.46
2709.00,100.46
2708.00,100.46
2707.00,100.47
2706.00,100.47
2705.00,100.49
2704.00,100.50
2703.00,100.50
2702.00,100.49
2701.00,100.48
2700.00,100.47
2699.00,100.46
2698.00,100.46
2697.00,100.47
2696.00,100.48
2695.00,100.50
2694.00,100.51
2693.00,100.52
2692.00,100.52
2691.00,100.52
2690.00,100.52
2689.00,100.51
2688.00,100.51
2687.00,100.51
2686.00,100.50
2685.00,100.50
2684.00,100.51
2683.00,100.53
2682.00,100.53
2681.00,100.53
2680.00,100.53
2679.00,100.53
2678.00,100.54
2677.00,100.54
2676.00,100.54
2675.00,100.54
2674.00,100.54
2673.00,100.54
2672.00,100.53
2671.00,100.53
2670.00,100.51
2669.00,100.50
2668.00,100.50
2667.00,100.50
2666.00,100.51
2665.00,100.51
2664.00,100.51
2663.00,100.51
2662.00,100.51
2661.00,100.52
2660.00,100.52
2659.00,100.52
2658.00,100.52
2657.00,100.52
2656.00,100.52
2655.00,100.52
2654.00,100.51
2653.00,100.50
2652.00,100.50
2651.00,100.50
2650.00,100.49
2649.00,100.47
2648.00,100.45
2647.00,100.43
2646.00,100.43
2645.00,100.43
2644.00,100.44
2643.00,100.44
2642.00,100.45
2641.00,100.45
2640.00,100.46
2639.00,100.46
2638.00,100.46
2637.00,100.45
2636.00,100.44
2635.00,100.42
2634.00,100.42
2633.00,100.43
2632.00,100.44
2631.00,100.44
2630.00,100.44
2629.00,100.43
2628.00,100.43
2627.00,100.44
2626.00,100.45
2625.00,100.47
2624.00,100.47
2623.00,100.47
2622.00,100.46
2621.00,100.46
2620.00,100.46
2619.00,100.45
2618.00,100.43
2617.00,100.42
2616.00,100.42
2615.00,100.43
2614.00,100.45
2613.00,100.47
2612.00,100.49
2611.00,100.50
2610.00,100.49
2609.00,100.47
2608.00,100.44
2607.00,100.42
2606.00,100.42
2605.00,100.44
2604.00,100.46
2603.00,100.48
2602.00,100.50
2601.00,100.51
2600.00,100.52
2599.00,100.50
2598.00,100.47
2597.00,100.44
2596.00,100.44
2595.00,100.44
2594.00,100.45
2593.00,100.45
2592.00,100.46
2591.00,100.46
2590.00,100.46
2589.00,100.46
2588.00,100.46
2587.00,100.47
2586.00,100.48
2585.00,100.48
2584.00,100.48
2583.00,100.47
2582.00,100.45
2581.00,100.45
2580.00,100.46
2579.00,100.47
2578.00,100.47
2577.00,100.46
2576.00,100.45
2575.00,100.45
2574.00,100.45
2573.00,100.46
2572.00,100.46
2571.00,100.47
2570.00,100.47
2569.00,100.47
2568.00,100.46
2567.00,100.45
2566.00,100.44
2565.00,100.43
2564.00,100.43
2563.00,100.43
2562.00,100.43
2561.00,100.43
2560.00,100.43
2559.00,100.43
2558.00,100.42
2557.00,100.41
2556.00,100.41
2555.00,100.42
2554.00,100.42
2553.00,100.42
2552.00,100.41
2551.00,100.40
2550.00,100.42
2549.00,100.44
2548.00,100.44
2547.00,100.44
2546.00,100.43
2545.00,100.44
2544.00,100.46
2543.00,100.48
2542.00,100.48
2541.00,100.48
2540.00,100.47
2539.00,100.46
2538.00,100.45
2537.00,100.45
2536.00,100.44
2535.00,100.43
2534.00,100.43
2533.00,100.44
2532.00,100.46
2531.00,100.49
2530.00,100.50
2529.00,100.49
2528.00,100.47
2527.00,100.44
2526.00,100.42
2525.00,100.41
2524.00,100.41
2523.00,100.42
2522.00,100.42
2521.00,100.43
2520.00,100.43
2519.00,100.42
2518.00,100.41
2517.00,100.38
2516.00,100.37
2515.00,100.38
2514.00,100.40
2513.00,100.43
2512.00,100.46
2511.00,100.48
2510.00,100.49
2509.00,100.49
2508.00,100.49
2507.00,100.49
2506.00,100.49
2505.00,100.49
2504.00,100.48
2503.00,100.48
2502.00,100.48
2501.00,100.48
2500.00,100.47
2499.00,100.46
2498.00,100.45
2497.00,100.45
2496.00,100.45
2495.00,100.44
2494.00,100.43
2493.00,100.41
2492.00,100.40
2491.00,100.40
2490.00,100.40
2489.00,100.41
2488.00,100.42
2487.00,100.43
2486.00,100.45
2485.00,100.46
2484.00,100.46
2483.00,100.47
2482.00,100.48
2481.00,100.48
2480.00,100.48
2479.00,100.46
2478.00,100.43
2477.00,100.41
2476.00,100.40
2475.00,100.41
2474.00,100.42
2473.00,100.43
2472.00,100.44
2471.00,100.45
2470.00,100.47
2469.00,100.47
2468.00,100.46
2467.00,100.44
2466.00,100.41
2465.00,100.40
2464.00,100.41
2463.00,100.42
2462.00,100.43
2461.00,100.42
2460.00,100.41
2459.00,100.41
2458.00,100.41
2457.00,100.42
2456.00,100.42
2455.00,100.40
2454.00,100.38
2453.00,100.38
2452.00,100.40
2451.00,100.43
2450.00,100.46
2449.00,100.48
2448.00,100.49
2447.00,100.48
2446.00,100.47
2445.00,100.47
2444.00,100.47
2443.00,100.48
2442.00,100.48
2441.00,100.47
2440.00,100.46
2439.00,100.45
2438.00,100.45
2437.00,100.46
2436.00,100.46
2435.00,100.46
2434.00,100.46
2433.00,100.45
2432.00,100.45
2431.00,100.46
2430.00,100.48
2429.00,100.50
2428.00,100.53
2427.00,100.54
2426.00,100.53
2425.00,100.51
2424.00,100.49
2423.00,100.46
2422.00,100.44
2421.00,100.43
2420.00,100.44
2419.00,100.46
2418.00,100.47
2417.00,100.46
2416.00,100.44
2415.00,100.42
2414.00,100.42
2413.00,100.43
2412.00,100.45
2411.00,100.48
2410.00,100.49
2409.00,100.50
2408.00,100.51
2407.00,100.50
2406.00,100.50
2405.00,100.51
2404.00,100.52
2403.00,100.53
2402.00,100.53
2401.00,100.52
2400.00,100.52
2399.00,100.51
2398.00,100.49
2397.00,100.48
2396.00,100.47
2395.00,100.48
2394.00,100.50
2393.00,100.51
2392.00,100.52
2391.00,100.52
2390.00,100.52
2389.00,100.52
2388.00,100.51
2387.00,100.50
2386.00,100.49
2385.00,100.50
2384.00,100.53
2383.00,100.55
2382.00,100.56
2381.00,100.55
2380.00,100.54
2379.00,100.54
2378.00,100.54
2377.00,100.54
2376.00,100.55
2375.00,100.57
2374.00,100.58
2373.00,100.60
2372.00,100.62
2371.00,100.63
2370.00,100.64
2369.00,100.63
2368.00,100.60
2367.00,100.57
2366.00,100.53
2365.00,100.51
2364.00,100.53
2363.00,100.58
2362.00,100.62
2361.00,100.64
2360.00,100.63
2359.00,100.61
2358.00,100.59
2357.00,100.56
2356.00,100.55
2355.00,100.56
2354.00,100.58
2353.00,100.59
2352.00,100.58
2351.00,100.56
2350.00,100.54
2349.00,100.50
2348.00,100.48
2347.00,100.53
2346.00,100.63
2345.00,100.74
2344.00,100.81
2343.00,100.84
2342.00,100.78
2341.00,100.68
2340.00,100.59
2339.00,100.54
2338.00,100.51
2337.00,100.49
2336.00,100.49
2335.00,100.51
2334.00,100.52
2333.00,100.52
2332.00,100.49
2331.00,100.47
2330.00,100.46
2329.00,100.46
2328.00,100.46
2327.00,100.46
2326.00,100.45
2325.00,100.41
2324.00,100.35
2323.00,100.32
2322.00,100.30
2321.00,100.32
2320.00,100.35
2319.00,100.37
2318.00,100.37
2317.00,100.34
2316.00,100.32
2315.00,100.31
2314.00,100.32
2313.00,100.33
2312.00,100.32
2311.00,100.32
2310.00,100.32
2309.00,100.33
2308.00,100.33
2307.00,100.33
2306.00,100.33
2305.00,100.34
2304.00,100.34
2303.00,100.34
2302.00,100.34
2301.00,100.35
2300.00,100.36
2299.00,100.36
2298.00,100.36
2297.00,100.34
2296.00,100.31
2295.00,100.29
2294.00,100.27
2293.00,100.26
2292.00,100.26
2291.00,100.26
2290.00,100.25
2289.00,100.23
2288.00,100.22
2287.00,100.23
2286.00,100.24
2285.00,100.25
2284.00,100.24
2283.00,100.24
2282.00,100.25
2281.00,100.28
2280.00,100.29
2279.00,100.29
2278.00,100.27
2277.00,100.25
2276.00,100.24
2275.00,100.24
2274.00,100.24
2273.00,100.24
2272.00,100.24
2271.00,100.24
2270.00,100.23
2269.00,100.21
2268.00,100.20
2267.00,100.20
2266.00,100.22
2265.00,100.25
2264.00,100.27
2263.00,100.28
2262.00,100.28
2261.00,100.29
2260.00,100.29
2259.00,100.28
2258.00,100.25
2257.00,100.23
2256.00,100.22
2255.00,100.23
2254.00,100.25
2253.00,100.27
2252.00,100.27
2251.00,100.26
2250.00,100.24
2249.00,100.21
2248.00,100.18
2247.00,100.15
2246.00,100.14
2245.00,100.13
2244.00,100.13
2243.00,100.12
2242.00,100.13
2241.00,100.14
2240.00,100.17
2239.00,100.18
2238.00,100.17
2237.00,100.14
2236.00,100.12
2235.00,100.11
2234.00,100.11
2233.00,100.11
2232.00,100.11
2231.00,100.11
2230.00,100.12
2229.00,100.14
2228.00,100.17
2227.00,100.20
2226.00,100.20
2225.00,100.17
2224.00,100.13
2223.00,100.11
2222.00,100.11
2221.00,100.11
2220.00,100.10
2219.00,100.09
2218.00,100.10
2217.00,100.12
2216.00,100.13
2215.00,100.12
2214.00,100.08
2213.00,100.01
2212.00,99.96
2211.00,99.96
2210.00,99.99
2209.00,100.04
2208.00,100.09
2207.00,100.09
2206.00,100.07
2205.00,100.03
2204.00,100.00
2203.00,100.00
2202.00,100.00
2201.00,100.01
2200.00,100.00
2199.00,100.01
2198.00,100.03
2197.00,100.08
2196.00,100.12
2195.00,100.11
2194.00,100.07
2193.00,100.02
2192.00,100.02
2191.00,100.07
2190.00,100.15
2189.00,100.20
2188.00,100.19
2187.00,100.14
2186.00,100.06
2185.00,99.97
2184.00,99.90
2183.00,99.86
2182.00,99.86
2181.00,99.89
2180.00,99.92
2179.00,99.92
2178.00,99.92
2177.00,99.90
2176.00,99.87
2175.00,99.86
2174.00,99.87
2173.00,99.88
2172.00,99.87
2171.00,99.85
2170.00,99.83
2169.00,99.83
2168.00,99.85
2167.00,99.87
2166.00,99.85
2165.00,99.79
2164.00,99.74
2163.00,99.68
2162.00,99.65
2161.00,99.69
2160.00,99.84
2159.00,100.08
2158.00,100.28
2157.00,100.36
2156.00,100.33
2155.00,100.26
2154.00,100.21
2153.00,100.18
2152.00,100.14
2151.00,100.09
2150.00,100.05
2149.00,100.02
2148.00,100.01
2147.00,100.01
2146.00,100.04
2145.00,100.10
2144.00,100.17
2143.00,100.22
2142.00,100.26
2141.00,100.26
2140.00,100.24
2139.00,100.21
2138.00,100.19
2137.00,100.20
2136.00,100.21
2135.00,100.22
2134.00,100.21
2133.00,100.19
2132.00,100.20
2131.00,100.21
2130.00,100.23
2129.00,100.24
2128.00,100.25
2127.00,100.25
2126.00,100.26
2125.00,100.25
2124.00,100.23
2123.00,100.22
2122.00,100.21
2121.00,100.23
2120.00,100.24
2119.00,100.23
2118.00,100.20
2117.00,100.17
2116.00,100.16
2115.00,100.17
2114.00,100.18
2113.00,100.20
2112.00,100.21
2111.00,100.22
2110.00,100.22
2109.00,100.22
2108.00,100.20
2107.00,100.17
2106.00,100.11
2105.00,100.04
2104.00,100.00
2103.00,100.00
2102.00,100.01
2101.00,100.05
2100.00,100.09
2099.00,100.12
2098.00,100.13
2097.00,100.11
2096.00,100.10
2095.00,100.10
2094.00,100.12
2093.00,100.17
2092.00,100.22
2091.00,100.25
2090.00,100.26
2089.00,100.22
2088.00,100.17
2087.00,100.14
2086.00,100.14
2085.00,100.15
2084.00,100.16
2083.00,100.17
2082.00,100.17
2081.00,100.18
2080.00,100.18
2079.00,100.17
2078.00,100.13
2077.00,100.08
2076.00,100.05
2075.00,100.03
2074.00,100.02
2073.00,100.01
2072.00,100.00
2071.00,100.02
2070.00,100.06
2069.00,100.12
2068.00,100.14
2067.00,100.13
2066.00,100.12
2065.00,100.11
2064.00,100.11
2063.00,100.10
2062.00,100.09
2061.00,100.08
2060.00,100.05
2059.00,100.03
2058.00,100.03
2057.00,100.05
2056.00,100.09
2055.00,100.13
2054.00,100.13
2053.00,100.10
2052.00,100.04
2051.00,99.96
2050.00,99.88
2049.00,99.82
2048.00,99.80
2047.00,99.80
2046.00,99.82
2045.00,99.83
2044.00,99.86
2043.00,99.88
2042.00,99.89
2041.00,99.89
2040.00,99.87
2039.00,99.85
2038.00,99.81
2037.00,99.78
2036.00,99.78
2035.00,99.83
2034.00,99.91
2033.00,100.00
2032.00,100.04
2031.00,100.04
2030.00,100.00
2029.00,99.93
2028.00,99.85
2027.00,99.78
2026.00,99.73
2025.00,99.72
2024.00,99.77
2023.00,99.85
2022.00,99.94
2021.00,99.99
2020.00,99.99
2019.00,99.98
2018.00,99.98
2017.00,99.98
2016.00,99.98
2015.00,99.99
2014.00,100.01
2013.00,100.00
2012.00,99.97
2011.00,99.93
2010.00,99.94
2009.00,99.98
2008.00,100.03
2007.00,100.04
2006.00,99.99
2005.00,99.94
2004.00,99.93
2003.00,99.97
2002.00,100.04
2001.00,100.13
2000.00,100.18
1999.00,100.20
1998.00,100.17
1997.00,100.13
1996.00,100.08
1995.00,100.04
1994.00,100.02
1993.00,100.01
1992.00,100.00
1991.00,99.98
1990.00,99.98
1989.00,99.97
1988.00,99.96
1987.00,99.93
1986.00,99.88
1985.00,99.82
1984.00,99.77
1983.00,99.71
1982.00,99.69
1981.00,99.72
1980.00,99.79
1979.00,99.88
1978.00,99.95
1977.00,100.01
1976.00,100.05
1975.00,100.05
1974.00,100.01
1973.00,99.96
1972.00,99.95
1971.00,99.96
1970.00,99.99
1969.00,100.02
1968.00,100.05
1967.00,100.09
1966.00,100.12
1965.00,100.13
1964.00,100.11
1963.00,100.07
1962.00,100.04
1961.00,100.04
1960.00,100.09
1959.00,100.16
1958.00,100.20
1957.00,100.17
1956.00,100.11
1955.00,100.06
1954.00,100.05
1953.00,100.08
1952.00,100.13
1951.00,100.17
1950.00,100.18
1949.00,100.18
1948.00,100.19
1947.00,100.20
1946.00,100.20
1945.00,100.17
1944.00,100.16
1943.00,100.17
1942.00,100.18
1941.00,100.17
1940.00,100.13
1939.00,100.09
1938.00,100.06
1937.00,100.06
1936.00,100.09
1935.00,100.15
1934.00,100.20
1933.00,100.22
1932.00,100.23
1931.00,100.23
1930.00,100.23
1929.00,100.22
1928.00,100.21
1927.00,100.21
1926.00,100.22
1925.00,100.24
1924.00,100.24
1923.00,100.23
1922.00,100.21
1921.00,100.18
1920.00,100.16
1919.00,100.15
1918.00,100.15
1917.00,100.15
1916.00,100.16
1915.00,100.18
1914.00,100.21
1913.00,100.24
1912.00,100.26
1911.00,100.25
1910.00,100.23
1909.00,100.20
1908.00,100.18
1907.00,100.17
1906.00,100.17
1905.00,100.17
1904.00,100.19
1903.00,100.21
1902.00,100.22
1901.00,100.23
1900.00,100.24
1899.00,100.25
1898.00,100.24
1897.00,100.20
1896.00,100.15
1895.00,100.13
1894.00,100.15
1893.00,100.19
1892.00,100.24
1891.00,100.26
1890.00,100.26
1889.00,100.24
1888.00,100.22
1887.00,100.22
1886.00,100.22
1885.00,100.20
1884.00,100.18
1883.00,100.17
1882.00,100.18
1881.00,100.19
1880.00,100.19
1879.00,100.20
1878.00,100.20
1877.00,100.20
1876.00,100.20
1875.00,100.21
1874.00,100.21
1873.00,100.21
1872.00,100.20
1871.00,100.20
1870.00,100.20
1869.00,100.21
1868.00,100.22
1867.00,100.21
1866.00,100.20
1865.00,100.18
1864.00,100.16
1863.00,100.15
1862.00,100.16
1861.00,100.17
1860.00,100.18
1859.00,100.19
1858.00,100.21
1857.00,100.24
1856.00,100.26
1855.00,100.27
1854.00,100.26
1853.00,100.25
1852.00,100.24
1851.00,100.24
1850.00,100.26
1849.00,100.27
1848.00,100.26
1847.00,100.24
1846.00,100.21
1845.00,100.18
1844.00,100.17
1843.00,100.19
1842.00,100.22
1841.00,100.24
1840.00,100.25
1839.00,100.25
1838.00,100.24
1837.00,100.23
1836.00,100.21
1835.00,100.20
1834.00,100.20
1833.00,100.21
1832.00,100.23
1831.00,100.24
1830.00,100.23
1829.00,100.23
1828.00,100.24
1827.00,100.28
1826.00,100.31
1825.00,100.31
1824.00,100.28
1823.00,100.26
1822.00,100.24
1821.00,100.23
1820.00,100.23
1819.00,100.24
1818.00,100.26
1817.00,100.27
1816.00,100.27
1815.00,100.27
1814.00,100.26
1813.00,100.24
1812.00,100.23
1811.00,100.22
1810.00,100.22
1809.00,100.22
1808.00,100.23
1807.00,100.24
1806.00,100.27
1805.00,100.28
1804.00,100.28
1803.00,100.28
1802.00,100.27
1801.00,100.25
1800.00,100.23
1799.00,100.22
1798.00,100.22
1797.00,100.23
1796.00,100.24
1795.00,100.26
1794.00,100.27
1793.00,100.26
1792.00,100.25
1791.00,100.23
1790.00,100.23
1789.00,100.23
1788.00,100.23
1787.00,100.24
1786.00,100.23
1785.00,100.22
1784.00,100.21
1783.00,100.20
1782.00,100.20
1781.00,100.20
1780.00,100.20
1779.00,100.20
1778.00,100.20
1777.00,100.20
1776.00,100.20
1775.00,100.20
1774.00,100.19
1773.00,100.18
1772.00,100.18
1771.00,100.20
1770.00,100.23
1769.00,100.25
1768.00,100.25
1767.00,100.24
1766.00,100.22
1765.00,100.21
1764.00,100.20
1763.00,100.19
1762.00,100.17
1761.00,100.14
1760.00,100.12
1759.00,100.11
1758.00,100.10
1757.00,100.10
1756.00,100.09
1755.00,100.08
1754.00,100.07
1753.00,100.06
1752.00,100.05
1751.00,100.05
1750.00,100.05
1749.00,100.04
1748.00,100.03
1747.00,100.02
1746.00,100.02
1745.00,100.01
1744.00,99.99
1743.00,99.97
1742.00,99.96
1741.00,99.96
1740.00,99.95
1739.00,99.95
1738.00,99.95
1737.00,99.95
1736.00,99.96
1735.00,99.96
1734.00,99.96
1733.00,99.95
1732.00,99.94
1731.00,99.92
1730.00,99.91
1729.00,99.90
1728.00,99.90
1727.00,99.89
1726.00,99.89
1725.00,99.88
1724.00,99.88
1723.00,99.88
1722.00,99.90
1721.00,99.92
1720.00,99.94
1719.00,99.95
1718.00,99.93
1717.00,99.89
1716.00,99.86
1715.00,99.85
1714.00,99.86
1713.00,99.86
1712.00,99.84
1711.00,99.82
1710.00,99.81
1709.00,99.80
1708.00,99.81
1707.00,99.82
1706.00,99.82
1705.00,99.80
1704.00,99.77
1703.00,99.76
1702.00,99.75
1701.00,99.73
1700.00,99.71
1699.00,99.71
1698.00,99.69
1697.00,99.66
1696.00,99.60
1695.00,99.54
1694.00,99.49
1693.00,99.45
1692.00,99.39
1691.00,99.33
1690.00,99.27
1689.00,99.20
1688.00,99.12
1687.00,99.05
1686.00,98.94
1685.00,98.76
1684.00,98.54
1683.00,98.35
1682.00,98.20
1681.00,98.05
1680.00,97.86
1679.00,97.67
1678.00,97.50
1677.00,97.34
1676.00,97.16
1675.00,96.96
1674.00,96.74
1673.00,96.53
1672.00,96.31
1671.00,96.08
1670.00,95.84
1669.00,95.57
1668.00,95.29
1667.00,95.03
1666.00,94.79
1665.00,94.54
1664.00,94.27
1663.00,93.99
1662.00,93.73
1661.00,93.47
1660.00,93.20
1659.00,92.93
1658.00,92.67
1657.00,92.41
1656.00,92.14
1655.00,91.86
1654.00,91.58
1653.00,91.31
1652.00,91.03
1651.00,90.70
1650.00,90.34
1649.00,89.97
1648.00,89.59
1647.00,89.23
1646.00,88.90
1645.00,88.57
1644.00,88.20
1643.00,87.81
1642.00,87.45
1641.00,87.10
1640.00,86.75
1639.00,86.42
1638.00,86.13
1637.00,85.96
1636.00,85.95
1635.00,86.06
1634.00,86.14
1633.00,86.13
1632.00,86.08
1631.00,86.07
1630.00,86.14
1629.00,86.27
1628.00,86.45
1627.00,86.61
1626.00,86.75
1625.00,86.90
1624.00,87.13
1623.00,87.43
1622.00,87.74
1621.00,87.96
1620.00,88.13
1619.00,88.34
1618.00,88.69
1617.00,89.20
1616.00,89.77
1615.00,90.23
1614.00,90.57
1613.00,90.87
1612.00,91.19
1611.00,91.54
1610.00,91.90
1609.00,92.26
1608.00,92.62
1607.00,92.96
1606.00,93.28
1605.00,93.57
1604.00,93.87
1603.00,94.14
1602.00,94.39
1601.00,94.62
1600.00,94.84
1599.00,95.04
1598.00,95.23
1597.00,95.37
1596.00,95.50
1595.00,95.62
1594.00,95.72
1593.00,95.80
1592.00,95.87
1591.00,95.91
1590.00,95.91
1589.00,95.90
1588.00,95.88
1587.00,95.85
1586.00,95.81
1585.00,95.74
1584.00,95.66
1583.00,95.57
1582.00,95.46
1581.00,95.33
1580.00,95.19
1579.00,95.04
1578.00,94.87
1577.00,94.68
1576.00,94.50
1575.00,94.31
1574.00,94.11
1573.00,93.89
1572.00,93.67
1571.00,93.44
1570.00,93.21
1569.00,92.96
1568.00,92.72
1567.00,92.48
1566.00,92.23
1565.00,91.97
1564.00,91.71
1563.00,91.44
1562.00,91.17
1561.00,90.89
1560.00,90.66
1559.00,90.54
1558.00,90.44
1557.00,90.26
1556.00,90.02
1555.00,89.78
1554.00,89.57
1553.00,89.37
1552.00,89.17
1551.00,88.99
1550.00,88.82
1549.00,88.63
1548.00,88.41
1547.00,88.18
1546.00,87.96
1545.00,87.77
1544.00,87.61
1543.00,87.48
1542.00,87.39
1541.00,87.38
1540.00,87.47
1539.00,87.56
1538.00,87.57
1537.00,87.48
1536.00,87.38
1535.00,87.38
1534.00,87.51
1533.00,87.72
1532.00,87.89
1531.00,87.98
1530.00,88.04
1529.00,88.14
1528.00,88.29
1527.00,88.48
1526.00,88.70
1525.00,88.89
1524.00,89.05
1523.00,89.23
1522.00,89.52
1521.00,89.86
1520.00,90.15
1519.00,90.34
1518.00,90.53
1517.00,90.76
1516.00,91.02
1515.00,91.23
1514.00,91.41
1513.00,91.59
1512.00,91.79
1511.00,91.98
1510.00,92.15
1509.00,92.31
1508.00,92.53
1507.00,92.88
1506.00,93.26
1505.00,93.53
1504.00,93.66
1503.00,93.73
1502.00,93.83
1501.00,93.96
1500.00,94.11
1499.00,94.28
1498.00,94.46
1497.00,94.65
1496.00,94.83
1495.00,94.97
1494.00,95.09
1493.00,95.18
1492.00,95.28
1491.00,95.41
1490.00,95.54
1489.00,95.63
1488.00,95.66
1487.00,95.63
1486.00,95.56
1485.00,95.45
1484.00,95.29
1483.00,95.11
1482.00,94.92
1481.00,94.72
1480.00,94.52
1479.00,94.35
1478.00,94.20
1477.00,94.09
1476.00,94.01
1475.00,93.97
1474.00,93.97
1473.00,94.01
1472.00,94.05
1471.00,94.03
1470.00,93.93
1469.00,93.75
1468.00,93.53
1467.00,93.29
1466.00,93.04
1465.00,92.82
1464.00,92.65
1463.00,92.54
1462.00,92.50
1461.00,92.52
1460.00,92.59
1459.00,92.72
1458.00,92.92
1457.00,93.17
1456.00,93.36
1455.00,93.46
1454.00,93.49
1453.00,93.53
1452.00,93.57
1451.00,93.62
1450.00,93.67
1449.00,93.72
1448.00,93.78
1447.00,93.83
1446.00,93.83
1445.00,93.80
1444.00,93.75
1443.00,93.70
1442.00,93.64
1441.00,93.57
1440.00,93.49
1439.00,93.42
1438.00,93.38
1437.00,93.40
1436.00,93.44
1435.00,93.48
1434.00,93.50
1433.00,93.53
1432.00,93.60
1431.00,93.70
1430.00,93.82
1429.00,93.94
1428.00,94.04
1427.00,94.10
1426.00,94.12
1425.00,94.10
1424.00,94.05
1423.00,93.98
1422.00,93.88
1421.00,93.79
1420.00,93.72
1419.00,93.70
1418.00,93.70
1417.00,93.72
1416.00,93.77
1415.00,93.87
1414.00,94.00
1413.00,94.18
1412.00,94.38
1411.00,94.62
1410.00,94.87
1409.00,95.11
1408.00,95.33
1407.00,95.52
1406.00,95.70
1405.00,95.86
1404.00,96.01
1403.00,96.12
1402.00,96.22
1401.00,96.30
1400.00,96.38
1399.00,96.43
1398.00,96.47
1397.00,96.48
1396.00,96.48
1395.00,96.46
1394.00,96.43
1393.00,96.39
1392.00,96.32
1391.00,96.24
1390.00,96.15
1389.00,96.07
1388.00,95.99
1387.00,95.90
1386.00,95.79
1385.00,95.68
1384.00,95.55
1383.00,95.41
1382.00,95.26
1381.00,95.12
1380.00,94.99
1379.00,94.87
1378.00,94.75
1377.00,94.64
1376.00,94.54
1375.00,94.44
1374.00,94.38
1373.00,94.36
1372.00,94.34
1371.00,94.34
1370.00,94.34
1369.00,94.36
1368.00,94.39
1367.00,94.42
1366.00,94.47
1365.00,94.52
1364.00,94.58
1363.00,94.64
1362.00,94.70
1361.00,94.75
1360.00,94.81
1359.00,94.86
1358.00,94.93
1357.00,95.01
1356.00,95.07
1355.00,95.14
1354.00,95.19
1353.00,95.25
1352.00,95.31
1351.00,95.36
1350.00,95.41
1349.00,95.47
1348.00,95.52
1347.00,95.56
1346.00,95.60
1345.00,95.63
1344.00,95.67
1343.00,95.71
1342.00,95.76
1341.00,95.80
1340.00,95.84
1339.00,95.87
1338.00,95.91
1337.00,95.93
1336.00,95.95
1335.00,95.96
1334.00,95.97
1333.00,95.99
1332.00,96.01
1331.00,96.03
1330.00,96.06
1329.00,96.09
1328.00,96.12
1327.00,96.15
1326.00,96.17
1325.00,96.19
1324.00,96.20
1323.00,96.20
1322.00,96.18
1321.00,96.15
1320.00,96.13
1319.00,96.10
1318.00,96.08
1317.00,96.05
1316.00,96.01
1315.00,95.98
1314.00,95.94
1313.00,95.90
1312.00,95.88
1311.00,95.85
1310.00,95.83
1309.00,95.81
1308.00,95.80
1307.00,95.78
1306.00,95.76
1305.00,95.73
1304.00,95.70
1303.00,95.65
1302.00,95.61
1301.00,95.58
1300.00,95.56
1299.00,95.57
1298.00,95.58
1297.00,95.60
1296.00,95.61
1295.00,95.60
1294.00,95.58
1293.00,95.55
1292.00,95.52
1291.00,95.49
1290.00,95.44
1289.00,95.39
1288.00,95.33
1287.00,95.27
1286.00,95.22
1285.00,95.16
1284.00,95.09
1283.00,95.02
1282.00,94.95
1281.00,94.90
1280.00,94.86
1279.00,94.84
1278.00,94.84
1277.00,94.86
1276.00,94.88
1275.00,94.89
1274.00,94.89
1273.00,94.87
1272.00,94.83
1271.00,94.76
1270.00,94.67
1269.00,94.55
1268.00,94.39
1267.00,94.22
1266.00,94.05
1265.00,93.89
1264.00,93.75
1263.00,93.64
1262.00,93.57
1261.00,93.52
1260.00,93.51
1259.00,93.52
1258.00,93.57
1257.00,93.63
1256.00,93.70
1255.00,93.77
1254.00,93.85
1253.00,93.94
1252.00,94.03
1251.00,94.11
1250.00,94.18
1249.00,94.25
1248.00,94.31
1247.00,94.38
1246.00,94.42
1245.00,94.43
1244.00,94.42
1243.00,94.40
1242.00,94.39
1241.00,94.38
1240.00,94.37
1239.00,94.37
1238.00,94.38
1237.00,94.40
1236.00,94.44
1235.00,94.52
1234.00,94.62
1233.00,94.76
1232.00,94.92
1231.00,95.09
1230.00,95.27
1229.00,95.45
1228.00,95.62
1227.00,95.77
1226.00,95.92
1225.00,96.06
1224.00,96.17
1223.00,96.24
1222.00,96.25
1221.00,96.23
1220.00,96.19
1219.00,96.13
1218.00,96.07
1217.00,96.00
1216.00,95.92
1215.00,95.83
1214.00,95.73
1213.00,95.65
1212.00,95.57
1211.00,95.51
1210.00,95.45
1209.00,95.41
1208.00,95.36
1207.00,95.30
1206.00,95.23
1205.00,95.14
1204.00,95.05
1203.00,94.95
1202.00,94.88
1201.00,94.82
1200.00,94.81
1199.00,94.85
1198.00,94.93
1197.00,95.04
1196.00,95.15
1195.00,95.26
1194.00,95.39
1193.00,95.53
1192.00,95.68
1191.00,95.84
1190.00,95.99
1189.00,96.13
1188.00,96.26
1187.00,96.36
1186.00,96.45
1185.00,96.50
1184.00,96.51
1183.00,96.50
1182.00,96.45
1181.00,96.37
1180.00,96.27
1179.00,96.13
1178.00,95.95
1177.00,95.74
1176.00,95.50
1175.00,95.25
1174.00,95.01
1173.00,94.79
1172.00,94.61
1171.00,94.48
1170.00,94.44
1169.00,94.47
1168.00,94.56
1167.00,94.69
1166.00,94.85
1165.00,95.03
1164.00,95.24
1163.00,95.45
1162.00,95.66
1161.00,95.87
1160.00,96.08
1159.00,96.29
1158.00,96.49
1157.00,96.68
1156.00,96.84
1155.00,96.96
1154.00,97.07
1153.00,97.16
1152.00,97.24
1151.00,97.32
1150.00,97.39
1149.00,97.48
1148.00,97.58
1147.00,97.69
1146.00,97.78
1145.00,97.84
1144.00,97.87
1143.00,97.90
1142.00,97.93
1141.00,97.97
1140.00,98.03
1139.00,98.08
1138.00,98.12
1137.00,98.14
1136.00,98.14
1135.00,98.13
1134.00,98.10
1133.00,98.05
1132.00,97.99
1131.00,97.92
1130.00,97.85
1129.00,97.77
1128.00,97.68
1127.00,97.57
1126.00,97.45
1125.00,97.33
1124.00,97.20
1123.00,97.06
1122.00,96.93
1121.00,96.83
1120.00,96.76
1119.00,96.69
1118.00,96.65
1117.00,96.62
1116.00,96.63
1115.00,96.66
1114.00,96.70
1113.00,96.75
1112.00,96.80
1111.00,96.85
1110.00,96.89
1109.00,96.94
1108.00,96.97
1107.00,97.01
1106.00,97.07
1105.00,97.19
1104.00,97.33
1103.00,97.45
1102.00,97.53
1101.00,97.56
1100.00,97.57
1099.00,97.60
1098.00,97.63
1097.00,97.67
1096.00,97.69
1095.00,97.70
1094.00,97.70
1093.00,97.73
1092.00,97.77
1091.00,97.82
1090.00,97.84
1089.00,97.83
1088.00,97.79
1087.00,97.77
1086.00,97.75
1085.00,97.76
1084.00,97.76
1083.00,97.75
1082.00,97.72
1081.00,97.68
1080.00,97.63
1079.00,97.59
1078.00,97.56
1077.00,97.54
1076.00,97.54
1075.00,97.53
1074.00,97.53
1073.00,97.54
1072.00,97.55
1071.00,97.57
1070.00,97.59
1069.00,97.60
1068.00,97.61
1067.00,97.64
1066.00,97.70
1065.00,97.76
1064.00,97.84
1063.00,97.91
1062.00,97.96
1061.00,98.01
1060.00,98.06
1059.00,98.11
1058.00,98.15
1057.00,98.20
1056.00,98.26
1055.00,98.33
1054.00,98.39
1053.00,98.43
1052.00,98.45
1051.00,98.47
1050.00,98.49
1049.00,98.51
1048.00,98.53
1047.00,98.56
1046.00,98.60
1045.00,98.62
1044.00,98.64
1043.00,98.67
1042.00,98.70
1041.00,98.73
1040.00,98.74
1039.00,98.73
1038.00,98.69
1037.00,98.66
1036.00,98.62
1035.00,98.59
1034.00,98.57
1033.00,98.56
1032.00,98.54
1031.00,98.50
1030.00,98.47
1029.00,98.46
1028.00,98.47
1027.00,98.50
1026.00,98.54
1025.00,98.58
1024.00,98.62
1023.00,98.63
1022.00,98.65
1021.00,98.68
1020.00,98.73
1019.00,98.77
1018.00,98.78
1017.00,98.78
1016.00,98.79
1015.00,98.80
1014.00,98.82
1013.00,98.83
1012.00,98.83
1011.00,98.82
1010.00,98.81
1009.00,98.81
1008.00,98.82
1007.00,98.83
1006.00,98.85
1005.00,98.86
1004.00,98.86
1003.00,98.85
1002.00,98.83
1001.00,98.83
1000.00,98.83
999.00,98.82
998.00,98.81
997.00,98.79
996.00,98.76
995.00,98.74
994.00,98.72
993.00,98.68
992.00,98.63
991.00,98.58
990.00,98.55
989.00,98.52
988.00,98.50
987.00,98.48
986.00,98.46
985.00,98.44
984.00,98.42
983.00,98.40
982.00,98.39
981.00,98.38
980.00,98.34
979.00,98.29
978.00,98.25
977.00,98.22
976.00,98.22
975.00,98.23
974.00,98.24
973.00,98.25
972.00,98.25
971.00,98.26
970.00,98.27
969.00,98.28
968.00,98.30
967.00,98.30
966.00,98.29
965.00,98.27
964.00,98.25
963.00,98.24
962.00,98.24
961.00,98.25
960.00,98.26
959.00,98.26
958.00,98.24
957.00,98.24
956.00,98.26
955.00,98.31
954.00,98.38
953.00,98.44
952.00,98.48
951.00,98.49
950.00,98.49
949.00,98.50
948.00,98.55
947.00,98.60
946.00,98.65
945.00,98.68
944.00,98.72
943.00,98.78
942.00,98.83
941.00,98.88
940.00,98.90
939.00,98.91
938.00,98.91
937.00,98.89
936.00,98.88
935.00,98.87
934.00,98.85
933.00,98.81
932.00,98.76
931.00,98.71
930.00,98.68
929.00,98.68
928.00,98.69
927.00,98.71
926.00,98.74
925.00,98.76
924.00,98.80
923.00,98.83
922.00,98.88
921.00,98.92
920.00,98.96
919.00,98.98
918.00,99.00
917.00,99.02
916.00,99.04
915.00,99.06
914.00,99.08
913.00,99.11
912.00,99.13
911.00,99.13
910.00,99.13
909.00,99.13
908.00,99.15
907.00,99.18
906.00,99.22
905.00,99.27
904.00,99.29
903.00,99.30
902.00,99.28
901.00,99.27
900.00,99.26
899.00,99.26
898.00,99.27
897.00,99.28
896.00,99.29
895.00,99.30
894.00,99.30
893.00,99.29
892.00,99.27
891.00,99.25
890.00,99.24
889.00,99.25
888.00,99.28
887.00,99.33
886.00,99.38
885.00,99.42
884.00,99.44
883.00,99.44
882.00,99.42
881.00,99.40
880.00,99.39
879.00,99.37
878.00,99.35
877.00,99.33
876.00,99.33
875.00,99.34
874.00,99.37
873.00,99.40
872.00,99.42
871.00,99.44
870.00,99.46
869.00,99.48
868.00,99.50
867.00,99.52
866.00,99.54
865.00,99.56
864.00,99.56
863.00,99.53
862.00,99.50
861.00,99.47
860.00,99.46
859.00,99.46
858.00,99.46
857.00,99.47
856.00,99.47
855.00,99.46
854.00,99.44
853.00,99.42
852.00,99.41
851.00,99.40
850.00,99.39
849.00,99.39
848.00,99.39
847.00,99.40
846.00,99.40
845.00,99.38
844.00,99.35
843.00,99.31
842.00,99.27
841.00,99.22
840.00,99.18
839.00,99.13
838.00,99.09
837.00,99.06
836.00,99.03
835.00,98.99
834.00,98.95
833.00,98.91
832.00,98.88
831.00,98.87
830.00,98.88
829.00,98.92
828.00,98.97
827.00,99.02
826.00,99.07
825.00,99.10
824.00,99.11
823.00,99.11
822.00,99.10
821.00,99.09
820.00,99.07
819.00,99.05
818.00,99.04
817.00,99.03
816.00,99.04
815.00,99.04
814.00,99.04
813.00,99.05
812.00,99.04
811.00,99.00
810.00,98.95
809.00,98.93
808.00,98.91
807.00,98.87
806.00,98.82
805.00,98.78
804.00,98.77
803.00,98.77
802.00,98.76
801.00,98.72
800.00,98.68
799.00,98.65
798.00,98.61
797.00,98.56
796.00,98.50
795.00,98.44
794.00,98.37
793.00,98.32
792.00,98.29
791.00,98.30
790.00,98.31
789.00,98.30
788.00,98.25
787.00,98.18
786.00,98.12
785.00,98.08
784.00,98.06
783.00,98.04
782.00,98.02
781.00,97.98
780.00,97.90
779.00,97.81
778.00,97.72
777.00,97.67
776.00,97.65
775.00,97.65
774.00,97.64
773.00,97.61
772.00,97.56
771.00,97.50
770.00,97.46
769.00,97.45
768.00,97.45
767.00,97.46
766.00,97.45
765.00,97.41
764.00,97.35
763.00,97.28
762.00,97.21
761.00,97.16
760.00,97.13
759.00,97.08
758.00,97.02
757.00,96.97
756.00,96.94
755.00,96.94
754.00,96.93
753.00,96.91
752.00,96.87
751.00,96.79
750.00,96.69
749.00,96.58
748.00,96.46
747.00,96.34
746.00,96.22
745.00,96.13
744.00,96.06
743.00,96.01
742.00,95.96
741.00,95.87
740.00,95.74
739.00,95.56
738.00,95.40
737.00,95.27
736.00,95.14
735.00,94.98
734.00,94.77
733.00,94.54
732.00,94.33
731.00,94.16
730.00,94.01
729.00,93.90
728.00,93.84
727.00,93.82
726.00,93.82
725.00,93.83
724.00,93.86
723.00,93.91
722.00,93.97
721.00,94.02
720.00,94.06
719.00,94.07
718.00,94.04
717.00,93.98
716.00,93.91
715.00,93.86
714.00,93.82
713.00,93.77
712.00,93.70
711.00,93.64
710.00,93.58
709.00,93.55
708.00,93.53
707.00,93.51
706.00,93.48
705.00,93.44
704.00,93.40
703.00,93.36
702.00,93.33
701.00,93.29
700.00,93.23
699.00,93.17
698.00,93.10
697.00,93.02
696.00,92.91
695.00,92.79
694.00,92.69
693.00,92.60
692.00,92.54
691.00,92.49
690.00,92.45
689.00,92.42
688.00,92.39
687.00,92.36
686.00,92.34
685.00,92.31
684.00,92.25
683.00,92.16
682.00,92.08
681.00,92.06
680.00,92.11
679.00,92.19
678.00,92.25
677.00,92.28
676.00,92.30
675.00,92.34
674.00,92.38
673.00,92.43
672.00,92.44
671.00,92.38
670.00,92.31
669.00,92.35
668.00,92.58
667.00,92.75
666.00,92.72
665.00,92.68
664.00,92.71
663.00,92.82
662.00,92.97
661.00,93.09
660.00,93.14
659.00,93.15
658.00,93.15
657.00,93.20
656.00,93.30
655.00,93.42
654.00,93.54
653.00,93.67
652.00,93.82
651.00,93.96
650.00,94.01
649.00,93.95
648.00,93.84
647.00,93.77
646.00,93.79
645.00,93.87
644.00,93.94
643.00,93.98
642.00,94.02
641.00,94.09
640.00,94.19
639.00,94.27
638.00,94.23
637.00,94.07
636.00,93.89
635.00,93.79
634.00,93.81
633.00,93.89
632.00,93.94
631.00,93.97
630.00,94.02
629.00,94.11
628.00,94.22
627.00,94.32
626.00,94.38
625.00,94.39
624.00,94.38
623.00,94.38
622.00,94.38
621.00,94.31
620.00,94.16
619.00,94.02
618.00,94.02
617.00,94.15
616.00,94.19
615.00,93.99
614.00,93.65
613.00,93.42
612.00,93.39
611.00,93.49
610.00,93.63
609.00,93.81
608.00,94.01
607.00,94.13
606.00,94.11
605.00,94.02
604.00,93.97
603.00,93.89
602.00,93.67
601.00,93.36
600.00,93.15
599.00,93.13
598.00,93.22
597.00,93.24
596.00,93.19
595.00,93.15
594.00,93.16
593.00,93.11
592.00,92.96
591.00,92.76
590.00,92.60
589.00,92.50
588.00,92.44
587.00,92.39
586.00,92.36
585.00,92.43
584.00,92.58
583.00,92.64
582.00,92.38
581.00,91.78
580.00,91.20
579.00,91.12
578.00,91.65
577.00,92.42
576.00,92.99
575.00,93.17
574.00,92.97
573.00,92.41
572.00,91.56
571.00,90.69
570.00,90.20
569.00,90.28
568.00,90.70
567.00,91.06
566.00,91.01
565.00,90.58
564.00,90.16
563.00,90.18
562.00,90.71
561.00,91.48
560.00,92.17
559.00,92.57
558.00,92.63
557.00,92.54
556.00,92.57
555.00,92.87
554.00,93.36
553.00,93.91
552.00,94.54
551.00,95.20
550.00,95.60
