Created as New Dataset,91 Du Pont
cm-1,%T
4000.00,99.43
3999.00,99.43
3998.00,99.41
3997.00,99.39
3996.00,99.38
3995.00,99.37
3994.00,99.38
3993.00,99.38
3992.00,99.39
3991.00,99.41
3990.00,99.42
3989.00,99.43
3988.00,99.43
3987.00,99.43
3986.00,99.42
3985.00,99.41
3984.00,99.40
3983.00,99.38
3982.00,99.37
3981.00,99.36
3980.00,99.35
3979.00,99.36
3978.00,99.37
3977.00,99.39
3976.00,99.41
3975.00,99.44
3974.00,99.45
3973.00,99.45
3972.00,99.45
3971.00,99.44
3970.00,99.44
3969.00,99.44
3968.00,99.44
3967.00,99.44
3966.00,99.44
3965.00,99.44
3964.00,99.44
3963.00,99.44
3962.00,99.44
3961.00,99.44
3960.00,99.45
3959.00,99.47
3958.00,99.48
3957.00,99.49
3956.00,99.48
3955.00,99.47
3954.00,99.45
3953.00,99.44
3952.00,99.45
3951.00,99.46
3950.00,99.47
3949.00,99.47
3948.00,99.46
3947.00,99.44
3946.00,99.42
3945.00,99.41
3944.00,99.40
3943.00,99.40
3942.00,99.40
3941.00,99.40
3940.00,99.41
3939.00,99.43
3938.00,99.44
3937.00,99.45
3936.00,99.44
3935.00,99.42
3934.00,99.40
3933.00,99.40
3932.00,99.41
3931.00,99.41
3930.00,99.42
3929.00,99.42
3928.00,99.41
3927.00,99.40
3926.00,99.40
3925.00,99.41
3924.00,99.41
3923.00,99.41
3922.00,99.43
3921.00,99.45
3920.00,99.46
3919.00,99.45
3918.00,99.45
3917.00,99.45
3916.00,99.44
3915.00,99.44
3914.00,99.44
3913.00,99.43
3912.00,99.43
3911.00,99.43
3910.00,99.44
3909.00,99.43
3908.00,99.43
3907.00,99.42
3906.00,99.43
3905.00,99.43
3904.00,99.43
3903.00,99.40
3902.00,99.37
3901.00,99.35
3900.00,99.36
3899.00,99.39
3898.00,99.42
3897.00,99.44
3896.00,99.46
3895.00,99.45
3894.00,99.42
3893.00,99.39
3892.00,99.39
3891.00,99.41
3890.00,99.42
3889.00,99.40
3888.00,99.38
3887.00,99.38
3886.00,99.40
3885.00,99.40
3884.00,99.38
3883.00,99.34
3882.00,99.33
3881.00,99.35
3880.00,99.38
3879.00,99.39
3878.00,99.39
3877.00,99.38
3876.00,99.41
3875.00,99.46
3874.00,99.49
3873.00,99.48
3872.00,99.46
3871.00,99.45
3870.00,99.46
3869.00,99.45
3868.00,99.40
3867.00,99.35
3866.00,99.33
3865.00,99.35
3864.00,99.37
3863.00,99.38
3862.00,99.40
3861.00,99.42
3860.00,99.46
3859.00,99.50
3858.00,99.52
3857.00,99.52
3856.00,99.48
3855.00,99.46
3854.00,99.46
3853.00,99.44
3852.00,99.40
3851.00,99.37
3850.00,99.35
3849.00,99.35
3848.00,99.36
3847.00,99.39
3846.00,99.41
3845.00,99.44
3844.00,99.45
3843.00,99.44
3842.00,99.41
3841.00,99.40
3840.00,99.39
3839.00,99.40
3838.00,99.39
3837.00,99.36
3836.00,99.33
3835.00,99.31
3834.00,99.30
3833.00,99.31
3832.00,99.32
3831.00,99.33
3830.00,99.32
3829.00,99.33
3828.00,99.36
3827.00,99.41
3826.00,99.44
3825.00,99.43
3824.00,99.38
3823.00,99.35
3822.00,99.35
3821.00,99.35
3820.00,99.33
3819.00,99.29
3818.00,99.26
3817.00,99.28
3816.00,99.29
3815.00,99.28
3814.00,99.26
3813.00,99.27
3812.00,99.29
3811.00,99.32
3810.00,99.33
3809.00,99.33
3808.00,99.36
3807.00,99.40
3806.00,99.41
3805.00,99.37
3804.00,99.31
3803.00,99.29
3802.00,99.29
3801.00,99.29
3800.00,99.26
3799.00,99.23
3798.00,99.22
3797.00,99.26
3796.00,99.30
3795.00,99.33
3794.00,99.34
3793.00,99.34
3792.00,99.33
3791.00,99.32
3790.00,99.31
3789.00,99.29
3788.00,99.27
3787.00,99.26
3786.00,99.25
3785.00,99.24
3784.00,99.24
3783.00,99.22
3782.00,99.21
3781.00,99.21
3780.00,99.23
3779.00,99.24
3778.00,99.23
3777.00,99.22
3776.00,99.22
3775.00,99.23
3774.00,99.26
3773.00,99.28
3772.00,99.30
3771.00,99.31
3770.00,99.32
3769.00,99.29
3768.00,99.25
3767.00,99.21
3766.00,99.20
3765.00,99.20
3764.00,99.20
3763.00,99.19
3762.00,99.19
3761.00,99.19
3760.00,99.20
3759.00,99.21
3758.00,99.22
3757.00,99.23
3756.00,99.24
3755.00,99.25
3754.00,99.25
3753.00,99.25
3752.00,99.25
3751.00,99.25
3750.00,99.26
3749.00,99.25
3748.00,99.20
3747.00,99.13
3746.00,99.10
3745.00,99.13
3744.00,99.16
3743.00,99.16
3742.00,99.14
3741.00,99.13
3740.00,99.14
3739.00,99.14
3738.00,99.14
3737.00,99.14
3736.00,99.14
3735.00,99.13
3734.00,99.12
3733.00,99.14
3732.00,99.17
3731.00,99.19
3730.00,99.19
3729.00,99.17
3728.00,99.15
3727.00,99.13
3726.00,99.08
3725.00,99.04
3724.00,99.02
3723.00,99.04
3722.00,99.07
3721.00,99.09
3720.00,99.11
3719.00,99.12
3718.00,99.14
3717.00,99.15
3716.00,99.15
3715.00,99.14
3714.00,99.13
3713.00,99.12
3712.00,99.12
3711.00,99.10
3710.00,99.06
3709.00,99.03
3708.00,99.02
3707.00,99.03
3706.00,99.04
3705.00,99.03
3704.00,99.02
3703.00,99.00
3702.00,99.02
3701.00,99.05
3700.00,99.09
3699.00,99.12
3698.00,99.14
3697.00,99.15
3696.00,99.13
3695.00,99.12
3694.00,99.10
3693.00,99.10
3692.00,99.08
3691.00,99.05
3690.00,99.01
3689.00,99.00
3688.00,98.99
3687.00,99.00
3686.00,99.00
3685.00,99.01
3684.00,99.02
3683.00,99.01
3682.00,98.99
3681.00,98.99
3680.00,99.00
3679.00,98.98
3678.00,98.93
3677.00,98.90
3676.00,98.91
3675.00,98.94
3674.00,98.96
3673.00,98.96
3672.00,98.95
3671.00,98.95
3670.00,98.95
3669.00,98.94
3668.00,98.93
3667.00,98.94
3666.00,98.94
3665.00,98.94
3664.00,98.92
3663.00,98.91
3662.00,98.90
3661.00,98.91
3660.00,98.91
3659.00,98.90
3658.00,98.90
3657.00,98.91
3656.00,98.93
3655.00,98.94
3654.00,98.94
3653.00,98.93
3652.00,98.92
3651.00,98.91
3650.00,98.88
3649.00,98.84
3648.00,98.82
3647.00,98.83
3646.00,98.85
3645.00,98.85
3644.00,98.85
3643.00,98.86
3642.00,98.87
3641.00,98.87
3640.00,98.89
3639.00,98.91
3638.00,98.92
3637.00,98.93
3636.00,98.93
3635.00,98.92
3634.00,98.93
3633.00,98.91
3632.00,98.88
3631.00,98.84
3630.00,98.84
3629.00,98.85
3628.00,98.85
3627.00,98.83
3626.00,98.81
3625.00,98.81
3624.00,98.82
3623.00,98.82
3622.00,98.80
3621.00,98.78
3620.00,98.76
3619.00,98.75
3618.00,98.74
3617.00,98.72
3616.00,98.70
3615.00,98.69
3614.00,98.69
3613.00,98.71
3612.00,98.71
3611.00,98.71
3610.00,98.71
3609.00,98.70
3608.00,98.70
3607.00,98.69
3606.00,98.69
3605.00,98.69
3604.00,98.68
3603.00,98.67
3602.00,98.67
3601.00,98.68
3600.00,98.69
3599.00,98.70
3598.00,98.70
3597.00,98.68
3596.00,98.66
3595.00,98.64
3594.00,98.64
3593.00,98.65
3592.00,98.66
3591.00,98.64
3590.00,98.61
3589.00,98.57
3588.00,98.55
3587.00,98.55
3586.00,98.55
3585.00,98.56
3584.00,98.57
3583.00,98.58
3582.00,98.59
3581.00,98.59
3580.00,98.60
3579.00,98.61
3578.00,98.61
3577.00,98.59
3576.00,98.57
3575.00,98.54
3574.00,98.52
3573.00,98.52
3572.00,98.51
3571.00,98.50
3570.00,98.47
3569.00,98.44
3568.00,98.42
3567.00,98.40
3566.00,98.39
3565.00,98.39
3564.00,98.39
3563.00,98.39
3562.00,98.38
3561.00,98.39
3560.00,98.40
3559.00,98.39
3558.00,98.38
3557.00,98.36
3556.00,98.33
3555.00,98.31
3554.00,98.29
3553.00,98.29
3552.00,98.30
3551.00,98.29
3550.00,98.28
3549.00,98.27
3548.00,98.27
3547.00,98.29
3546.00,98.30
3545.00,98.28
3544.00,98.25
3543.00,98.22
3542.00,98.19
3541.00,98.18
3540.00,98.16
3539.00,98.15
3538.00,98.15
3537.00,98.16
3536.00,98.17
3535.00,98.16
3534.00,98.15
3533.00,98.15
3532.00,98.15
3531.00,98.14
3530.00,98.11
3529.00,98.07
3528.00,98.03
3527.00,98.01
3526.00,97.99
3525.00,97.98
3524.00,97.97
3523.00,97.97
3522.00,97.96
3521.00,97.96
3520.00,97.95
3519.00,97.94
3518.00,97.93
3517.00,97.93
3516.00,97.93
3515.00,97.93
3514.00,97.92
3513.00,97.89
3512.00,97.87
3511.00,97.86
3510.00,97.86
3509.00,97.86
3508.00,97.84
3507.00,97.81
3506.00,97.78
3505.00,97.76
3504.00,97.77
3503.00,97.78
3502.00,97.79
3501.00,97.79
3500.00,97.78
3499.00,97.78
3498.00,97.78
3497.00,97.78
3496.00,97.78
3495.00,97.76
3494.00,97.74
3493.00,97.71
3492.00,97.68
3491.00,97.66
3490.00,97.66
3489.00,97.67
3488.00,97.69
3487.00,97.70
3486.00,97.70
3485.00,97.70
3484.00,97.69
3483.00,97.69
3482.00,97.69
3481.00,97.70
3480.00,97.72
3479.00,97.73
3478.00,97.73
3477.00,97.71
3476.00,97.68
3475.00,97.65
3474.00,97.63
3473.00,97.62
3472.00,97.63
3471.00,97.65
3470.00,97.65
3469.00,97.63
3468.00,97.59
3467.00,97.56
3466.00,97.56
3465.00,97.58
3464.00,97.59
3463.00,97.59
3462.00,97.58
3461.00,97.57
3460.00,97.57
3459.00,97.60
3458.00,97.62
3457.00,97.64
3456.00,97.65
3455.00,97.64
3454.00,97.62
3453.00,97.59
3452.00,97.56
3451.00,97.53
3450.00,97.51
3449.00,97.50
3448.00,97.50
3447.00,97.51
3446.00,97.50
3445.00,97.47
3444.00,97.45
3443.00,97.43
3442.00,97.43
3441.00,97.43
3440.00,97.43
3439.00,97.44
3438.00,97.45
3437.00,97.46
3436.00,97.48
3435.00,97.48
3434.00,97.47
3433.00,97.46
3432.00,97.46
3431.00,97.48
3430.00,97.50
3429.00,97.51
3428.00,97.49
3427.00,97.44
3426.00,97.40
3425.00,97.38
3424.00,97.39
3423.00,97.40
3422.00,97.41
3421.00,97.40
3420.00,97.38
3419.00,97.37
3418.00,97.35
3417.00,97.34
3416.00,97.34
3415.00,97.34
3414.00,97.34
3413.00,97.33
3412.00,97.31
3411.00,97.30
3410.00,97.30
3409.00,97.30
3408.00,97.29
3407.00,97.28
3406.00,97.27
3405.00,97.27
3404.00,97.25
3403.00,97.22
3402.00,97.18
3401.00,97.15
3400.00,97.14
3399.00,97.15
3398.00,97.16
3397.00,97.16
3396.00,97.14
3395.00,97.11
3394.00,97.09
3393.00,97.09
3392.00,97.10
3391.00,97.09
3390.00,97.07
3389.00,97.03
3388.00,96.99
3387.00,96.96
3386.00,96.93
3385.00,96.92
3384.00,96.91
3383.00,96.91
3382.00,96.89
3381.00,96.86
3380.00,96.83
3379.00,96.81
3378.00,96.78
3377.00,96.74
3376.00,96.70
3375.00,96.65
3374.00,96.61
3373.00,96.58
3372.00,96.57
3371.00,96.55
3370.00,96.52
3369.00,96.47
3368.00,96.41
3367.00,96.34
3366.00,96.29
3365.00,96.26
3364.00,96.24
3363.00,96.23
3362.00,96.21
3361.00,96.15
3360.00,96.08
3359.00,95.99
3358.00,95.92
3357.00,95.86
3356.00,95.80
3355.00,95.75
3354.00,95.70
3353.00,95.64
3352.00,95.57
3351.00,95.48
3350.00,95.39
3349.00,95.29
3348.00,95.19
3347.00,95.09
3346.00,94.98
3345.00,94.88
3344.00,94.78
3343.00,94.69
3342.00,94.59
3341.00,94.47
3340.00,94.34
3339.00,94.20
3338.00,94.06
3337.00,93.93
3336.00,93.81
3335.00,93.68
3334.00,93.53
3333.00,93.36
3332.00,93.17
3331.00,92.98
3330.00,92.79
3329.00,92.61
3328.00,92.41
3327.00,92.21
3326.00,91.99
3325.00,91.76
3324.00,91.51
3323.00,91.25
3322.00,90.97
3321.00,90.70
3320.00,90.41
3319.00,90.12
3318.00,89.80
3317.00,89.46
3316.00,89.12
3315.00,88.77
3314.00,88.42
3313.00,88.07
3312.00,87.71
3311.00,87.35
3310.00,87.00
3309.00,86.65
3308.00,86.31
3307.00,86.01
3306.00,85.73
3305.00,85.49
3304.00,85.26
3303.00,85.06
3302.00,84.88
3301.00,84.73
3300.00,84.62
3299.00,84.55
3298.00,84.51
3297.00,84.49
3296.00,84.50
3295.00,84.54
3294.00,84.61
3293.00,84.70
3292.00,84.80
3291.00,84.92
3290.00,85.04
3289.00,85.18
3288.00,85.34
3287.00,85.51
3286.00,85.69
3285.00,85.87
3284.00,86.07
3283.00,86.26
3282.00,86.43
3281.00,86.58
3280.00,86.73
3279.00,86.88
3278.00,87.06
3277.00,87.23
3276.00,87.39
3275.00,87.55
3274.00,87.72
3273.00,87.89
3272.00,88.07
3271.00,88.24
3270.00,88.39
3269.00,88.54
3268.00,88.69
3267.00,88.84
3266.00,89.01
3265.00,89.19
3264.00,89.37
3263.00,89.55
3262.00,89.72
3261.00,89.90
3260.00,90.08
3259.00,90.27
3258.00,90.44
3257.00,90.61
3256.00,90.77
3255.00,90.94
3254.00,91.11
3253.00,91.28
3252.00,91.44
3251.00,91.58
3250.00,91.72
3249.00,91.84
3248.00,91.97
3247.00,92.10
3246.00,92.25
3245.00,92.39
3244.00,92.53
3243.00,92.67
3242.00,92.80
3241.00,92.91
3240.00,93.02
3239.00,93.12
3238.00,93.23
3237.00,93.35
3236.00,93.47
3235.00,93.58
3234.00,93.68
3233.00,93.77
3232.00,93.84
3231.00,93.92
3230.00,93.99
3229.00,94.07
3228.00,94.14
3227.00,94.22
3226.00,94.30
3225.00,94.39
3224.00,94.46
3223.00,94.52
3222.00,94.56
3221.00,94.60
3220.00,94.63
3219.00,94.66
3218.00,94.70
3217.00,94.73
3216.00,94.76
3215.00,94.78
3214.00,94.81
3213.00,94.84
3212.00,94.88
3211.00,94.92
3210.00,94.96
3209.00,94.98
3208.00,95.00
3207.00,95.01
3206.00,95.02
3205.00,95.04
3204.00,95.07
3203.00,95.10
3202.00,95.14
3201.00,95.17
3200.00,95.19
3199.00,95.21
3198.00,95.23
3197.00,95.27
3196.00,95.31
3195.00,95.36
3194.00,95.40
3193.00,95.43
3192.00,95.47
3191.00,95.50
3190.00,95.52
3189.00,95.55
3188.00,95.57
3187.00,95.61
3186.00,95.66
3185.00,95.72
3184.00,95.78
3183.00,95.82
3182.00,95.84
3181.00,95.87
3180.00,95.92
3179.00,95.99
3178.00,96.06
3177.00,96.12
3176.00,96.16
3175.00,96.19
3174.00,96.22
3173.00,96.26
3172.00,96.31
3171.00,96.35
3170.00,96.39
3169.00,96.41
3168.00,96.43
3167.00,96.45
3166.00,96.48
3165.00,96.52
3164.00,96.58
3163.00,96.65
3162.00,96.71
3161.00,96.75
3160.00,96.78
3159.00,96.80
3158.00,96.83
3157.00,96.85
3156.00,96.87
3155.00,96.89
3154.00,96.90
3153.00,96.91
3152.00,96.92
3151.00,96.93
3150.00,96.93
3149.00,96.93
3148.00,96.94
3147.00,96.95
3146.00,96.97
3145.00,96.99
3144.00,97.01
3143.00,97.02
3142.00,97.04
3141.00,97.06
3140.00,97.08
3139.00,97.08
3138.00,97.07
3137.00,97.06
3136.00,97.06
3135.00,97.05
3134.00,97.05
3133.00,97.04
3132.00,97.03
3131.00,97.01
3130.00,96.99
3129.00,96.98
3128.00,96.97
3127.00,96.96
3126.00,96.95
3125.00,96.94
3124.00,96.93
3123.00,96.93
3122.00,96.93
3121.00,96.92
3120.00,96.90
3119.00,96.86
3118.00,96.82
3117.00,96.79
3116.00,96.77
3115.00,96.74
3114.00,96.71
3113.00,96.65
3112.00,96.60
3111.00,96.55
3110.00,96.51
3109.00,96.47
3108.00,96.43
3107.00,96.38
3106.00,96.33
3105.00,96.28
3104.00,96.24
3103.00,96.20
3102.00,96.15
3101.00,96.11
3100.00,96.06
3099.00,96.02
3098.00,95.97
3097.00,95.92
3096.00,95.86
3095.00,95.81
3094.00,95.77
3093.00,95.72
3092.00,95.68
3091.00,95.65
3090.00,95.62
3089.00,95.59
3088.00,95.58
3087.00,95.56
3086.00,95.55
3085.00,95.54
3084.00,95.53
3083.00,95.52
3082.00,95.52
3081.00,95.52
3080.00,95.52
3079.00,95.51
3078.00,95.50
3077.00,95.49
3076.00,95.48
3075.00,95.48
3074.00,95.48
3073.00,95.50
3072.00,95.53
3071.00,95.56
3070.00,95.59
3069.00,95.61
3068.00,95.64
3067.00,95.66
3066.00,95.69
3065.00,95.72
3064.00,95.74
3063.00,95.77
3062.00,95.79
3061.00,95.82
3060.00,95.87
3059.00,95.92
3058.00,95.99
3057.00,96.05
3056.00,96.12
3055.00,96.18
3054.00,96.25
3053.00,96.31
3052.00,96.36
3051.00,96.41
3050.00,96.46
3049.00,96.52
3048.00,96.59
3047.00,96.66
3046.00,96.72
3045.00,96.79
3044.00,96.86
3043.00,96.93
3042.00,96.99
3041.00,97.04
3040.00,97.09
3039.00,97.13
3038.00,97.18
3037.00,97.23
3036.00,97.27
3035.00,97.30
3034.00,97.33
3033.00,97.36
3032.00,97.38
3031.00,97.42
3030.00,97.44
3029.00,97.47
3028.00,97.50
3027.00,97.53
3026.00,97.56
3025.00,97.58
3024.00,97.59
3023.00,97.60
3022.00,97.60
3021.00,97.61
3020.00,97.62
3019.00,97.63
3018.00,97.65
3017.00,97.67
3016.00,97.69
3015.00,97.70
3014.00,97.70
3013.00,97.70
3012.00,97.70
3011.00,97.71
3010.00,97.72
3009.00,97.73
3008.00,97.74
3007.00,97.74
3006.00,97.73
3005.00,97.72
3004.00,97.71
3003.00,97.71
3002.00,97.70
3001.00,97.69
3000.00,97.67
2999.00,97.66
2998.00,97.65
2997.00,97.64
2996.00,97.64
2995.00,97.63
2994.00,97.63
2993.00,97.62
2992.00,97.60
2991.00,97.58
2990.00,97.55
2989.00,97.51
2988.00,97.47
2987.00,97.43
2986.00,97.38
2985.00,97.32
2984.00,97.25
2983.00,97.17
2982.00,97.09
2981.00,97.01
2980.00,96.92
2979.00,96.84
2978.00,96.74
2977.00,96.63
2976.00,96.50
2975.00,96.36
2974.00,96.22
2973.00,96.08
2972.00,95.97
2971.00,95.84
2970.00,95.70
2969.00,95.55
2968.00,95.38
2967.00,95.20
2966.00,95.01
2965.00,94.83
2964.00,94.66
2963.00,94.48
2962.00,94.30
2961.00,94.11
2960.00,93.90
2959.00,93.68
2958.00,93.44
2957.00,93.19
2956.00,92.93
2955.00,92.65
2954.00,92.36
2953.00,92.03
2952.00,91.67
2951.00,91.28
2950.00,90.86
2949.00,90.42
2948.00,89.99
2947.00,89.58
2946.00,89.20
2945.00,88.85
2944.00,88.52
2943.00,88.20
2942.00,87.88
2941.00,87.57
2940.00,87.26
2939.00,86.96
2938.00,86.69
2937.00,86.45
2936.00,86.27
2935.00,86.13
2934.00,86.05
2933.00,86.01
2932.00,86.01
2931.00,86.07
2930.00,86.19
2929.00,86.35
2928.00,86.55
2927.00,86.77
2926.00,87.01
2925.00,87.25
2924.00,87.49
2923.00,87.73
2922.00,87.95
2921.00,88.18
2920.00,88.41
2919.00,88.66
2918.00,88.92
2917.00,89.18
2916.00,89.41
2915.00,89.60
2914.00,89.77
2913.00,89.93
2912.00,90.10
2911.00,90.27
2910.00,90.44
2909.00,90.61
2908.00,90.76
2907.00,90.92
2906.00,91.10
2905.00,91.30
2904.00,91.51
2903.00,91.72
2902.00,91.93
2901.00,92.13
2900.00,92.32
2899.00,92.50
2898.00,92.68
2897.00,92.85
2896.00,93.02
2895.00,93.18
2894.00,93.31
2893.00,93.42
2892.00,93.50
2891.00,93.57
2890.00,93.62
2889.00,93.64
2888.00,93.63
2887.00,93.59
2886.00,93.52
2885.00,93.43
2884.00,93.31
2883.00,93.15
2882.00,92.97
2881.00,92.77
2880.00,92.56
2879.00,92.33
2878.00,92.11
2877.00,91.90
2876.00,91.70
2875.00,91.52
2874.00,91.36
2873.00,91.21
2872.00,91.08
2871.00,90.95
2870.00,90.83
2869.00,90.72
2868.00,90.59
2867.00,90.45
2866.00,90.30
2865.00,90.13
2864.00,89.96
2863.00,89.80
2862.00,89.66
2861.00,89.57
2860.00,89.55
2859.00,89.58
2858.00,89.68
2857.00,89.83
2856.00,90.06
2855.00,90.35
2854.00,90.68
2853.00,91.03
2852.00,91.41
2851.00,91.80
2850.00,92.21
2849.00,92.64
2848.00,93.06
2847.00,93.46
2846.00,93.83
2845.00,94.18
2844.00,94.49
2843.00,94.77
2842.00,95.02
2841.00,95.25
2840.00,95.46
2839.00,95.65
2838.00,95.79
2837.00,95.91
2836.00,96.00
2835.00,96.08
2834.00,96.15
2833.00,96.22
2832.00,96.28
2831.00,96.34
2830.00,96.39
2829.00,96.43
2828.00,96.47
2827.00,96.52
2826.00,96.56
2825.00,96.61
2824.00,96.64
2823.00,96.68
2822.00,96.71
2821.00,96.74
2820.00,96.78
2819.00,96.82
2818.00,96.86
2817.00,96.90
2816.00,96.95
2815.00,97.00
2814.00,97.04
2813.00,97.07
2812.00,97.09
2811.00,97.11
2810.00,97.12
2809.00,97.14
2808.00,97.16
2807.00,97.19
2806.00,97.22
2805.00,97.24
2804.00,97.27
2803.00,97.30
2802.00,97.32
2801.00,97.34
2800.00,97.35
2799.00,97.36
2798.00,97.37
2797.00,97.39
2796.00,97.41
2795.00,97.44
2794.00,97.46
2793.00,97.48
2792.00,97.49
2791.00,97.51
2790.00,97.53
2789.00,97.55
2788.00,97.57
2787.00,97.59
2786.00,97.61
2785.00,97.62
2784.00,97.61
2783.00,97.60
2782.00,97.60
2781.00,97.61
2780.00,97.64
2779.00,97.68
2778.00,97.70
2777.00,97.72
2776.00,97.72
2775.00,97.71
2774.00,97.70
2773.00,97.69
2772.00,97.69
2771.00,97.71
2770.00,97.73
2769.00,97.75
2768.00,97.77
2767.00,97.78
2766.00,97.79
2765.00,97.80
2764.00,97.81
2763.00,97.81
2762.00,97.81
2761.00,97.81
2760.00,97.82
2759.00,97.82
2758.00,97.83
2757.00,97.83
2756.00,97.83
2755.00,97.83
2754.00,97.83
2753.00,97.83
2752.00,97.84
2751.00,97.85
2750.00,97.86
2749.00,97.87
2748.00,97.88
2747.00,97.89
2746.00,97.89
2745.00,97.90
2744.00,97.90
2743.00,97.90
2742.00,97.90
2741.00,97.90
2740.00,97.91
2739.00,97.92
2738.00,97.93
2737.00,97.93
2736.00,97.93
2735.00,97.94
2734.00,97.95
2733.00,97.97
2732.00,97.98
2731.00,97.99
2730.00,98.00
2729.00,98.01
2728.00,98.02
2727.00,98.03
2726.00,98.05
2725.00,98.07
2724.00,98.09
2723.00,98.10
2722.00,98.11
2721.00,98.11
2720.00,98.12
2719.00,98.12
2718.00,98.13
2717.00,98.14
2716.00,98.15
2715.00,98.15
2714.00,98.15
2713.00,98.15
2712.00,98.16
2711.00,98.17
2710.00,98.17
2709.00,98.17
2708.00,98.16
2707.00,98.15
2706.00,98.15
2705.00,98.15
2704.00,98.16
2703.00,98.18
2702.00,98.21
2701.00,98.22
2700.00,98.22
2699.00,98.22
2698.00,98.21
2697.00,98.20
2696.00,98.20
2695.00,98.21
2694.00,98.21
2693.00,98.21
2692.00,98.20
2691.00,98.19
2690.00,98.19
2689.00,98.20
2688.00,98.20
2687.00,98.20
2686.00,98.21
2685.00,98.21
2684.00,98.23
2683.00,98.24
2682.00,98.25
2681.00,98.24
2680.00,98.24
2679.00,98.24
2678.00,98.25
2677.00,98.25
2676.00,98.25
2675.00,98.25
2674.00,98.24
2673.00,98.24
2672.00,98.25
2671.00,98.26
2670.00,98.27
2669.00,98.28
2668.00,98.28
2667.00,98.28
2666.00,98.28
2665.00,98.28
2664.00,98.28
2663.00,98.27
2662.00,98.27
2661.00,98.27
2660.00,98.28
2659.00,98.28
2658.00,98.28
2657.00,98.26
2656.00,98.25
2655.00,98.22
2654.00,98.21
2653.00,98.19
2652.00,98.19
2651.00,98.19
2650.00,98.20
2649.00,98.20
2648.00,98.18
2647.00,98.15
2646.00,98.13
2645.00,98.12
2644.00,98.13
2643.00,98.14
2642.00,98.14
2641.00,98.14
2640.00,98.15
2639.00,98.15
2638.00,98.14
2637.00,98.11
2636.00,98.08
2635.00,98.06
2634.00,98.04
2633.00,98.03
2632.00,98.04
2631.00,98.04
2630.00,98.04
2629.00,98.03
2628.00,98.00
2627.00,97.99
2626.00,97.98
2625.00,97.98
2624.00,97.98
2623.00,97.97
2622.00,97.97
2621.00,97.97
2620.00,97.98
2619.00,97.98
2618.00,97.97
2617.00,97.94
2616.00,97.92
2615.00,97.90
2614.00,97.89
2613.00,97.89
2612.00,97.89
2611.00,97.89
2610.00,97.88
2609.00,97.87
2608.00,97.86
2607.00,97.84
2606.00,97.83
2605.00,97.81
2604.00,97.80
2603.00,97.80
2602.00,97.80
2601.00,97.81
2600.00,97.82
2599.00,97.82
2598.00,97.81
2597.00,97.79
2596.00,97.79
2595.00,97.79
2594.00,97.79
2593.00,97.77
2592.00,97.75
2591.00,97.73
2590.00,97.73
2589.00,97.72
2588.00,97.71
2587.00,97.70
2586.00,97.69
2585.00,97.69
2584.00,97.69
2583.00,97.69
2582.00,97.68
2581.00,97.67
2580.00,97.66
2579.00,97.66
2578.00,97.66
2577.00,97.66
2576.00,97.67
2575.00,97.68
2574.00,97.69
2573.00,97.69
2572.00,97.70
2571.00,97.70
2570.00,97.70
2569.00,97.69
2568.00,97.68
2567.00,97.66
2566.00,97.65
2565.00,97.64
2564.00,97.64
2563.00,97.66
2562.00,97.68
2561.00,97.70
2560.00,97.71
2559.00,97.72
2558.00,97.71
2557.00,97.71
2556.00,97.71
2555.00,97.71
2554.00,97.71
2553.00,97.70
2552.00,97.70
2551.00,97.69
2550.00,97.69
2549.00,97.70
2548.00,97.71
2547.00,97.72
2546.00,97.72
2545.00,97.73
2544.00,97.72
2543.00,97.71
2542.00,97.70
2541.00,97.70
2540.00,97.72
2539.00,97.75
2538.00,97.76
2537.00,97.76
2536.00,97.74
2535.00,97.73
2534.00,97.73
2533.00,97.73
2532.00,97.73
2531.00,97.72
2530.00,97.71
2529.00,97.71
2528.00,97.70
2527.00,97.69
2526.00,97.69
2525.00,97.69
2524.00,97.69
2523.00,97.70
2522.00,97.72
2521.00,97.75
2520.00,97.78
2519.00,97.78
2518.00,97.77
2517.00,97.77
2516.00,97.77
2515.00,97.77
2514.00,97.76
2513.00,97.75
2512.00,97.73
2511.00,97.73
2510.00,97.74
2509.00,97.76
2508.00,97.79
2507.00,97.81
2506.00,97.80
2505.00,97.78
2504.00,97.76
2503.00,97.75
2502.00,97.74
2501.00,97.73
2500.00,97.71
2499.00,97.72
2498.00,97.74
2497.00,97.75
2496.00,97.76
2495.00,97.75
2494.00,97.74
2493.00,97.73
2492.00,97.74
2491.00,97.76
2490.00,97.78
2489.00,97.80
2488.00,97.81
2487.00,97.80
2486.00,97.79
2485.00,97.77
2484.00,97.77
2483.00,97.76
2482.00,97.77
2481.00,97.77
2480.00,97.79
2479.00,97.80
2478.00,97.79
2477.00,97.76
2476.00,97.74
2475.00,97.74
2474.00,97.75
2473.00,97.76
2472.00,97.78
2471.00,97.80
2470.00,97.81
2469.00,97.81
2468.00,97.80
2467.00,97.79
2466.00,97.78
2465.00,97.77
2464.00,97.76
2463.00,97.76
2462.00,97.77
2461.00,97.78
2460.00,97.78
2459.00,97.78
2458.00,97.77
2457.00,97.76
2456.00,97.76
2455.00,97.77
2454.00,97.79
2453.00,97.80
2452.00,97.81
2451.00,97.81
2450.00,97.81
2449.00,97.81
2448.00,97.81
2447.00,97.81
2446.00,97.80
2445.00,97.79
2444.00,97.78
2443.00,97.78
2442.00,97.80
2441.00,97.82
2440.00,97.82
2439.00,97.82
2438.00,97.83
2437.00,97.84
2436.00,97.84
2435.00,97.83
2434.00,97.83
2433.00,97.83
2432.00,97.85
2431.00,97.87
2430.00,97.88
2429.00,97.89
2428.00,97.90
2427.00,97.91
2426.00,97.91
2425.00,97.90
2424.00,97.89
2423.00,97.88
2422.00,97.88
2421.00,97.87
2420.00,97.88
2419.00,97.89
2418.00,97.91
2417.00,97.93
2416.00,97.96
2415.00,97.97
2414.00,97.98
2413.00,97.97
2412.00,97.95
2411.00,97.92
2410.00,97.90
2409.00,97.90
2408.00,97.91
2407.00,97.94
2406.00,97.96
2405.00,97.98
2404.00,97.99
2403.00,98.00
2402.00,98.00
2401.00,98.01
2400.00,98.02
2399.00,98.03
2398.00,98.04
2397.00,98.06
2396.00,98.07
2395.00,98.08
2394.00,98.07
2393.00,98.05
2392.00,98.04
2391.00,98.07
2390.00,98.10
2389.00,98.13
2388.00,98.15
2387.00,98.17
2386.00,98.19
2385.00,98.22
2384.00,98.27
2383.00,98.32
2382.00,98.37
2381.00,98.43
2380.00,98.48
2379.00,98.50
2378.00,98.51
2377.00,98.51
2376.00,98.50
2375.00,98.46
2374.00,98.39
2373.00,98.32
2372.00,98.29
2371.00,98.31
2370.00,98.39
2369.00,98.48
2368.00,98.56
2367.00,98.62
2366.00,98.63
2365.00,98.61
2364.00,98.56
2363.00,98.49
2362.00,98.39
2361.00,98.31
2360.00,98.31
2359.00,98.38
2358.00,98.45
2357.00,98.49
2356.00,98.50
2355.00,98.50
2354.00,98.48
2353.00,98.45
2352.00,98.46
2351.00,98.49
2350.00,98.52
2349.00,98.52
2348.00,98.52
2347.00,98.51
2346.00,98.51
2345.00,98.53
2344.00,98.55
2343.00,98.57
2342.00,98.55
2341.00,98.49
2340.00,98.43
2339.00,98.38
2338.00,98.37
2337.00,98.38
2336.00,98.40
2335.00,98.43
2334.00,98.46
2333.00,98.48
2332.00,98.49
2331.00,98.48
2330.00,98.45
2329.00,98.40
2328.00,98.36
2327.00,98.32
2326.00,98.29
2325.00,98.26
2324.00,98.24
2323.00,98.24
2322.00,98.26
2321.00,98.27
2320.00,98.27
2319.00,98.26
2318.00,98.24
2317.00,98.20
2316.00,98.17
2315.00,98.14
2314.00,98.14
2313.00,98.14
2312.00,98.15
2311.00,98.16
2310.00,98.15
2309.00,98.12
2308.00,98.08
2307.00,98.04
2306.00,98.00
2305.00,97.96
2304.00,97.93
2303.00,97.91
2302.00,97.90
2301.00,97.90
2300.00,97.90
2299.00,97.88
2298.00,97.83
2297.00,97.77
2296.00,97.73
2295.00,97.72
2294.00,97.73
2293.00,97.72
2292.00,97.69
2291.00,97.65
2290.00,97.62
2289.00,97.59
2288.00,97.54
2287.00,97.47
2286.00,97.41
2285.00,97.37
2284.00,97.35
2283.00,97.34
2282.00,97.33
2281.00,97.30
2280.00,97.26
2279.00,97.22
2278.00,97.20
2277.00,97.20
2276.00,97.21
2275.00,97.21
2274.00,97.20
2273.00,97.18
2272.00,97.17
2271.00,97.17
2270.00,97.16
2269.00,97.11
2268.00,97.06
2267.00,97.03
2266.00,97.03
2265.00,97.03
2264.00,97.01
2263.00,96.98
2262.00,96.94
2261.00,96.90
2260.00,96.88
2259.00,96.87
2258.00,96.88
2257.00,96.90
2256.00,96.90
2255.00,96.89
2254.00,96.86
2253.00,96.84
2252.00,96.82
2251.00,96.80
2250.00,96.79
2249.00,96.78
2248.00,96.79
2247.00,96.80
2246.00,96.79
2245.00,96.76
2244.00,96.70
2243.00,96.65
2242.00,96.62
2241.00,96.61
2240.00,96.61
2239.00,96.61
2238.00,96.61
2237.00,96.59
2236.00,96.56
2235.00,96.52
2234.00,96.47
2233.00,96.44
2232.00,96.43
2231.00,96.43
2230.00,96.43
2229.00,96.42
2228.00,96.42
2227.00,96.42
2226.00,96.42
2225.00,96.40
2224.00,96.35
2223.00,96.30
2222.00,96.26
2221.00,96.25
2220.00,96.25
2219.00,96.26
2218.00,96.23
2217.00,96.19
2216.00,96.14
2215.00,96.12
2214.00,96.12
2213.00,96.13
2212.00,96.13
2211.00,96.09
2210.00,96.02
2209.00,95.94
2208.00,95.91
2207.00,95.92
2206.00,95.93
2205.00,95.93
2204.00,95.92
2203.00,95.92
2202.00,95.91
2201.00,95.89
2200.00,95.86
2199.00,95.85
2198.00,95.86
2197.00,95.89
2196.00,95.94
2195.00,95.98
2194.00,95.98
2193.00,95.93
2192.00,95.84
2191.00,95.75
2190.00,95.66
2189.00,95.57
2188.00,95.48
2187.00,95.41
2186.00,95.38
2185.00,95.39
2184.00,95.43
2183.00,95.46
2182.00,95.45
2181.00,95.44
2180.00,95.43
2179.00,95.45
2178.00,95.46
2177.00,95.47
2176.00,95.48
2175.00,95.48
2174.00,95.46
2173.00,95.39
2172.00,95.32
2171.00,95.26
2170.00,95.22
2169.00,95.19
2168.00,95.16
2167.00,95.14
2166.00,95.09
2165.00,95.00
2164.00,94.88
2163.00,94.76
2162.00,94.68
2161.00,94.66
2160.00,94.74
2159.00,94.92
2158.00,95.14
2157.00,95.32
2156.00,95.46
2155.00,95.57
2154.00,95.66
2153.00,95.74
2152.00,95.80
2151.00,95.84
2150.00,95.88
2149.00,95.91
2148.00,95.94
2147.00,95.95
2146.00,95.96
2145.00,95.99
2144.00,96.07
2143.00,96.19
2142.00,96.30
2141.00,96.35
2140.00,96.36
2139.00,96.39
2138.00,96.44
2137.00,96.51
2136.00,96.58
2135.00,96.65
2134.00,96.72
2133.00,96.80
2132.00,96.87
2131.00,96.91
2130.00,96.93
2129.00,96.92
2128.00,96.92
2127.00,96.92
2126.00,96.92
2125.00,96.91
2124.00,96.90
2123.00,96.90
2122.00,96.91
2121.00,96.94
2120.00,96.97
2119.00,97.01
2118.00,97.02
2117.00,97.00
2116.00,96.96
2115.00,96.92
2114.00,96.91
2113.00,96.92
2112.00,96.94
2111.00,96.92
2110.00,96.89
2109.00,96.86
2108.00,96.88
2107.00,96.92
2106.00,96.96
2105.00,96.98
2104.00,96.98
2103.00,96.96
2102.00,96.91
2101.00,96.86
2100.00,96.81
2099.00,96.79
2098.00,96.79
2097.00,96.82
2096.00,96.87
2095.00,96.91
2094.00,96.93
2093.00,96.94
2092.00,96.94
2091.00,96.95
2090.00,96.96
2089.00,96.97
2088.00,96.96
2087.00,96.93
2086.00,96.90
2085.00,96.88
2084.00,96.88
2083.00,96.88
2082.00,96.88
2081.00,96.86
2080.00,96.83
2079.00,96.79
2078.00,96.73
2077.00,96.64
2076.00,96.57
2075.00,96.55
2074.00,96.59
2073.00,96.64
2072.00,96.68
2071.00,96.69
2070.00,96.68
2069.00,96.66
2068.00,96.65
2067.00,96.65
2066.00,96.64
2065.00,96.62
2064.00,96.58
2063.00,96.54
2062.00,96.52
2061.00,96.50
2060.00,96.50
2059.00,96.49
2058.00,96.47
2057.00,96.44
2056.00,96.41
2055.00,96.38
2054.00,96.34
2053.00,96.26
2052.00,96.15
2051.00,96.04
2050.00,95.96
2049.00,95.88
2048.00,95.82
2047.00,95.78
2046.00,95.76
2045.00,95.75
2044.00,95.72
2043.00,95.69
2042.00,95.67
2041.00,95.65
2040.00,95.64
2039.00,95.61
2038.00,95.53
2037.00,95.43
2036.00,95.36
2035.00,95.34
2034.00,95.37
2033.00,95.41
2032.00,95.42
2031.00,95.43
2030.00,95.45
2029.00,95.49
2028.00,95.53
2027.00,95.55
2026.00,95.51
2025.00,95.42
2024.00,95.32
2023.00,95.26
2022.00,95.25
2021.00,95.28
2020.00,95.36
2019.00,95.45
2018.00,95.55
2017.00,95.61
2016.00,95.64
2015.00,95.62
2014.00,95.61
2013.00,95.61
2012.00,95.62
2011.00,95.65
2010.00,95.68
2009.00,95.74
2008.00,95.82
2007.00,95.91
2006.00,95.95
2005.00,95.95
2004.00,95.94
2003.00,95.96
2002.00,96.02
2001.00,96.08
2000.00,96.12
1999.00,96.14
1998.00,96.14
1997.00,96.13
1996.00,96.11
1995.00,96.09
1994.00,96.07
1993.00,96.07
1992.00,96.07
1991.00,96.06
1990.00,96.02
1989.00,95.96
1988.00,95.93
1987.00,95.92
1986.00,95.91
1985.00,95.87
1984.00,95.81
1983.00,95.76
1982.00,95.72
1981.00,95.66
1980.00,95.60
1979.00,95.56
1978.00,95.57
1977.00,95.61
1976.00,95.67
1975.00,95.75
1974.00,95.83
1973.00,95.89
1972.00,95.91
1971.00,95.91
1970.00,95.89
1969.00,95.89
1968.00,95.91
1967.00,95.96
1966.00,96.03
1965.00,96.09
1964.00,96.13
1963.00,96.17
1962.00,96.21
1961.00,96.24
1960.00,96.28
1959.00,96.32
1958.00,96.37
1957.00,96.41
1956.00,96.44
1955.00,96.45
1954.00,96.45
1953.00,96.47
1952.00,96.51
1951.00,96.55
1950.00,96.60
1949.00,96.66
1948.00,96.72
1947.00,96.77
1946.00,96.80
1945.00,96.85
1944.00,96.90
1943.00,96.96
1942.00,96.99
1941.00,96.99
1940.00,97.00
1939.00,97.03
1938.00,97.05
1937.00,97.07
1936.00,97.09
1935.00,97.12
1934.00,97.15
1933.00,97.16
1932.00,97.16
1931.00,97.17
1930.00,97.18
1929.00,97.23
1928.00,97.28
1927.00,97.32
1926.00,97.32
1925.00,97.30
1924.00,97.31
1923.00,97.36
1922.00,97.43
1921.00,97.48
1920.00,97.50
1919.00,97.48
1918.00,97.45
1917.00,97.43
1916.00,97.42
1915.00,97.44
1914.00,97.46
1913.00,97.47
1912.00,97.48
1911.00,97.50
1910.00,97.53
1909.00,97.54
1908.00,97.55
1907.00,97.55
1906.00,97.55
1905.00,97.54
1904.00,97.55
1903.00,97.57
1902.00,97.60
1901.00,97.63
1900.00,97.65
1899.00,97.67
1898.00,97.68
1897.00,97.68
1896.00,97.67
1895.00,97.67
1894.00,97.67
1893.00,97.67
1892.00,97.66
1891.00,97.66
1890.00,97.68
1889.00,97.71
1888.00,97.76
1887.00,97.80
1886.00,97.82
1885.00,97.82
1884.00,97.81
1883.00,97.80
1882.00,97.78
1881.00,97.76
1880.00,97.76
1879.00,97.77
1878.00,97.79
1877.00,97.80
1876.00,97.82
1875.00,97.83
1874.00,97.85
1873.00,97.86
1872.00,97.88
1871.00,97.89
1870.00,97.89
1869.00,97.90
1868.00,97.90
1867.00,97.91
1866.00,97.91
1865.00,97.91
1864.00,97.92
1863.00,97.95
1862.00,97.97
1861.00,97.98
1860.00,97.98
1859.00,97.98
1858.00,97.99
1857.00,98.00
1856.00,98.00
1855.00,97.99
1854.00,97.99
1853.00,97.99
1852.00,97.99
1851.00,97.99
1850.00,97.99
1849.00,97.98
1848.00,98.00
1847.00,98.04
1846.00,98.08
1845.00,98.11
1844.00,98.12
1843.00,98.12
1842.00,98.11
1841.00,98.09
1840.00,98.09
1839.00,98.09
1838.00,98.11
1837.00,98.13
1836.00,98.15
1835.00,98.17
1834.00,98.19
1833.00,98.20
1832.00,98.20
1831.00,98.21
1830.00,98.21
1829.00,98.21
1828.00,98.20
1827.00,98.18
1826.00,98.17
1825.00,98.16
1824.00,98.17
1823.00,98.19
1822.00,98.21
1821.00,98.22
1820.00,98.23
1819.00,98.24
1818.00,98.26
1817.00,98.28
1816.00,98.30
1815.00,98.30
1814.00,98.29
1813.00,98.28
1812.00,98.28
1811.00,98.29
1810.00,98.29
1809.00,98.30
1808.00,98.30
1807.00,98.32
1806.00,98.32
1805.00,98.32
1804.00,98.33
1803.00,98.35
1802.00,98.36
1801.00,98.37
1800.00,98.36
1799.00,98.34
1798.00,98.33
1797.00,98.31
1796.00,98.30
1795.00,98.30
1794.00,98.31
1793.00,98.33
1792.00,98.36
1791.00,98.37
1790.00,98.36
1789.00,98.34
1788.00,98.32
1787.00,98.31
1786.00,98.31
1785.00,98.32
1784.00,98.33
1783.00,98.34
1782.00,98.35
1781.00,98.35
1780.00,98.35
1779.00,98.35
1778.00,98.35
1777.00,98.34
1776.00,98.34
1775.00,98.33
1774.00,98.31
1773.00,98.29
1772.00,98.28
1771.00,98.30
1770.00,98.31
1769.00,98.31
1768.00,98.30
1767.00,98.29
1766.00,98.28
1765.00,98.27
1764.00,98.25
1763.00,98.23
1762.00,98.22
1761.00,98.21
1760.00,98.18
1759.00,98.17
1758.00,98.15
1757.00,98.14
1756.00,98.12
1755.00,98.10
1754.00,98.09
1753.00,98.09
1752.00,98.08
1751.00,98.08
1750.00,98.07
1749.00,98.04
1748.00,98.01
1747.00,97.96
1746.00,97.92
1745.00,97.88
1744.00,97.85
1743.00,97.82
1742.00,97.79
1741.00,97.75
1740.00,97.71
1739.00,97.69
1738.00,97.68
1737.00,97.66
1736.00,97.64
1735.00,97.63
1734.00,97.63
1733.00,97.64
1732.00,97.64
1731.00,97.66
1730.00,97.67
1729.00,97.68
1728.00,97.69
1727.00,97.69
1726.00,97.69
1725.00,97.68
1724.00,97.69
1723.00,97.70
1722.00,97.73
1721.00,97.74
1720.00,97.74
1719.00,97.75
1718.00,97.74
1717.00,97.72
1716.00,97.70
1715.00,97.69
1714.00,97.70
1713.00,97.70
1712.00,97.69
1711.00,97.69
1710.00,97.69
1709.00,97.68
1708.00,97.67
1707.00,97.66
1706.00,97.64
1705.00,97.64
1704.00,97.63
1703.00,97.63
1702.00,97.63
1701.00,97.63
1700.00,97.63
1699.00,97.63
1698.00,97.63
1697.00,97.62
1696.00,97.62
1695.00,97.60
1694.00,97.56
1693.00,97.50
1692.00,97.43
1691.00,97.36
1690.00,97.29
1689.00,97.20
1688.00,97.08
1687.00,96.95
1686.00,96.80
1685.00,96.59
1684.00,96.32
1683.00,96.07
1682.00,95.86
1681.00,95.63
1680.00,95.38
1679.00,95.13
1678.00,94.87
1677.00,94.59
1676.00,94.24
1675.00,93.86
1674.00,93.51
1673.00,93.20
1672.00,92.89
1671.00,92.53
1670.00,92.11
1669.00,91.63
1668.00,91.16
1667.00,90.73
1666.00,90.32
1665.00,89.87
1664.00,89.31
1663.00,88.67
1662.00,88.02
1661.00,87.42
1660.00,86.87
1659.00,86.33
1658.00,85.83
1657.00,85.35
1656.00,84.89
1655.00,84.35
1654.00,83.50
1653.00,82.29
1652.00,81.23
1651.00,80.57
1650.00,80.09
1649.00,79.52
1648.00,78.67
1647.00,77.55
1646.00,76.37
1645.00,75.35
1644.00,74.47
1643.00,73.66
1642.00,72.88
1641.00,72.11
1640.00,71.38
1639.00,70.74
1638.00,70.18
1637.00,69.59
1636.00,68.93
1635.00,68.36
1634.00,68.07
1633.00,68.02
1632.00,68.14
1631.00,68.40
1630.00,68.79
1629.00,69.31
1628.00,69.91
1627.00,70.53
1626.00,71.15
1625.00,71.81
1624.00,72.55
1623.00,73.35
1622.00,74.12
1621.00,74.83
1620.00,75.49
1619.00,76.19
1618.00,77.01
1617.00,77.97
1616.00,78.93
1615.00,79.76
1614.00,80.44
1613.00,81.07
1612.00,81.70
1611.00,82.33
1610.00,82.91
1609.00,83.46
1608.00,83.98
1607.00,84.50
1606.00,85.00
1605.00,85.51
1604.00,86.06
1603.00,86.61
1602.00,87.11
1601.00,87.56
1600.00,87.98
1599.00,88.36
1598.00,88.68
1597.00,88.97
1596.00,89.23
1595.00,89.47
1594.00,89.65
1593.00,89.78
1592.00,89.91
1591.00,90.00
1590.00,90.05
1589.00,90.08
1588.00,90.09
1587.00,90.07
1586.00,90.00
1585.00,89.90
1584.00,89.79
1583.00,89.66
1582.00,89.49
1581.00,89.29
1580.00,89.10
1579.00,88.90
1578.00,88.63
1577.00,88.26
1576.00,87.85
1575.00,87.48
1574.00,87.15
1573.00,86.86
1572.00,86.56
1571.00,86.19
1570.00,85.71
1569.00,85.19
1568.00,84.76
1567.00,84.37
1566.00,83.96
1565.00,83.50
1564.00,83.06
1563.00,82.70
1562.00,82.39
1561.00,82.05
1560.00,81.51
1559.00,80.73
1558.00,80.00
1557.00,79.54
1556.00,79.20
1555.00,78.83
1554.00,78.40
1553.00,77.97
1552.00,77.57
1551.00,77.15
1550.00,76.65
1549.00,76.13
1548.00,75.64
1547.00,75.18
1546.00,74.66
1545.00,74.06
1544.00,73.46
1543.00,72.91
1542.00,72.35
1541.00,71.64
1540.00,70.77
1539.00,69.97
1538.00,69.43
1537.00,69.11
1536.00,68.90
1535.00,68.67
1534.00,68.42
1533.00,68.22
1532.00,68.17
1531.00,68.27
1530.00,68.50
1529.00,68.83
1528.00,69.25
1527.00,69.76
1526.00,70.33
1525.00,70.92
1524.00,71.52
1523.00,72.18
1522.00,72.96
1521.00,73.79
1520.00,74.52
1519.00,75.17
1518.00,75.86
1517.00,76.60
1516.00,77.32
1515.00,77.95
1514.00,78.55
1513.00,79.14
1512.00,79.72
1511.00,80.28
1510.00,80.80
1509.00,81.31
1508.00,81.85
1507.00,82.49
1506.00,83.11
1505.00,83.58
1504.00,83.94
1503.00,84.28
1502.00,84.65
1501.00,85.03
1500.00,85.38
1499.00,85.71
1498.00,86.05
1497.00,86.39
1496.00,86.71
1495.00,87.00
1494.00,87.26
1493.00,87.49
1492.00,87.70
1491.00,87.90
1490.00,88.10
1489.00,88.24
1488.00,88.32
1487.00,88.35
1486.00,88.34
1485.00,88.23
1484.00,88.01
1483.00,87.66
1482.00,87.18
1481.00,86.58
1480.00,85.90
1479.00,85.21
1478.00,84.53
1477.00,83.87
1476.00,83.30
1475.00,82.93
1474.00,82.85
1473.00,83.03
1472.00,83.36
1471.00,83.63
1470.00,83.73
1469.00,83.63
1468.00,83.35
1467.00,82.92
1466.00,82.45
1465.00,82.08
1464.00,81.95
1463.00,82.08
1462.00,82.37
1461.00,82.73
1460.00,83.11
1459.00,83.48
1458.00,83.86
1457.00,84.22
1456.00,84.52
1455.00,84.77
1454.00,85.00
1453.00,85.23
1452.00,85.46
1451.00,85.66
1450.00,85.83
1449.00,85.96
1448.00,86.04
1447.00,86.06
1446.00,86.05
1445.00,86.01
1444.00,85.94
1443.00,85.85
1442.00,85.77
1441.00,85.69
1440.00,85.62
1439.00,85.54
1438.00,85.48
1437.00,85.42
1436.00,85.38
1435.00,85.41
1434.00,85.50
1433.00,85.65
1432.00,85.83
1431.00,86.03
1430.00,86.24
1429.00,86.41
1428.00,86.53
1427.00,86.58
1426.00,86.59
1425.00,86.51
1424.00,86.34
1423.00,86.11
1422.00,85.83
1421.00,85.46
1420.00,84.89
1419.00,84.19
1418.00,83.60
1417.00,83.32
1416.00,83.38
1415.00,83.74
1414.00,84.35
1413.00,85.10
1412.00,85.89
1411.00,86.63
1410.00,87.28
1409.00,87.82
1408.00,88.25
1407.00,88.59
1406.00,88.89
1405.00,89.16
1404.00,89.38
1403.00,89.54
1402.00,89.65
1401.00,89.72
1400.00,89.76
1399.00,89.77
1398.00,89.77
1397.00,89.74
1396.00,89.68
1395.00,89.55
1394.00,89.40
1393.00,89.25
1392.00,89.11
1391.00,88.96
1390.00,88.80
1389.00,88.64
1388.00,88.46
1387.00,88.30
1386.00,88.15
1385.00,88.03
1384.00,87.91
1383.00,87.77
1382.00,87.60
1381.00,87.40
1380.00,87.16
1379.00,86.90
1378.00,86.62
1377.00,86.33
1376.00,86.02
1375.00,85.68
1374.00,85.34
1373.00,85.06
1372.00,84.89
1371.00,84.81
1370.00,84.81
1369.00,84.86
1368.00,84.95
1367.00,85.07
1366.00,85.21
1365.00,85.39
1364.00,85.58
1363.00,85.76
1362.00,85.93
1361.00,86.09
1360.00,86.24
1359.00,86.39
1358.00,86.54
1357.00,86.70
1356.00,86.86
1355.00,87.03
1354.00,87.20
1353.00,87.36
1352.00,87.53
1351.00,87.69
1350.00,87.86
1349.00,88.03
1348.00,88.18
1347.00,88.32
1346.00,88.45
1345.00,88.58
1344.00,88.71
1343.00,88.83
1342.00,88.92
1341.00,88.99
1340.00,89.04
1339.00,89.09
1338.00,89.14
1337.00,89.20
1336.00,89.26
1335.00,89.30
1334.00,89.34
1333.00,89.36
1332.00,89.36
1331.00,89.35
1330.00,89.34
1329.00,89.33
1328.00,89.35
1327.00,89.38
1326.00,89.44
1325.00,89.51
1324.00,89.58
1323.00,89.64
1322.00,89.70
1321.00,89.74
1320.00,89.77
1319.00,89.79
1318.00,89.79
1317.00,89.78
1316.00,89.75
1315.00,89.70
1314.00,89.63
1313.00,89.53
1312.00,89.42
1311.00,89.31
1310.00,89.19
1309.00,89.08
1308.00,88.96
1307.00,88.84
1306.00,88.71
1305.00,88.59
1304.00,88.49
1303.00,88.40
1302.00,88.35
1301.00,88.32
1300.00,88.32
1299.00,88.32
1298.00,88.32
1297.00,88.30
1296.00,88.28
1295.00,88.23
1294.00,88.17
1293.00,88.08
1292.00,87.98
1291.00,87.87
1290.00,87.74
1289.00,87.56
1288.00,87.32
1287.00,87.01
1286.00,86.67
1285.00,86.30
1284.00,85.90
1283.00,85.46
1282.00,84.97
1281.00,84.44
1280.00,83.88
1279.00,83.33
1278.00,82.81
1277.00,82.35
1276.00,81.98
1275.00,81.71
1274.00,81.55
1273.00,81.48
1272.00,81.48
1271.00,81.55
1270.00,81.68
1269.00,81.84
1268.00,82.04
1267.00,82.27
1266.00,82.52
1265.00,82.77
1264.00,83.02
1263.00,83.27
1262.00,83.53
1261.00,83.78
1260.00,84.01
1259.00,84.23
1258.00,84.44
1257.00,84.65
1256.00,84.84
1255.00,85.03
1254.00,85.21
1253.00,85.38
1252.00,85.52
1251.00,85.65
1250.00,85.78
1249.00,85.91
1248.00,86.02
1247.00,86.14
1246.00,86.26
1245.00,86.37
1244.00,86.46
1243.00,86.53
1242.00,86.60
1241.00,86.66
1240.00,86.73
1239.00,86.81
1238.00,86.91
1237.00,87.01
1236.00,87.12
1235.00,87.23
1234.00,87.36
1233.00,87.50
1232.00,87.64
1231.00,87.77
1230.00,87.90
1229.00,87.99
1228.00,88.05
1227.00,88.07
1226.00,88.06
1225.00,88.05
1224.00,88.09
1223.00,88.20
1222.00,88.38
1221.00,88.61
1220.00,88.84
1219.00,89.03
1218.00,89.17
1217.00,89.24
1216.00,89.27
1215.00,89.27
1214.00,89.25
1213.00,89.22
1212.00,89.16
1211.00,89.07
1210.00,88.91
1209.00,88.70
1208.00,88.41
1207.00,88.04
1206.00,87.60
1205.00,87.06
1204.00,86.43
1203.00,85.71
1202.00,84.95
1201.00,84.21
1200.00,83.55
1199.00,83.05
1198.00,82.80
1197.00,82.83
1196.00,83.12
1195.00,83.61
1194.00,84.21
1193.00,84.84
1192.00,85.44
1191.00,85.96
1190.00,86.39
1189.00,86.71
1188.00,86.91
1187.00,87.02
1186.00,87.03
1185.00,86.96
1184.00,86.82
1183.00,86.64
1182.00,86.48
1181.00,86.37
1180.00,86.32
1179.00,86.37
1178.00,86.53
1177.00,86.80
1176.00,87.14
1175.00,87.54
1174.00,87.94
1173.00,88.33
1172.00,88.69
1171.00,89.01
1170.00,89.30
1169.00,89.56
1168.00,89.78
1167.00,89.97
1166.00,90.12
1165.00,90.25
1164.00,90.33
1163.00,90.38
1162.00,90.40
1161.00,90.40
1160.00,90.39
1159.00,90.36
1158.00,90.30
1157.00,90.19
1156.00,90.03
1155.00,89.87
1154.00,89.71
1153.00,89.56
1152.00,89.42
1151.00,89.27
1150.00,89.10
1149.00,88.95
1148.00,88.83
1147.00,88.76
1146.00,88.73
1145.00,88.70
1144.00,88.66
1143.00,88.61
1142.00,88.56
1141.00,88.53
1140.00,88.52
1139.00,88.57
1138.00,88.68
1137.00,88.86
1136.00,89.12
1135.00,89.41
1134.00,89.71
1133.00,89.99
1132.00,90.25
1131.00,90.46
1130.00,90.64
1129.00,90.79
1128.00,90.91
1127.00,91.03
1126.00,91.14
1125.00,91.22
1124.00,91.28
1123.00,91.33
1122.00,91.37
1121.00,91.42
1120.00,91.46
1119.00,91.50
1118.00,91.53
1117.00,91.55
1116.00,91.57
1115.00,91.60
1114.00,91.62
1113.00,91.63
1112.00,91.63
1111.00,91.63
1110.00,91.65
1109.00,91.68
1108.00,91.69
1107.00,91.70
1106.00,91.71
1105.00,91.73
1104.00,91.76
1103.00,91.80
1102.00,91.84
1101.00,91.86
1100.00,91.85
1099.00,91.80
1098.00,91.76
1097.00,91.74
1096.00,91.76
1095.00,91.79
1094.00,91.84
1093.00,91.89
1092.00,91.95
1091.00,92.00
1090.00,92.04
1089.00,92.07
1088.00,92.08
1087.00,92.09
1086.00,92.13
1085.00,92.20
1084.00,92.28
1083.00,92.36
1082.00,92.43
1081.00,92.47
1080.00,92.49
1079.00,92.50
1078.00,92.53
1077.00,92.56
1076.00,92.57
1075.00,92.56
1074.00,92.52
1073.00,92.47
1072.00,92.42
1071.00,92.35
1070.00,92.28
1069.00,92.21
1068.00,92.14
1067.00,92.09
1066.00,92.05
1065.00,92.02
1064.00,92.00
1063.00,92.00
1062.00,92.03
1061.00,92.08
1060.00,92.12
1059.00,92.14
1058.00,92.17
1057.00,92.21
1056.00,92.26
1055.00,92.29
1054.00,92.31
1053.00,92.30
1052.00,92.28
1051.00,92.26
1050.00,92.24
1049.00,92.24
1048.00,92.24
1047.00,92.22
1046.00,92.18
1045.00,92.15
1044.00,92.12
1043.00,92.12
1042.00,92.12
1041.00,92.12
1040.00,92.12
1039.00,92.14
1038.00,92.18
1037.00,92.25
1036.00,92.32
1035.00,92.38
1034.00,92.44
1033.00,92.50
1032.00,92.57
1031.00,92.65
1030.00,92.72
1029.00,92.79
1028.00,92.83
1027.00,92.87
1026.00,92.92
1025.00,92.98
1024.00,93.03
1023.00,93.04
1022.00,93.04
1021.00,93.01
1020.00,92.99
1019.00,92.98
1018.00,93.00
1017.00,93.03
1016.00,93.05
1015.00,93.05
1014.00,93.03
1013.00,93.01
1012.00,93.01
1011.00,93.04
1010.00,93.09
1009.00,93.14
1008.00,93.19
1007.00,93.22
1006.00,93.25
1005.00,93.28
1004.00,93.32
1003.00,93.36
1002.00,93.40
1001.00,93.44
1000.00,93.46
999.00,93.47
998.00,93.47
997.00,93.47
996.00,93.48
995.00,93.51
994.00,93.55
993.00,93.61
992.00,93.65
991.00,93.66
990.00,93.66
989.00,93.67
988.00,93.68
987.00,93.70
986.00,93.73
985.00,93.77
984.00,93.83
983.00,93.90
982.00,93.98
981.00,94.06
980.00,94.12
979.00,94.15
978.00,94.16
977.00,94.16
976.00,94.15
975.00,94.15
974.00,94.16
973.00,94.18
972.00,94.20
971.00,94.20
970.00,94.19
969.00,94.17
968.00,94.16
967.00,94.15
966.00,94.15
965.00,94.14
964.00,94.12
963.00,94.09
962.00,94.05
961.00,94.00
960.00,93.96
959.00,93.92
958.00,93.89
957.00,93.86
956.00,93.83
955.00,93.78
954.00,93.75
953.00,93.72
952.00,93.67
951.00,93.60
950.00,93.50
949.00,93.39
948.00,93.28
947.00,93.16
946.00,93.02
945.00,92.84
944.00,92.62
943.00,92.35
942.00,92.02
941.00,91.59
940.00,91.08
939.00,90.51
938.00,89.91
937.00,89.36
936.00,88.94
935.00,88.70
934.00,88.68
933.00,88.86
932.00,89.17
931.00,89.55
930.00,89.95
929.00,90.33
928.00,90.68
927.00,90.99
926.00,91.26
925.00,91.48
924.00,91.66
923.00,91.81
922.00,91.96
921.00,92.11
920.00,92.26
919.00,92.38
918.00,92.48
917.00,92.56
916.00,92.63
915.00,92.71
914.00,92.78
913.00,92.82
912.00,92.83
911.00,92.79
910.00,92.71
909.00,92.61
908.00,92.49
907.00,92.41
906.00,92.38
905.00,92.42
904.00,92.51
903.00,92.64
902.00,92.79
901.00,92.97
900.00,93.14
899.00,93.29
898.00,93.42
897.00,93.51
896.00,93.58
895.00,93.64
894.00,93.69
893.00,93.73
892.00,93.76
891.00,93.78
890.00,93.80
889.00,93.83
888.00,93.84
887.00,93.85
886.00,93.85
885.00,93.85
884.00,93.87
883.00,93.89
882.00,93.90
881.00,93.90
880.00,93.92
879.00,93.95
878.00,93.99
877.00,94.03
876.00,94.04
875.00,94.05
874.00,94.08
873.00,94.11
872.00,94.13
871.00,94.13
870.00,94.13
869.00,94.13
868.00,94.13
867.00,94.13
866.00,94.14
865.00,94.14
864.00,94.11
863.00,94.08
862.00,94.06
861.00,94.07
860.00,94.09
859.00,94.10
858.00,94.10
857.00,94.10
856.00,94.10
855.00,94.09
854.00,94.09
853.00,94.10
852.00,94.09
851.00,94.08
850.00,94.07
849.00,94.04
848.00,94.01
847.00,93.97
846.00,93.94
845.00,93.92
844.00,93.92
843.00,93.91
842.00,93.89
841.00,93.87
840.00,93.84
839.00,93.82
838.00,93.80
837.00,93.79
836.00,93.78
835.00,93.77
834.00,93.76
833.00,93.76
832.00,93.76
831.00,93.75
830.00,93.72
829.00,93.70
828.00,93.68
827.00,93.67
826.00,93.66
825.00,93.64
824.00,93.60
823.00,93.56
822.00,93.53
821.00,93.51
820.00,93.46
819.00,93.39
818.00,93.30
817.00,93.23
816.00,93.21
815.00,93.22
814.00,93.25
813.00,93.26
812.00,93.24
811.00,93.19
810.00,93.11
809.00,93.03
808.00,92.95
807.00,92.89
806.00,92.84
805.00,92.78
804.00,92.69
803.00,92.58
802.00,92.49
801.00,92.44
800.00,92.40
799.00,92.35
798.00,92.29
797.00,92.22
796.00,92.18
795.00,92.18
794.00,92.18
793.00,92.16
792.00,92.11
791.00,92.05
790.00,92.03
789.00,92.03
788.00,92.01
787.00,91.96
786.00,91.91
785.00,91.88
784.00,91.85
783.00,91.83
782.00,91.79
781.00,91.73
780.00,91.66
779.00,91.57
778.00,91.49
777.00,91.42
776.00,91.37
775.00,91.32
774.00,91.26
773.00,91.18
772.00,91.07
771.00,90.95
770.00,90.84
769.00,90.75
768.00,90.66
767.00,90.57
766.00,90.48
765.00,90.39
764.00,90.30
763.00,90.22
762.00,90.15
761.00,90.10
760.00,90.03
759.00,89.95
758.00,89.85
757.00,89.73
756.00,89.63
755.00,89.54
754.00,89.47
753.00,89.38
752.00,89.27
751.00,89.12
750.00,89.00
749.00,88.91
748.00,88.85
747.00,88.81
746.00,88.76
745.00,88.71
744.00,88.64
743.00,88.53
742.00,88.39
741.00,88.21
740.00,87.97
739.00,87.66
738.00,87.28
737.00,86.85
736.00,86.40
735.00,85.97
734.00,85.55
733.00,85.11
732.00,84.64
731.00,84.20
730.00,83.85
729.00,83.62
728.00,83.48
727.00,83.40
726.00,83.37
725.00,83.38
724.00,83.44
723.00,83.51
722.00,83.57
721.00,83.60
720.00,83.60
719.00,83.58
718.00,83.56
717.00,83.52
716.00,83.44
715.00,83.34
714.00,83.23
713.00,83.11
712.00,83.00
711.00,82.89
710.00,82.81
709.00,82.75
708.00,82.68
707.00,82.58
706.00,82.45
705.00,82.30
704.00,82.12
703.00,81.92
702.00,81.70
701.00,81.47
700.00,81.23
699.00,80.99
698.00,80.72
697.00,80.41
696.00,80.06
695.00,79.73
694.00,79.42
693.00,79.13
692.00,78.88
691.00,78.70
690.00,78.59
689.00,78.51
688.00,78.38
687.00,78.24
686.00,78.13
685.00,78.09
684.00,78.08
683.00,78.08
682.00,78.08
681.00,78.10
680.00,78.13
679.00,78.17
678.00,78.23
677.00,78.31
676.00,78.43
675.00,78.60
674.00,78.77
673.00,78.94
672.00,79.10
671.00,79.28
670.00,79.48
669.00,79.71
668.00,79.91
667.00,80.07
666.00,80.23
665.00,80.37
664.00,80.48
663.00,80.61
662.00,80.80
661.00,81.04
660.00,81.28
659.00,81.48
658.00,81.62
657.00,81.75
656.00,81.89
655.00,82.03
654.00,82.13
653.00,82.17
652.00,82.16
651.00,82.18
650.00,82.29
649.00,82.47
648.00,82.68
647.00,82.88
646.00,83.05
645.00,83.21
644.00,83.36
643.00,83.51
642.00,83.62
641.00,83.63
640.00,83.55
639.00,83.45
638.00,83.40
637.00,83.43
636.00,83.52
635.00,83.62
634.00,83.66
633.00,83.64
632.00,83.61
631.00,83.68
630.00,83.84
629.00,83.99
628.00,84.05
627.00,84.07
626.00,84.13
625.00,84.26
624.00,84.37
623.00,84.42
622.00,84.39
621.00,84.29
620.00,84.14
619.00,84.05
618.00,84.13
617.00,84.33
616.00,84.50
615.00,84.50
614.00,84.38
613.00,84.23
612.00,84.13
611.00,84.10
610.00,84.11
609.00,84.05
608.00,83.86
607.00,83.59
606.00,83.40
605.00,83.37
604.00,83.43
603.00,83.42
602.00,83.24
601.00,83.00
600.00,82.87
599.00,82.94
598.00,83.04
597.00,82.95
596.00,82.64
595.00,82.28
594.00,82.00
593.00,81.79
592.00,81.65
591.00,81.57
590.00,81.45
589.00,81.08
588.00,80.45
587.00,79.85
586.00,79.51
585.00,79.30
584.00,78.95
583.00,78.39
582.00,77.75
581.00,77.08
580.00,76.45
579.00,76.05
578.00,75.96
577.00,76.01
576.00,76.15
575.00,76.69
574.00,77.68
573.00,78.57
572.00,78.89
571.00,78.65
570.00,78.21
569.00,77.79
568.00,77.59
567.00,77.85
566.00,78.51
565.00,79.05
564.00,79.13
563.00,79.05
562.00,79.39
561.00,80.11
560.00,80.69
559.00,80.69
558.00,80.22
557.00,79.69
556.00,79.48
555.00,79.84
554.00,80.65
553.00,81.44
552.00,81.79
551.00,81.70
550.00,81.49
