Created as New Dataset,74 Nylon Allied Signal Fibers 
cm-1,%T
4000.00,102.37
3999.00,102.36
3998.00,102.32
3997.00,102.28
3996.00,102.25
3995.00,102.24
3994.00,102.25
3993.00,102.26
3992.00,102.27
3991.00,102.26
3990.00,102.24
3989.00,102.23
3988.00,102.21
3987.00,102.21
3986.00,102.23
3985.00,102.26
3984.00,102.29
3983.00,102.33
3982.00,102.35
3981.00,102.36
3980.00,102.35
3979.00,102.33
3978.00,102.30
3977.00,102.27
3976.00,102.26
3975.00,102.26
3974.00,102.27
3973.00,102.28
3972.00,102.28
3971.00,102.27
3970.00,102.26
3969.00,102.25
3968.00,102.26
3967.00,102.27
3966.00,102.27
3965.00,102.27
3964.00,102.27
3963.00,102.26
3962.00,102.25
3961.00,102.24
3960.00,102.24
3959.00,102.24
3958.00,102.25
3957.00,102.25
3956.00,102.25
3955.00,102.25
3954.00,102.26
3953.00,102.27
3952.00,102.28
3951.00,102.28
3950.00,102.28
3949.00,102.28
3948.00,102.28
3947.00,102.29
3946.00,102.30
3945.00,102.31
3944.00,102.31
3943.00,102.31
3942.00,102.29
3941.00,102.27
3940.00,102.24
3939.00,102.23
3938.00,102.22
3937.00,102.23
3936.00,102.25
3935.00,102.27
3934.00,102.28
3933.00,102.27
3932.00,102.24
3931.00,102.21
3930.00,102.20
3929.00,102.20
3928.00,102.22
3927.00,102.24
3926.00,102.25
3925.00,102.24
3924.00,102.23
3923.00,102.21
3922.00,102.20
3921.00,102.20
3920.00,102.22
3919.00,102.25
3918.00,102.28
3917.00,102.30
3916.00,102.29
3915.00,102.27
3914.00,102.24
3913.00,102.21
3912.00,102.18
3911.00,102.17
3910.00,102.17
3909.00,102.17
3908.00,102.17
3907.00,102.17
3906.00,102.17
3905.00,102.17
3904.00,102.16
3903.00,102.13
3902.00,102.10
3901.00,102.09
3900.00,102.11
3899.00,102.14
3898.00,102.16
3897.00,102.17
3896.00,102.17
3895.00,102.16
3894.00,102.15
3893.00,102.16
3892.00,102.18
3891.00,102.19
3890.00,102.18
3889.00,102.15
3888.00,102.14
3887.00,102.13
3886.00,102.14
3885.00,102.15
3884.00,102.14
3883.00,102.12
3882.00,102.12
3881.00,102.13
3880.00,102.13
3879.00,102.13
3878.00,102.12
3877.00,102.12
3876.00,102.13
3875.00,102.15
3874.00,102.16
3873.00,102.16
3872.00,102.14
3871.00,102.13
3870.00,102.12
3869.00,102.11
3868.00,102.10
3867.00,102.11
3866.00,102.13
3865.00,102.15
3864.00,102.16
3863.00,102.16
3862.00,102.14
3861.00,102.11
3860.00,102.09
3859.00,102.07
3858.00,102.05
3857.00,102.02
3856.00,102.00
3855.00,101.99
3854.00,102.00
3853.00,102.01
3852.00,102.03
3851.00,102.06
3850.00,102.09
3849.00,102.12
3848.00,102.14
3847.00,102.15
3846.00,102.15
3845.00,102.16
3844.00,102.16
3843.00,102.15
3842.00,102.12
3841.00,102.10
3840.00,102.08
3839.00,102.07
3838.00,102.06
3837.00,102.06
3836.00,102.05
3835.00,102.05
3834.00,102.07
3833.00,102.09
3832.00,102.12
3831.00,102.13
3830.00,102.13
3829.00,102.12
3828.00,102.11
3827.00,102.12
3826.00,102.11
3825.00,102.10
3824.00,102.07
3823.00,102.05
3822.00,102.04
3821.00,102.02
3820.00,102.00
3819.00,101.99
3818.00,102.01
3817.00,102.05
3816.00,102.10
3815.00,102.12
3814.00,102.13
3813.00,102.12
3812.00,102.12
3811.00,102.11
3810.00,102.10
3809.00,102.09
3808.00,102.08
3807.00,102.06
3806.00,102.02
3805.00,101.97
3804.00,101.95
3803.00,101.98
3802.00,102.04
3801.00,102.08
3800.00,102.07
3799.00,102.04
3798.00,102.01
3797.00,101.99
3796.00,101.99
3795.00,101.99
3794.00,102.01
3793.00,102.03
3792.00,102.07
3791.00,102.09
3790.00,102.10
3789.00,102.10
3788.00,102.08
3787.00,102.07
3786.00,102.07
3785.00,102.07
3784.00,102.05
3783.00,102.02
3782.00,102.00
3781.00,102.00
3780.00,102.04
3779.00,102.08
3778.00,102.12
3777.00,102.14
3776.00,102.15
3775.00,102.14
3774.00,102.12
3773.00,102.08
3772.00,102.04
3771.00,102.02
3770.00,102.01
3769.00,102.00
3768.00,101.98
3767.00,101.96
3766.00,101.97
3765.00,101.98
3764.00,102.00
3763.00,102.00
3762.00,102.00
3761.00,101.99
3760.00,101.99
3759.00,101.98
3758.00,101.97
3757.00,101.96
3756.00,101.94
3755.00,101.91
3754.00,101.88
3753.00,101.87
3752.00,101.87
3751.00,101.87
3750.00,101.87
3749.00,101.85
3748.00,101.82
3747.00,101.80
3746.00,101.81
3745.00,101.85
3744.00,101.88
3743.00,101.90
3742.00,101.90
3741.00,101.90
3740.00,101.90
3739.00,101.90
3738.00,101.91
3737.00,101.92
3736.00,101.93
3735.00,101.94
3734.00,101.95
3733.00,101.97
3732.00,101.98
3731.00,101.98
3730.00,101.97
3729.00,101.97
3728.00,101.98
3727.00,101.98
3726.00,101.98
3725.00,101.97
3724.00,101.96
3723.00,101.95
3722.00,101.94
3721.00,101.94
3720.00,101.93
3719.00,101.92
3718.00,101.92
3717.00,101.92
3716.00,101.91
3715.00,101.90
3714.00,101.89
3713.00,101.89
3712.00,101.89
3711.00,101.90
3710.00,101.91
3709.00,101.93
3708.00,101.95
3707.00,101.96
3706.00,101.98
3705.00,102.00
3704.00,102.01
3703.00,102.01
3702.00,101.99
3701.00,101.98
3700.00,101.98
3699.00,101.99
3698.00,102.01
3697.00,102.01
3696.00,102.00
3695.00,101.97
3694.00,101.94
3693.00,101.91
3692.00,101.90
3691.00,101.91
3690.00,101.91
3689.00,101.91
3688.00,101.90
3687.00,101.90
3686.00,101.90
3685.00,101.92
3684.00,101.94
3683.00,101.96
3682.00,101.96
3681.00,101.94
3680.00,101.90
3679.00,101.84
3678.00,101.78
3677.00,101.75
3676.00,101.75
3675.00,101.76
3674.00,101.76
3673.00,101.76
3672.00,101.76
3671.00,101.76
3670.00,101.75
3669.00,101.73
3668.00,101.74
3667.00,101.77
3666.00,101.82
3665.00,101.87
3664.00,101.91
3663.00,101.93
3662.00,101.94
3661.00,101.93
3660.00,101.90
3659.00,101.87
3658.00,101.85
3657.00,101.83
3656.00,101.80
3655.00,101.76
3654.00,101.71
3653.00,101.68
3652.00,101.68
3651.00,101.69
3650.00,101.68
3649.00,101.66
3648.00,101.66
3647.00,101.69
3646.00,101.74
3645.00,101.78
3644.00,101.81
3643.00,101.82
3642.00,101.82
3641.00,101.83
3640.00,101.85
3639.00,101.85
3638.00,101.85
3637.00,101.82
3636.00,101.80
3635.00,101.79
3634.00,101.78
3633.00,101.77
3632.00,101.76
3631.00,101.75
3630.00,101.74
3629.00,101.73
3628.00,101.71
3627.00,101.71
3626.00,101.73
3625.00,101.75
3624.00,101.74
3623.00,101.72
3622.00,101.69
3621.00,101.68
3620.00,101.68
3619.00,101.67
3618.00,101.64
3617.00,101.63
3616.00,101.64
3615.00,101.67
3614.00,101.70
3613.00,101.70
3612.00,101.68
3611.00,101.64
3610.00,101.61
3609.00,101.62
3608.00,101.64
3607.00,101.66
3606.00,101.68
3605.00,101.69
3604.00,101.69
3603.00,101.68
3602.00,101.65
3601.00,101.61
3600.00,101.60
3599.00,101.60
3598.00,101.60
3597.00,101.61
3596.00,101.62
3595.00,101.62
3594.00,101.61
3593.00,101.58
3592.00,101.54
3591.00,101.51
3590.00,101.50
3589.00,101.49
3588.00,101.47
3587.00,101.46
3586.00,101.44
3585.00,101.44
3584.00,101.45
3583.00,101.47
3582.00,101.49
3581.00,101.51
3580.00,101.52
3579.00,101.52
3578.00,101.50
3577.00,101.48
3576.00,101.45
3575.00,101.43
3574.00,101.41
3573.00,101.38
3572.00,101.36
3571.00,101.33
3570.00,101.29
3569.00,101.27
3568.00,101.27
3567.00,101.27
3566.00,101.29
3565.00,101.30
3564.00,101.31
3563.00,101.31
3562.00,101.31
3561.00,101.30
3560.00,101.28
3559.00,101.27
3558.00,101.25
3557.00,101.25
3556.00,101.26
3555.00,101.25
3554.00,101.23
3553.00,101.18
3552.00,101.13
3551.00,101.09
3550.00,101.07
3549.00,101.07
3548.00,101.08
3547.00,101.10
3546.00,101.11
3545.00,101.12
3544.00,101.11
3543.00,101.09
3542.00,101.05
3541.00,101.02
3540.00,101.01
3539.00,101.02
3538.00,101.05
3537.00,101.06
3536.00,101.05
3535.00,101.02
3534.00,100.98
3533.00,100.95
3532.00,100.93
3531.00,100.91
3530.00,100.89
3529.00,100.87
3528.00,100.85
3527.00,100.85
3526.00,100.84
3525.00,100.82
3524.00,100.80
3523.00,100.78
3522.00,100.77
3521.00,100.75
3520.00,100.72
3519.00,100.69
3518.00,100.66
3517.00,100.65
3516.00,100.66
3515.00,100.66
3514.00,100.65
3513.00,100.61
3512.00,100.57
3511.00,100.54
3510.00,100.53
3509.00,100.55
3508.00,100.57
3507.00,100.58
3506.00,100.58
3505.00,100.55
3504.00,100.52
3503.00,100.49
3502.00,100.47
3501.00,100.46
3500.00,100.46
3499.00,100.48
3498.00,100.49
3497.00,100.50
3496.00,100.50
3495.00,100.48
3494.00,100.46
3493.00,100.44
3492.00,100.43
3491.00,100.44
3490.00,100.45
3489.00,100.45
3488.00,100.44
3487.00,100.41
3486.00,100.38
3485.00,100.35
3484.00,100.31
3483.00,100.28
3482.00,100.25
3481.00,100.24
3480.00,100.25
3479.00,100.27
3478.00,100.29
3477.00,100.30
3476.00,100.30
3475.00,100.30
3474.00,100.29
3473.00,100.30
3472.00,100.31
3471.00,100.31
3470.00,100.31
3469.00,100.30
3468.00,100.29
3467.00,100.27
3466.00,100.24
3465.00,100.21
3464.00,100.19
3463.00,100.18
3462.00,100.18
3461.00,100.17
3460.00,100.16
3459.00,100.15
3458.00,100.14
3457.00,100.12
3456.00,100.12
3455.00,100.12
3454.00,100.13
3453.00,100.13
3452.00,100.13
3451.00,100.12
3450.00,100.12
3449.00,100.12
3448.00,100.11
3447.00,100.09
3446.00,100.06
3445.00,100.04
3444.00,100.04
3443.00,100.07
3442.00,100.08
3441.00,100.07
3440.00,100.04
3439.00,99.99
3438.00,99.95
3437.00,99.94
3436.00,99.93
3435.00,99.93
3434.00,99.93
3433.00,99.93
3432.00,99.94
3431.00,99.96
3430.00,99.97
3429.00,99.98
3428.00,99.99
3427.00,99.99
3426.00,99.99
3425.00,99.98
3424.00,99.95
3423.00,99.93
3422.00,99.90
3421.00,99.88
3420.00,99.86
3419.00,99.83
3418.00,99.81
3417.00,99.80
3416.00,99.80
3415.00,99.79
3414.00,99.80
3413.00,99.80
3412.00,99.79
3411.00,99.77
3410.00,99.74
3409.00,99.72
3408.00,99.70
3407.00,99.68
3406.00,99.66
3405.00,99.65
3404.00,99.64
3403.00,99.64
3402.00,99.63
3401.00,99.61
3400.00,99.59
3399.00,99.57
3398.00,99.56
3397.00,99.54
3396.00,99.52
3395.00,99.50
3394.00,99.48
3393.00,99.45
3392.00,99.42
3391.00,99.40
3390.00,99.39
3389.00,99.38
3388.00,99.36
3387.00,99.34
3386.00,99.31
3385.00,99.27
3384.00,99.23
3383.00,99.18
3382.00,99.15
3381.00,99.11
3380.00,99.09
3379.00,99.06
3378.00,99.03
3377.00,98.98
3376.00,98.91
3375.00,98.83
3374.00,98.77
3373.00,98.72
3372.00,98.68
3371.00,98.64
3370.00,98.60
3369.00,98.54
3368.00,98.48
3367.00,98.42
3366.00,98.35
3365.00,98.28
3364.00,98.21
3363.00,98.14
3362.00,98.07
3361.00,98.00
3360.00,97.92
3359.00,97.85
3358.00,97.77
3357.00,97.69
3356.00,97.63
3355.00,97.56
3354.00,97.48
3353.00,97.39
3352.00,97.29
3351.00,97.20
3350.00,97.10
3349.00,96.99
3348.00,96.86
3347.00,96.72
3346.00,96.58
3345.00,96.46
3344.00,96.34
3343.00,96.23
3342.00,96.11
3341.00,95.98
3340.00,95.84
3339.00,95.72
3338.00,95.60
3337.00,95.48
3336.00,95.35
3335.00,95.21
3334.00,95.06
3333.00,94.90
3332.00,94.74
3331.00,94.57
3330.00,94.40
3329.00,94.23
3328.00,94.07
3327.00,93.91
3326.00,93.75
3325.00,93.59
3324.00,93.43
3323.00,93.27
3322.00,93.10
3321.00,92.91
3320.00,92.71
3319.00,92.50
3318.00,92.31
3317.00,92.13
3316.00,91.95
3315.00,91.77
3314.00,91.57
3313.00,91.37
3312.00,91.18
3311.00,91.00
3310.00,90.83
3309.00,90.66
3308.00,90.49
3307.00,90.31
3306.00,90.13
3305.00,89.96
3304.00,89.80
3303.00,89.64
3302.00,89.51
3301.00,89.40
3300.00,89.31
3299.00,89.25
3298.00,89.20
3297.00,89.17
3296.00,89.15
3295.00,89.14
3294.00,89.14
3293.00,89.16
3292.00,89.19
3291.00,89.25
3290.00,89.32
3289.00,89.39
3288.00,89.47
3287.00,89.55
3286.00,89.63
3285.00,89.70
3284.00,89.76
3283.00,89.81
3282.00,89.87
3281.00,89.94
3280.00,90.04
3279.00,90.15
3278.00,90.26
3277.00,90.37
3276.00,90.47
3275.00,90.58
3274.00,90.70
3273.00,90.81
3272.00,90.92
3271.00,91.03
3270.00,91.13
3269.00,91.24
3268.00,91.35
3267.00,91.46
3266.00,91.58
3265.00,91.71
3264.00,91.83
3263.00,91.95
3262.00,92.07
3261.00,92.19
3260.00,92.34
3259.00,92.51
3258.00,92.68
3257.00,92.84
3256.00,92.97
3255.00,93.10
3254.00,93.23
3253.00,93.37
3252.00,93.51
3251.00,93.65
3250.00,93.78
3249.00,93.91
3248.00,94.05
3247.00,94.18
3246.00,94.33
3245.00,94.46
3244.00,94.60
3243.00,94.73
3242.00,94.84
3241.00,94.95
3240.00,95.07
3239.00,95.19
3238.00,95.32
3237.00,95.45
3236.00,95.59
3235.00,95.73
3234.00,95.85
3233.00,95.97
3232.00,96.06
3231.00,96.14
3230.00,96.22
3229.00,96.30
3228.00,96.36
3227.00,96.42
3226.00,96.47
3225.00,96.54
3224.00,96.61
3223.00,96.67
3222.00,96.73
3221.00,96.78
3220.00,96.84
3219.00,96.90
3218.00,96.95
3217.00,97.00
3216.00,97.05
3215.00,97.11
3214.00,97.15
3213.00,97.20
3212.00,97.23
3211.00,97.26
3210.00,97.28
3209.00,97.31
3208.00,97.35
3207.00,97.39
3206.00,97.42
3205.00,97.45
3204.00,97.48
3203.00,97.52
3202.00,97.57
3201.00,97.60
3200.00,97.63
3199.00,97.65
3198.00,97.67
3197.00,97.72
3196.00,97.79
3195.00,97.86
3194.00,97.92
3193.00,97.96
3192.00,97.98
3191.00,97.99
3190.00,98.03
3189.00,98.08
3188.00,98.14
3187.00,98.21
3186.00,98.27
3185.00,98.32
3184.00,98.36
3183.00,98.41
3182.00,98.45
3181.00,98.48
3180.00,98.52
3179.00,98.56
3178.00,98.60
3177.00,98.65
3176.00,98.70
3175.00,98.76
3174.00,98.81
3173.00,98.86
3172.00,98.89
3171.00,98.93
3170.00,98.97
3169.00,99.00
3168.00,99.03
3167.00,99.06
3166.00,99.10
3165.00,99.14
3164.00,99.18
3163.00,99.21
3162.00,99.24
3161.00,99.27
3160.00,99.30
3159.00,99.34
3158.00,99.37
3157.00,99.42
3156.00,99.47
3155.00,99.50
3154.00,99.52
3153.00,99.53
3152.00,99.53
3151.00,99.54
3150.00,99.56
3149.00,99.58
3148.00,99.61
3147.00,99.62
3146.00,99.63
3145.00,99.64
3144.00,99.65
3143.00,99.67
3142.00,99.68
3141.00,99.70
3140.00,99.72
3139.00,99.72
3138.00,99.72
3137.00,99.70
3136.00,99.69
3135.00,99.68
3134.00,99.67
3133.00,99.65
3132.00,99.63
3131.00,99.61
3130.00,99.59
3129.00,99.58
3128.00,99.58
3127.00,99.56
3126.00,99.54
3125.00,99.50
3124.00,99.46
3123.00,99.43
3122.00,99.41
3121.00,99.40
3120.00,99.38
3119.00,99.36
3118.00,99.32
3117.00,99.28
3116.00,99.23
3115.00,99.19
3114.00,99.15
3113.00,99.12
3112.00,99.09
3111.00,99.06
3110.00,99.02
3109.00,98.96
3108.00,98.89
3107.00,98.83
3106.00,98.76
3105.00,98.68
3104.00,98.60
3103.00,98.54
3102.00,98.49
3101.00,98.46
3100.00,98.43
3099.00,98.39
3098.00,98.34
3097.00,98.29
3096.00,98.24
3095.00,98.18
3094.00,98.12
3093.00,98.07
3092.00,98.02
3091.00,97.98
3090.00,97.95
3089.00,97.92
3088.00,97.89
3087.00,97.85
3086.00,97.82
3085.00,97.79
3084.00,97.78
3083.00,97.79
3082.00,97.80
3081.00,97.81
3080.00,97.81
3079.00,97.81
3078.00,97.80
3077.00,97.79
3076.00,97.79
3075.00,97.79
3074.00,97.82
3073.00,97.85
3072.00,97.89
3071.00,97.92
3070.00,97.95
3069.00,97.99
3068.00,98.02
3067.00,98.06
3066.00,98.09
3065.00,98.12
3064.00,98.17
3063.00,98.23
3062.00,98.30
3061.00,98.36
3060.00,98.42
3059.00,98.46
3058.00,98.49
3057.00,98.54
3056.00,98.60
3055.00,98.69
3054.00,98.79
3053.00,98.89
3052.00,98.98
3051.00,99.04
3050.00,99.08
3049.00,99.11
3048.00,99.15
3047.00,99.21
3046.00,99.27
3045.00,99.35
3044.00,99.42
3043.00,99.48
3042.00,99.53
3041.00,99.57
3040.00,99.60
3039.00,99.61
3038.00,99.64
3037.00,99.68
3036.00,99.73
3035.00,99.79
3034.00,99.84
3033.00,99.87
3032.00,99.88
3031.00,99.89
3030.00,99.91
3029.00,99.94
3028.00,99.97
3027.00,99.99
3026.00,100.00
3025.00,100.02
3024.00,100.03
3023.00,100.04
3022.00,100.05
3021.00,100.07
3020.00,100.08
3019.00,100.10
3018.00,100.12
3017.00,100.13
3016.00,100.16
3015.00,100.19
3014.00,100.21
3013.00,100.22
3012.00,100.22
3011.00,100.19
3010.00,100.16
3009.00,100.15
3008.00,100.15
3007.00,100.16
3006.00,100.19
3005.00,100.21
3004.00,100.23
3003.00,100.22
3002.00,100.18
3001.00,100.13
3000.00,100.08
2999.00,100.04
2998.00,100.02
2997.00,100.01
2996.00,100.03
2995.00,100.06
2994.00,100.07
2993.00,100.04
2992.00,99.98
2991.00,99.88
2990.00,99.79
2989.00,99.70
2988.00,99.64
2987.00,99.60
2986.00,99.55
2985.00,99.49
2984.00,99.42
2983.00,99.33
2982.00,99.24
2981.00,99.12
2980.00,99.00
2979.00,98.89
2978.00,98.78
2977.00,98.67
2976.00,98.53
2975.00,98.36
2974.00,98.18
2973.00,97.99
2972.00,97.81
2971.00,97.64
2970.00,97.46
2969.00,97.29
2968.00,97.11
2967.00,96.91
2966.00,96.68
2965.00,96.44
2964.00,96.20
2963.00,95.97
2962.00,95.75
2961.00,95.52
2960.00,95.28
2959.00,95.04
2958.00,94.80
2957.00,94.56
2956.00,94.29
2955.00,93.98
2954.00,93.65
2953.00,93.28
2952.00,92.91
2951.00,92.56
2950.00,92.22
2949.00,91.90
2948.00,91.57
2947.00,91.24
2946.00,90.92
2945.00,90.62
2944.00,90.34
2943.00,90.08
2942.00,89.86
2941.00,89.66
2940.00,89.48
2939.00,89.31
2938.00,89.16
2937.00,89.02
2936.00,88.90
2935.00,88.80
2934.00,88.73
2933.00,88.71
2932.00,88.73
2931.00,88.78
2930.00,88.85
2929.00,88.94
2928.00,89.05
2927.00,89.18
2926.00,89.33
2925.00,89.50
2924.00,89.67
2923.00,89.87
2922.00,90.09
2921.00,90.31
2920.00,90.55
2919.00,90.79
2918.00,91.05
2917.00,91.32
2916.00,91.59
2915.00,91.85
2914.00,92.10
2913.00,92.32
2912.00,92.51
2911.00,92.68
2910.00,92.86
2909.00,93.03
2908.00,93.20
2907.00,93.36
2906.00,93.52
2905.00,93.68
2904.00,93.83
2903.00,93.96
2902.00,94.07
2901.00,94.17
2900.00,94.27
2899.00,94.38
2898.00,94.50
2897.00,94.61
2896.00,94.74
2895.00,94.86
2894.00,94.99
2893.00,95.13
2892.00,95.26
2891.00,95.37
2890.00,95.46
2889.00,95.52
2888.00,95.56
2887.00,95.57
2886.00,95.56
2885.00,95.53
2884.00,95.49
2883.00,95.43
2882.00,95.33
2881.00,95.20
2880.00,95.04
2879.00,94.86
2878.00,94.66
2877.00,94.46
2876.00,94.27
2875.00,94.06
2874.00,93.85
2873.00,93.63
2872.00,93.42
2871.00,93.21
2870.00,93.02
2869.00,92.84
2868.00,92.66
2867.00,92.51
2866.00,92.37
2865.00,92.26
2864.00,92.17
2863.00,92.09
2862.00,92.04
2861.00,92.03
2860.00,92.07
2859.00,92.16
2858.00,92.30
2857.00,92.49
2856.00,92.70
2855.00,92.92
2854.00,93.16
2853.00,93.42
2852.00,93.72
2851.00,94.07
2850.00,94.46
2849.00,94.88
2848.00,95.30
2847.00,95.71
2846.00,96.11
2845.00,96.48
2844.00,96.82
2843.00,97.15
2842.00,97.45
2841.00,97.72
2840.00,97.96
2839.00,98.15
2838.00,98.31
2837.00,98.46
2836.00,98.59
2835.00,98.70
2834.00,98.80
2833.00,98.88
2832.00,98.95
2831.00,99.03
2830.00,99.09
2829.00,99.15
2828.00,99.19
2827.00,99.22
2826.00,99.24
2825.00,99.27
2824.00,99.32
2823.00,99.37
2822.00,99.42
2821.00,99.46
2820.00,99.50
2819.00,99.52
2818.00,99.54
2817.00,99.56
2816.00,99.57
2815.00,99.60
2814.00,99.64
2813.00,99.68
2812.00,99.73
2811.00,99.77
2810.00,99.81
2809.00,99.84
2808.00,99.86
2807.00,99.88
2806.00,99.89
2805.00,99.91
2804.00,99.94
2803.00,99.97
2802.00,100.00
2801.00,100.03
2800.00,100.05
2799.00,100.06
2798.00,100.08
2797.00,100.10
2796.00,100.12
2795.00,100.15
2794.00,100.16
2793.00,100.16
2792.00,100.16
2791.00,100.15
2790.00,100.14
2789.00,100.15
2788.00,100.17
2787.00,100.19
2786.00,100.22
2785.00,100.24
2784.00,100.25
2783.00,100.27
2782.00,100.29
2781.00,100.30
2780.00,100.31
2779.00,100.32
2778.00,100.33
2777.00,100.34
2776.00,100.35
2775.00,100.36
2774.00,100.36
2773.00,100.36
2772.00,100.37
2771.00,100.38
2770.00,100.40
2769.00,100.43
2768.00,100.45
2767.00,100.47
2766.00,100.47
2765.00,100.45
2764.00,100.45
2763.00,100.45
2762.00,100.46
2761.00,100.48
2760.00,100.51
2759.00,100.52
2758.00,100.52
2757.00,100.51
2756.00,100.49
2755.00,100.48
2754.00,100.47
2753.00,100.47
2752.00,100.47
2751.00,100.49
2750.00,100.51
2749.00,100.53
2748.00,100.54
2747.00,100.54
2746.00,100.53
2745.00,100.53
2744.00,100.53
2743.00,100.53
2742.00,100.52
2741.00,100.52
2740.00,100.52
2739.00,100.53
2738.00,100.55
2737.00,100.56
2736.00,100.57
2735.00,100.57
2734.00,100.58
2733.00,100.59
2732.00,100.60
2731.00,100.59
2730.00,100.59
2729.00,100.59
2728.00,100.60
2727.00,100.62
2726.00,100.63
2725.00,100.64
2724.00,100.65
2723.00,100.66
2722.00,100.67
2721.00,100.66
2720.00,100.66
2719.00,100.65
2718.00,100.65
2717.00,100.65
2716.00,100.66
2715.00,100.68
2714.00,100.71
2713.00,100.73
2712.00,100.75
2711.00,100.74
2710.00,100.73
2709.00,100.71
2708.00,100.70
2707.00,100.69
2706.00,100.68
2705.00,100.67
2704.00,100.68
2703.00,100.69
2702.00,100.70
2701.00,100.70
2700.00,100.71
2699.00,100.71
2698.00,100.70
2697.00,100.69
2696.00,100.69
2695.00,100.69
2694.00,100.71
2693.00,100.74
2692.00,100.75
2691.00,100.76
2690.00,100.76
2689.00,100.76
2688.00,100.77
2687.00,100.78
2686.00,100.78
2685.00,100.78
2684.00,100.79
2683.00,100.80
2682.00,100.81
2681.00,100.81
2680.00,100.80
2679.00,100.78
2678.00,100.77
2677.00,100.77
2676.00,100.76
2675.00,100.76
2674.00,100.76
2673.00,100.76
2672.00,100.76
2671.00,100.76
2670.00,100.76
2669.00,100.77
2668.00,100.78
2667.00,100.79
2666.00,100.80
2665.00,100.80
2664.00,100.80
2663.00,100.78
2662.00,100.76
2661.00,100.75
2660.00,100.73
2659.00,100.72
2658.00,100.71
2657.00,100.70
2656.00,100.69
2655.00,100.70
2654.00,100.70
2653.00,100.69
2652.00,100.66
2651.00,100.65
2650.00,100.65
2649.00,100.66
2648.00,100.67
2647.00,100.68
2646.00,100.67
2645.00,100.67
2644.00,100.66
2643.00,100.66
2642.00,100.65
2641.00,100.65
2640.00,100.66
2639.00,100.67
2638.00,100.66
2637.00,100.65
2636.00,100.64
2635.00,100.64
2634.00,100.64
2633.00,100.65
2632.00,100.65
2631.00,100.64
2630.00,100.63
2629.00,100.63
2628.00,100.63
2627.00,100.64
2626.00,100.63
2625.00,100.61
2624.00,100.60
2623.00,100.60
2622.00,100.61
2621.00,100.62
2620.00,100.64
2619.00,100.65
2618.00,100.67
2617.00,100.67
2616.00,100.66
2615.00,100.65
2614.00,100.65
2613.00,100.66
2612.00,100.66
2611.00,100.65
2610.00,100.65
2609.00,100.64
2608.00,100.64
2607.00,100.63
2606.00,100.63
2605.00,100.64
2604.00,100.64
2603.00,100.65
2602.00,100.66
2601.00,100.66
2600.00,100.66
2599.00,100.66
2598.00,100.66
2597.00,100.65
2596.00,100.65
2595.00,100.64
2594.00,100.64
2593.00,100.63
2592.00,100.63
2591.00,100.64
2590.00,100.64
2589.00,100.64
2588.00,100.64
2587.00,100.66
2586.00,100.68
2585.00,100.68
2584.00,100.66
2583.00,100.65
2582.00,100.65
2581.00,100.65
2580.00,100.64
2579.00,100.63
2578.00,100.61
2577.00,100.60
2576.00,100.61
2575.00,100.63
2574.00,100.64
2573.00,100.65
2572.00,100.64
2571.00,100.64
2570.00,100.64
2569.00,100.65
2568.00,100.67
2567.00,100.68
2566.00,100.69
2565.00,100.68
2564.00,100.67
2563.00,100.66
2562.00,100.66
2561.00,100.67
2560.00,100.68
2559.00,100.67
2558.00,100.66
2557.00,100.64
2556.00,100.63
2555.00,100.63
2554.00,100.63
2553.00,100.64
2552.00,100.65
2551.00,100.66
2550.00,100.67
2549.00,100.67
2548.00,100.65
2547.00,100.63
2546.00,100.62
2545.00,100.62
2544.00,100.64
2543.00,100.66
2542.00,100.65
2541.00,100.64
2540.00,100.63
2539.00,100.63
2538.00,100.64
2537.00,100.64
2536.00,100.65
2535.00,100.65
2534.00,100.66
2533.00,100.67
2532.00,100.67
2531.00,100.66
2530.00,100.65
2529.00,100.64
2528.00,100.63
2527.00,100.64
2526.00,100.65
2525.00,100.67
2524.00,100.69
2523.00,100.70
2522.00,100.70
2521.00,100.69
2520.00,100.67
2519.00,100.66
2518.00,100.64
2517.00,100.64
2516.00,100.65
2515.00,100.68
2514.00,100.72
2513.00,100.74
2512.00,100.75
2511.00,100.75
2510.00,100.75
2509.00,100.75
2508.00,100.74
2507.00,100.71
2506.00,100.67
2505.00,100.65
2504.00,100.64
2503.00,100.64
2502.00,100.63
2501.00,100.62
2500.00,100.63
2499.00,100.65
2498.00,100.66
2497.00,100.68
2496.00,100.69
2495.00,100.71
2494.00,100.73
2493.00,100.76
2492.00,100.78
2491.00,100.79
2490.00,100.79
2489.00,100.77
2488.00,100.75
2487.00,100.73
2486.00,100.71
2485.00,100.70
2484.00,100.69
2483.00,100.69
2482.00,100.68
2481.00,100.67
2480.00,100.68
2479.00,100.71
2478.00,100.74
2477.00,100.75
2476.00,100.74
2475.00,100.72
2474.00,100.70
2473.00,100.69
2472.00,100.69
2471.00,100.68
2470.00,100.66
2469.00,100.64
2468.00,100.64
2467.00,100.65
2466.00,100.67
2465.00,100.70
2464.00,100.71
2463.00,100.72
2462.00,100.71
2461.00,100.69
2460.00,100.67
2459.00,100.64
2458.00,100.62
2457.00,100.60
2456.00,100.59
2455.00,100.61
2454.00,100.65
2453.00,100.68
2452.00,100.70
2451.00,100.70
2450.00,100.68
2449.00,100.67
2448.00,100.66
2447.00,100.67
2446.00,100.68
2445.00,100.69
2444.00,100.70
2443.00,100.70
2442.00,100.69
2441.00,100.69
2440.00,100.70
2439.00,100.73
2438.00,100.75
2437.00,100.76
2436.00,100.76
2435.00,100.75
2434.00,100.73
2433.00,100.71
2432.00,100.71
2431.00,100.72
2430.00,100.72
2429.00,100.69
2428.00,100.67
2427.00,100.65
2426.00,100.66
2425.00,100.67
2424.00,100.70
2423.00,100.71
2422.00,100.71
2421.00,100.70
2420.00,100.69
2419.00,100.69
2418.00,100.70
2417.00,100.72
2416.00,100.73
2415.00,100.74
2414.00,100.75
2413.00,100.75
2412.00,100.76
2411.00,100.77
2410.00,100.78
2409.00,100.78
2408.00,100.79
2407.00,100.79
2406.00,100.79
2405.00,100.79
2404.00,100.79
2403.00,100.79
2402.00,100.78
2401.00,100.77
2400.00,100.76
2399.00,100.76
2398.00,100.77
2397.00,100.79
2396.00,100.82
2395.00,100.84
2394.00,100.84
2393.00,100.82
2392.00,100.80
2391.00,100.79
2390.00,100.79
2389.00,100.79
2388.00,100.80
2387.00,100.80
2386.00,100.81
2385.00,100.83
2384.00,100.86
2383.00,100.89
2382.00,100.91
2381.00,100.91
2380.00,100.92
2379.00,100.93
2378.00,100.95
2377.00,100.99
2376.00,101.06
2375.00,101.12
2374.00,101.13
2373.00,101.09
2372.00,101.00
2371.00,100.93
2370.00,100.91
2369.00,100.93
2368.00,100.98
2367.00,101.02
2366.00,101.02
2365.00,101.00
2364.00,100.99
2363.00,101.00
2362.00,101.00
2361.00,100.98
2360.00,100.95
2359.00,100.95
2358.00,100.97
2357.00,100.99
2356.00,101.00
2355.00,100.99
2354.00,100.98
2353.00,100.97
2352.00,100.96
2351.00,100.96
2350.00,100.98
2349.00,101.03
2348.00,101.11
2347.00,101.17
2346.00,101.17
2345.00,101.09
2344.00,100.97
2343.00,100.88
2342.00,100.85
2341.00,100.86
2340.00,100.89
2339.00,100.92
2338.00,100.94
2337.00,100.93
2336.00,100.89
2335.00,100.83
2334.00,100.79
2333.00,100.79
2332.00,100.81
2331.00,100.83
2330.00,100.84
2329.00,100.82
2328.00,100.78
2327.00,100.71
2326.00,100.62
2325.00,100.54
2324.00,100.50
2323.00,100.50
2322.00,100.52
2321.00,100.54
2320.00,100.55
2319.00,100.54
2318.00,100.52
2317.00,100.52
2316.00,100.53
2315.00,100.55
2314.00,100.57
2313.00,100.58
2312.00,100.60
2311.00,100.60
2310.00,100.59
2309.00,100.57
2308.00,100.55
2307.00,100.55
2306.00,100.55
2305.00,100.54
2304.00,100.55
2303.00,100.56
2302.00,100.57
2301.00,100.57
2300.00,100.54
2299.00,100.50
2298.00,100.46
2297.00,100.42
2296.00,100.40
2295.00,100.39
2294.00,100.36
2293.00,100.33
2292.00,100.30
2291.00,100.28
2290.00,100.27
2289.00,100.27
2288.00,100.26
2287.00,100.24
2286.00,100.21
2285.00,100.20
2284.00,100.21
2283.00,100.24
2282.00,100.26
2281.00,100.27
2280.00,100.26
2279.00,100.21
2278.00,100.15
2277.00,100.10
2276.00,100.11
2275.00,100.16
2274.00,100.24
2273.00,100.29
2272.00,100.31
2271.00,100.30
2270.00,100.27
2269.00,100.24
2268.00,100.23
2267.00,100.23
2266.00,100.25
2265.00,100.26
2264.00,100.27
2263.00,100.26
2262.00,100.22
2261.00,100.17
2260.00,100.13
2259.00,100.12
2258.00,100.13
2257.00,100.15
2256.00,100.19
2255.00,100.24
2254.00,100.25
2253.00,100.21
2252.00,100.13
2251.00,100.08
2250.00,100.06
2249.00,100.06
2248.00,100.07
2247.00,100.07
2246.00,100.08
2245.00,100.10
2244.00,100.10
2243.00,100.09
2242.00,100.09
2241.00,100.11
2240.00,100.13
2239.00,100.15
2238.00,100.15
2237.00,100.14
2236.00,100.11
2235.00,100.09
2234.00,100.08
2233.00,100.08
2232.00,100.09
2231.00,100.10
2230.00,100.10
2229.00,100.05
2228.00,99.99
2227.00,99.95
2226.00,99.93
2225.00,99.92
2224.00,99.93
2223.00,99.93
2222.00,99.93
2221.00,99.94
2220.00,99.96
2219.00,100.00
2218.00,100.02
2217.00,100.00
2216.00,99.94
2215.00,99.87
2214.00,99.82
2213.00,99.81
2212.00,99.83
2211.00,99.84
2210.00,99.84
2209.00,99.86
2208.00,99.90
2207.00,99.93
2206.00,99.91
2205.00,99.87
2204.00,99.85
2203.00,99.86
2202.00,99.84
2201.00,99.78
2200.00,99.73
2199.00,99.74
2198.00,99.77
2197.00,99.79
2196.00,99.77
2195.00,99.77
2194.00,99.79
2193.00,99.82
2192.00,99.83
2191.00,99.83
2190.00,99.80
2189.00,99.77
2188.00,99.73
2187.00,99.71
2186.00,99.70
2185.00,99.71
2184.00,99.74
2183.00,99.79
2182.00,99.84
2181.00,99.86
2180.00,99.86
2179.00,99.85
2178.00,99.83
2177.00,99.81
2176.00,99.80
2175.00,99.78
2174.00,99.77
2173.00,99.76
2172.00,99.74
2171.00,99.70
2170.00,99.62
2169.00,99.51
2168.00,99.41
2167.00,99.33
2166.00,99.26
2165.00,99.18
2164.00,99.13
2163.00,99.13
2162.00,99.19
2161.00,99.33
2160.00,99.55
2159.00,99.81
2158.00,100.04
2157.00,100.14
2156.00,100.12
2155.00,100.07
2154.00,100.03
2153.00,100.01
2152.00,99.99
2151.00,99.99
2150.00,100.00
2149.00,100.04
2148.00,100.07
2147.00,100.09
2146.00,100.09
2145.00,100.09
2144.00,100.11
2143.00,100.14
2142.00,100.17
2141.00,100.17
2140.00,100.16
2139.00,100.18
2138.00,100.23
2137.00,100.30
2136.00,100.38
2135.00,100.44
2134.00,100.47
2133.00,100.45
2132.00,100.40
2131.00,100.35
2130.00,100.34
2129.00,100.36
2128.00,100.38
2127.00,100.39
2126.00,100.40
2125.00,100.39
2124.00,100.37
2123.00,100.34
2122.00,100.31
2121.00,100.27
2120.00,100.23
2119.00,100.19
2118.00,100.17
2117.00,100.17
2116.00,100.15
2115.00,100.11
2114.00,100.08
2113.00,100.07
2112.00,100.09
2111.00,100.12
2110.00,100.14
2109.00,100.12
2108.00,100.10
2107.00,100.08
2106.00,100.09
2105.00,100.10
2104.00,100.11
2103.00,100.11
2102.00,100.10
2101.00,100.09
2100.00,100.09
2099.00,100.11
2098.00,100.13
2097.00,100.16
2096.00,100.19
2095.00,100.21
2094.00,100.18
2093.00,100.14
2092.00,100.10
2091.00,100.10
2090.00,100.11
2089.00,100.10
2088.00,100.07
2087.00,100.04
2086.00,100.04
2085.00,100.08
2084.00,100.11
2083.00,100.13
2082.00,100.13
2081.00,100.12
2080.00,100.11
2079.00,100.09
2078.00,100.06
2077.00,100.03
2076.00,100.01
2075.00,99.99
2074.00,99.97
2073.00,99.94
2072.00,99.92
2071.00,99.91
2070.00,99.89
2069.00,99.86
2068.00,99.86
2067.00,99.90
2066.00,99.96
2065.00,100.01
2064.00,100.04
2063.00,100.03
2062.00,99.98
2061.00,99.92
2060.00,99.91
2059.00,99.95
2058.00,100.01
2057.00,100.05
2056.00,100.08
2055.00,100.08
2054.00,100.04
2053.00,99.93
2052.00,99.79
2051.00,99.69
2050.00,99.68
2049.00,99.73
2048.00,99.81
2047.00,99.85
2046.00,99.84
2045.00,99.79
2044.00,99.72
2043.00,99.66
2042.00,99.61
2041.00,99.59
2040.00,99.60
2039.00,99.64
2038.00,99.70
2037.00,99.77
2036.00,99.83
2035.00,99.86
2034.00,99.85
2033.00,99.80
2032.00,99.74
2031.00,99.72
2030.00,99.71
2029.00,99.71
2028.00,99.69
2027.00,99.65
2026.00,99.63
2025.00,99.64
2024.00,99.69
2023.00,99.74
2022.00,99.78
2021.00,99.81
2020.00,99.83
2019.00,99.86
2018.00,99.89
2017.00,99.91
2016.00,99.87
2015.00,99.80
2014.00,99.71
2013.00,99.66
2012.00,99.67
2011.00,99.74
2010.00,99.86
2009.00,99.97
2008.00,100.05
2007.00,100.04
2006.00,99.98
2005.00,99.91
2004.00,99.87
2003.00,99.87
2002.00,99.86
2001.00,99.85
2000.00,99.88
1999.00,99.95
1998.00,100.00
1997.00,100.00
1996.00,99.91
1995.00,99.75
1994.00,99.59
1993.00,99.49
1992.00,99.54
1991.00,99.70
1990.00,99.87
1989.00,99.96
1988.00,99.95
1987.00,99.88
1986.00,99.78
1985.00,99.68
1984.00,99.58
1983.00,99.50
1982.00,99.43
1981.00,99.42
1980.00,99.50
1979.00,99.67
1978.00,99.84
1977.00,99.94
1976.00,99.97
1975.00,99.97
1974.00,99.95
1973.00,99.91
1972.00,99.87
1971.00,99.85
1970.00,99.87
1969.00,99.88
1968.00,99.86
1967.00,99.84
1966.00,99.88
1965.00,99.96
1964.00,100.06
1963.00,100.11
1962.00,100.12
1961.00,100.10
1960.00,100.06
1959.00,100.02
1958.00,99.98
1957.00,99.96
1956.00,99.97
1955.00,100.01
1954.00,100.05
1953.00,100.07
1952.00,100.09
1951.00,100.12
1950.00,100.13
1949.00,100.13
1948.00,100.11
1947.00,100.11
1946.00,100.12
1945.00,100.12
1944.00,100.12
1943.00,100.13
1942.00,100.17
1941.00,100.20
1940.00,100.21
1939.00,100.20
1938.00,100.17
1937.00,100.15
1936.00,100.16
1935.00,100.19
1934.00,100.22
1933.00,100.23
1932.00,100.21
1931.00,100.20
1930.00,100.21
1929.00,100.22
1928.00,100.24
1927.00,100.25
1926.00,100.25
1925.00,100.25
1924.00,100.25
1923.00,100.25
1922.00,100.25
1921.00,100.24
1920.00,100.23
1919.00,100.22
1918.00,100.23
1917.00,100.24
1916.00,100.25
1915.00,100.27
1914.00,100.28
1913.00,100.27
1912.00,100.26
1911.00,100.24
1910.00,100.22
1909.00,100.18
1908.00,100.13
1907.00,100.11
1906.00,100.12
1905.00,100.16
1904.00,100.20
1903.00,100.22
1902.00,100.24
1901.00,100.25
1900.00,100.26
1899.00,100.25
1898.00,100.24
1897.00,100.24
1896.00,100.26
1895.00,100.28
1894.00,100.30
1893.00,100.31
1892.00,100.31
1891.00,100.32
1890.00,100.33
1889.00,100.32
1888.00,100.32
1887.00,100.33
1886.00,100.35
1885.00,100.37
1884.00,100.37
1883.00,100.36
1882.00,100.33
1881.00,100.30
1880.00,100.29
1879.00,100.29
1878.00,100.29
1877.00,100.28
1876.00,100.26
1875.00,100.25
1874.00,100.25
1873.00,100.26
1872.00,100.27
1871.00,100.29
1870.00,100.31
1869.00,100.31
1868.00,100.28
1867.00,100.24
1866.00,100.24
1865.00,100.26
1864.00,100.29
1863.00,100.31
1862.00,100.32
1861.00,100.31
1860.00,100.30
1859.00,100.31
1858.00,100.33
1857.00,100.33
1856.00,100.33
1855.00,100.32
1854.00,100.31
1853.00,100.30
1852.00,100.30
1851.00,100.30
1850.00,100.31
1849.00,100.32
1848.00,100.32
1847.00,100.32
1846.00,100.31
1845.00,100.30
1844.00,100.31
1843.00,100.33
1842.00,100.35
1841.00,100.35
1840.00,100.34
1839.00,100.31
1838.00,100.30
1837.00,100.29
1836.00,100.29
1835.00,100.29
1834.00,100.28
1833.00,100.27
1832.00,100.26
1831.00,100.26
1830.00,100.27
1829.00,100.27
1828.00,100.26
1827.00,100.26
1826.00,100.27
1825.00,100.30
1824.00,100.33
1823.00,100.34
1822.00,100.34
1821.00,100.33
1820.00,100.34
1819.00,100.36
1818.00,100.39
1817.00,100.40
1816.00,100.39
1815.00,100.37
1814.00,100.34
1813.00,100.31
1812.00,100.28
1811.00,100.27
1810.00,100.28
1809.00,100.29
1808.00,100.30
1807.00,100.32
1806.00,100.33
1805.00,100.32
1804.00,100.29
1803.00,100.28
1802.00,100.28
1801.00,100.29
1800.00,100.30
1799.00,100.29
1798.00,100.29
1797.00,100.29
1796.00,100.29
1795.00,100.29
1794.00,100.29
1793.00,100.27
1792.00,100.25
1791.00,100.23
1790.00,100.22
1789.00,100.22
1788.00,100.21
1787.00,100.20
1786.00,100.20
1785.00,100.20
1784.00,100.21
1783.00,100.20
1782.00,100.20
1781.00,100.20
1780.00,100.20
1779.00,100.19
1778.00,100.17
1777.00,100.15
1776.00,100.15
1775.00,100.18
1774.00,100.22
1773.00,100.24
1772.00,100.25
1771.00,100.22
1770.00,100.19
1769.00,100.16
1768.00,100.15
1767.00,100.14
1766.00,100.13
1765.00,100.12
1764.00,100.10
1763.00,100.07
1762.00,100.05
1761.00,100.03
1760.00,100.00
1759.00,99.97
1758.00,99.96
1757.00,99.97
1756.00,99.99
1755.00,99.98
1754.00,99.96
1753.00,99.93
1752.00,99.90
1751.00,99.88
1750.00,99.87
1749.00,99.85
1748.00,99.83
1747.00,99.82
1746.00,99.81
1745.00,99.79
1744.00,99.77
1743.00,99.76
1742.00,99.74
1741.00,99.71
1740.00,99.69
1739.00,99.69
1738.00,99.71
1737.00,99.73
1736.00,99.74
1735.00,99.75
1734.00,99.75
1733.00,99.70
1732.00,99.63
1731.00,99.59
1730.00,99.59
1729.00,99.60
1728.00,99.61
1727.00,99.61
1726.00,99.60
1725.00,99.59
1724.00,99.58
1723.00,99.58
1722.00,99.59
1721.00,99.58
1720.00,99.56
1719.00,99.54
1718.00,99.55
1717.00,99.55
1716.00,99.54
1715.00,99.53
1714.00,99.52
1713.00,99.51
1712.00,99.48
1711.00,99.46
1710.00,99.44
1709.00,99.43
1708.00,99.42
1707.00,99.41
1706.00,99.41
1705.00,99.40
1704.00,99.38
1703.00,99.36
1702.00,99.35
1701.00,99.34
1700.00,99.33
1699.00,99.29
1698.00,99.25
1697.00,99.18
1696.00,99.10
1695.00,98.99
1694.00,98.85
1693.00,98.71
1692.00,98.56
1691.00,98.41
1690.00,98.25
1689.00,98.08
1688.00,97.92
1687.00,97.74
1686.00,97.48
1685.00,97.10
1684.00,96.64
1683.00,96.23
1682.00,95.88
1681.00,95.54
1680.00,95.19
1679.00,94.83
1678.00,94.49
1677.00,94.11
1676.00,93.68
1675.00,93.22
1674.00,92.78
1673.00,92.38
1672.00,91.97
1671.00,91.53
1670.00,91.02
1669.00,90.46
1668.00,89.89
1667.00,89.38
1666.00,88.92
1665.00,88.43
1664.00,87.89
1663.00,87.33
1662.00,86.79
1661.00,86.27
1660.00,85.75
1659.00,85.23
1658.00,84.74
1657.00,84.31
1656.00,83.90
1655.00,83.47
1654.00,82.87
1653.00,82.06
1652.00,81.24
1651.00,80.57
1650.00,80.01
1649.00,79.43
1648.00,78.71
1647.00,77.90
1646.00,77.09
1645.00,76.35
1644.00,75.67
1643.00,75.05
1642.00,74.47
1641.00,73.90
1640.00,73.38
1639.00,72.95
1638.00,72.62
1637.00,72.39
1636.00,72.28
1635.00,72.28
1634.00,72.38
1633.00,72.52
1632.00,72.68
1631.00,72.89
1630.00,73.16
1629.00,73.48
1628.00,73.85
1627.00,74.23
1626.00,74.63
1625.00,75.07
1624.00,75.59
1623.00,76.22
1622.00,76.88
1621.00,77.51
1620.00,78.15
1619.00,78.85
1618.00,79.69
1617.00,80.67
1616.00,81.63
1615.00,82.44
1614.00,83.13
1613.00,83.79
1612.00,84.49
1611.00,85.19
1610.00,85.88
1609.00,86.54
1608.00,87.19
1607.00,87.79
1606.00,88.34
1605.00,88.85
1604.00,89.34
1603.00,89.81
1602.00,90.23
1601.00,90.61
1600.00,90.97
1599.00,91.28
1598.00,91.54
1597.00,91.75
1596.00,91.94
1595.00,92.10
1594.00,92.22
1593.00,92.30
1592.00,92.37
1591.00,92.41
1590.00,92.42
1589.00,92.41
1588.00,92.39
1587.00,92.34
1586.00,92.24
1585.00,92.10
1584.00,91.94
1583.00,91.74
1582.00,91.49
1581.00,91.23
1580.00,91.00
1579.00,90.77
1578.00,90.49
1577.00,90.10
1576.00,89.61
1575.00,89.09
1574.00,88.62
1573.00,88.19
1572.00,87.79
1571.00,87.34
1570.00,86.82
1569.00,86.28
1568.00,85.79
1567.00,85.33
1566.00,84.84
1565.00,84.35
1564.00,83.90
1563.00,83.54
1562.00,83.22
1561.00,82.86
1560.00,82.36
1559.00,81.73
1558.00,81.13
1557.00,80.66
1556.00,80.28
1555.00,79.90
1554.00,79.49
1553.00,79.08
1552.00,78.67
1551.00,78.26
1550.00,77.84
1549.00,77.44
1548.00,77.07
1547.00,76.72
1546.00,76.37
1545.00,76.04
1544.00,75.77
1543.00,75.55
1542.00,75.36
1541.00,75.19
1540.00,75.08
1539.00,75.03
1538.00,75.01
1537.00,75.02
1536.00,75.07
1535.00,75.21
1534.00,75.45
1533.00,75.77
1532.00,76.08
1531.00,76.36
1530.00,76.64
1529.00,76.95
1528.00,77.32
1527.00,77.74
1526.00,78.21
1525.00,78.67
1524.00,79.11
1523.00,79.57
1522.00,80.12
1521.00,80.70
1520.00,81.20
1519.00,81.62
1518.00,82.05
1517.00,82.55
1516.00,83.07
1515.00,83.55
1514.00,83.99
1513.00,84.41
1512.00,84.82
1511.00,85.21
1510.00,85.58
1509.00,85.95
1508.00,86.40
1507.00,86.99
1506.00,87.60
1505.00,88.03
1504.00,88.32
1503.00,88.58
1502.00,88.88
1501.00,89.20
1500.00,89.52
1499.00,89.84
1498.00,90.16
1497.00,90.49
1496.00,90.78
1495.00,91.04
1494.00,91.26
1493.00,91.44
1492.00,91.57
1491.00,91.70
1490.00,91.82
1489.00,91.91
1488.00,91.94
1487.00,91.93
1486.00,91.86
1485.00,91.71
1484.00,91.47
1483.00,91.17
1482.00,90.83
1481.00,90.47
1480.00,90.12
1479.00,89.82
1478.00,89.57
1477.00,89.36
1476.00,89.21
1475.00,89.12
1474.00,89.08
1473.00,89.06
1472.00,89.00
1471.00,88.88
1470.00,88.67
1469.00,88.39
1468.00,88.03
1467.00,87.62
1466.00,87.19
1465.00,86.80
1464.00,86.52
1463.00,86.41
1462.00,86.45
1461.00,86.58
1460.00,86.78
1459.00,87.03
1458.00,87.32
1457.00,87.60
1456.00,87.79
1455.00,87.91
1454.00,88.01
1453.00,88.13
1452.00,88.25
1451.00,88.38
1450.00,88.50
1449.00,88.59
1448.00,88.64
1447.00,88.65
1446.00,88.63
1445.00,88.59
1444.00,88.53
1443.00,88.46
1442.00,88.38
1441.00,88.29
1440.00,88.19
1439.00,88.09
1438.00,88.00
1437.00,87.93
1436.00,87.91
1435.00,87.94
1434.00,88.02
1433.00,88.13
1432.00,88.27
1431.00,88.45
1430.00,88.66
1429.00,88.88
1428.00,89.06
1427.00,89.18
1426.00,89.23
1425.00,89.23
1424.00,89.18
1423.00,89.09
1422.00,88.99
1421.00,88.86
1420.00,88.75
1419.00,88.69
1418.00,88.73
1417.00,88.86
1416.00,89.05
1415.00,89.30
1414.00,89.60
1413.00,89.96
1412.00,90.35
1411.00,90.77
1410.00,91.19
1409.00,91.58
1408.00,91.92
1407.00,92.22
1406.00,92.48
1405.00,92.73
1404.00,92.97
1403.00,93.17
1402.00,93.32
1401.00,93.42
1400.00,93.50
1399.00,93.54
1398.00,93.57
1397.00,93.58
1396.00,93.57
1395.00,93.53
1394.00,93.47
1393.00,93.37
1392.00,93.26
1391.00,93.12
1390.00,92.96
1389.00,92.79
1388.00,92.60
1387.00,92.39
1386.00,92.19
1385.00,91.99
1384.00,91.77
1383.00,91.53
1382.00,91.28
1381.00,91.03
1380.00,90.78
1379.00,90.55
1378.00,90.36
1377.00,90.18
1376.00,90.01
1375.00,89.85
1374.00,89.72
1373.00,89.64
1372.00,89.60
1371.00,89.58
1370.00,89.61
1369.00,89.66
1368.00,89.73
1367.00,89.81
1366.00,89.88
1365.00,89.96
1364.00,90.04
1363.00,90.14
1362.00,90.27
1361.00,90.41
1360.00,90.53
1359.00,90.64
1358.00,90.75
1357.00,90.86
1356.00,90.98
1355.00,91.11
1354.00,91.25
1353.00,91.39
1352.00,91.52
1351.00,91.64
1350.00,91.74
1349.00,91.84
1348.00,91.92
1347.00,91.99
1346.00,92.06
1345.00,92.14
1344.00,92.20
1343.00,92.26
1342.00,92.31
1341.00,92.35
1340.00,92.41
1339.00,92.46
1338.00,92.50
1337.00,92.54
1336.00,92.57
1335.00,92.59
1334.00,92.62
1333.00,92.66
1332.00,92.72
1331.00,92.78
1330.00,92.84
1329.00,92.90
1328.00,92.96
1327.00,93.00
1326.00,93.02
1325.00,93.02
1324.00,93.00
1323.00,92.98
1322.00,92.95
1321.00,92.92
1320.00,92.87
1319.00,92.80
1318.00,92.72
1317.00,92.64
1316.00,92.58
1315.00,92.52
1314.00,92.47
1313.00,92.41
1312.00,92.35
1311.00,92.28
1310.00,92.22
1309.00,92.16
1308.00,92.09
1307.00,92.03
1306.00,91.97
1305.00,91.92
1304.00,91.87
1303.00,91.83
1302.00,91.80
1301.00,91.79
1300.00,91.78
1299.00,91.77
1298.00,91.77
1297.00,91.77
1296.00,91.76
1295.00,91.73
1294.00,91.69
1293.00,91.64
1292.00,91.59
1291.00,91.54
1290.00,91.49
1289.00,91.43
1288.00,91.35
1287.00,91.25
1286.00,91.12
1285.00,90.97
1284.00,90.83
1283.00,90.69
1282.00,90.57
1281.00,90.49
1280.00,90.43
1279.00,90.40
1278.00,90.39
1277.00,90.40
1276.00,90.42
1275.00,90.42
1274.00,90.40
1273.00,90.34
1272.00,90.24
1271.00,90.09
1270.00,89.89
1269.00,89.64
1268.00,89.33
1267.00,89.01
1266.00,88.69
1265.00,88.41
1264.00,88.19
1263.00,88.03
1262.00,87.92
1261.00,87.86
1260.00,87.84
1259.00,87.88
1258.00,87.96
1257.00,88.08
1256.00,88.23
1255.00,88.40
1254.00,88.58
1253.00,88.75
1252.00,88.91
1251.00,89.06
1250.00,89.19
1249.00,89.31
1248.00,89.41
1247.00,89.48
1246.00,89.52
1245.00,89.53
1244.00,89.52
1243.00,89.50
1242.00,89.48
1241.00,89.46
1240.00,89.44
1239.00,89.42
1238.00,89.42
1237.00,89.45
1236.00,89.52
1235.00,89.64
1234.00,89.83
1233.00,90.08
1232.00,90.37
1231.00,90.68
1230.00,91.02
1229.00,91.37
1228.00,91.71
1227.00,92.03
1226.00,92.34
1225.00,92.60
1224.00,92.80
1223.00,92.92
1222.00,92.96
1221.00,92.93
1220.00,92.84
1219.00,92.71
1218.00,92.56
1217.00,92.38
1216.00,92.21
1215.00,92.04
1214.00,91.88
1213.00,91.73
1212.00,91.61
1211.00,91.51
1210.00,91.45
1209.00,91.40
1208.00,91.33
1207.00,91.23
1206.00,91.09
1205.00,90.91
1204.00,90.71
1203.00,90.51
1202.00,90.35
1201.00,90.26
1200.00,90.28
1199.00,90.39
1198.00,90.58
1197.00,90.85
1196.00,91.15
1195.00,91.47
1194.00,91.78
1193.00,92.06
1192.00,92.31
1191.00,92.55
1190.00,92.78
1189.00,93.00
1188.00,93.20
1187.00,93.37
1186.00,93.52
1185.00,93.61
1184.00,93.65
1183.00,93.64
1182.00,93.58
1181.00,93.47
1180.00,93.28
1179.00,93.01
1178.00,92.67
1177.00,92.28
1176.00,91.86
1175.00,91.43
1174.00,91.04
1173.00,90.69
1172.00,90.42
1171.00,90.23
1170.00,90.15
1169.00,90.18
1168.00,90.30
1167.00,90.52
1166.00,90.82
1165.00,91.17
1164.00,91.56
1163.00,91.97
1162.00,92.37
1161.00,92.76
1160.00,93.11
1159.00,93.43
1158.00,93.71
1157.00,93.97
1156.00,94.21
1155.00,94.45
1154.00,94.68
1153.00,94.88
1152.00,95.05
1151.00,95.22
1150.00,95.37
1149.00,95.52
1148.00,95.64
1147.00,95.74
1146.00,95.82
1145.00,95.90
1144.00,95.98
1143.00,96.06
1142.00,96.13
1141.00,96.19
1140.00,96.24
1139.00,96.27
1138.00,96.29
1137.00,96.32
1136.00,96.34
1135.00,96.34
1134.00,96.32
1133.00,96.27
1132.00,96.19
1131.00,96.08
1130.00,95.93
1129.00,95.75
1128.00,95.54
1127.00,95.30
1126.00,95.04
1125.00,94.77
1124.00,94.51
1123.00,94.26
1122.00,94.05
1121.00,93.90
1120.00,93.80
1119.00,93.75
1118.00,93.72
1117.00,93.69
1116.00,93.67
1115.00,93.70
1114.00,93.77
1113.00,93.88
1112.00,93.99
1111.00,94.10
1110.00,94.20
1109.00,94.29
1108.00,94.37
1107.00,94.47
1106.00,94.60
1105.00,94.77
1104.00,94.95
1103.00,95.11
1102.00,95.22
1101.00,95.30
1100.00,95.36
1099.00,95.40
1098.00,95.44
1097.00,95.49
1096.00,95.54
1095.00,95.59
1094.00,95.63
1093.00,95.65
1092.00,95.63
1091.00,95.58
1090.00,95.55
1089.00,95.58
1088.00,95.64
1087.00,95.66
1086.00,95.64
1085.00,95.59
1084.00,95.56
1083.00,95.55
1082.00,95.53
1081.00,95.49
1080.00,95.44
1079.00,95.38
1078.00,95.32
1077.00,95.25
1076.00,95.19
1075.00,95.15
1074.00,95.14
1073.00,95.16
1072.00,95.19
1071.00,95.21
1070.00,95.23
1069.00,95.28
1068.00,95.34
1067.00,95.41
1066.00,95.49
1065.00,95.54
1064.00,95.57
1063.00,95.62
1062.00,95.69
1061.00,95.80
1060.00,95.94
1059.00,96.07
1058.00,96.18
1057.00,96.28
1056.00,96.37
1055.00,96.43
1054.00,96.49
1053.00,96.54
1052.00,96.59
1051.00,96.65
1050.00,96.71
1049.00,96.79
1048.00,96.87
1047.00,96.91
1046.00,96.92
1045.00,96.91
1044.00,96.89
1043.00,96.89
1042.00,96.90
1041.00,96.94
1040.00,96.97
1039.00,96.99
1038.00,96.98
1037.00,96.96
1036.00,96.96
1035.00,96.96
1034.00,96.95
1033.00,96.93
1032.00,96.90
1031.00,96.88
1030.00,96.87
1029.00,96.86
1028.00,96.84
1027.00,96.84
1026.00,96.86
1025.00,96.91
1024.00,96.97
1023.00,97.02
1022.00,97.06
1021.00,97.08
1020.00,97.09
1019.00,97.10
1018.00,97.08
1017.00,97.07
1016.00,97.07
1015.00,97.10
1014.00,97.15
1013.00,97.20
1012.00,97.23
1011.00,97.24
1010.00,97.21
1009.00,97.15
1008.00,97.10
1007.00,97.08
1006.00,97.09
1005.00,97.13
1004.00,97.18
1003.00,97.21
1002.00,97.23
1001.00,97.23
1000.00,97.20
999.00,97.14
998.00,97.08
997.00,97.02
996.00,96.99
995.00,96.98
994.00,96.97
993.00,96.95
992.00,96.92
991.00,96.87
990.00,96.79
989.00,96.68
988.00,96.57
987.00,96.47
986.00,96.41
985.00,96.39
984.00,96.39
983.00,96.40
982.00,96.39
981.00,96.35
980.00,96.29
979.00,96.23
978.00,96.18
977.00,96.13
976.00,96.10
975.00,96.09
974.00,96.11
973.00,96.13
972.00,96.14
971.00,96.13
970.00,96.10
969.00,96.08
968.00,96.08
967.00,96.10
966.00,96.12
965.00,96.14
964.00,96.16
963.00,96.15
962.00,96.13
961.00,96.11
960.00,96.09
959.00,96.12
958.00,96.17
957.00,96.23
956.00,96.28
955.00,96.31
954.00,96.34
953.00,96.37
952.00,96.41
951.00,96.46
950.00,96.52
949.00,96.60
948.00,96.69
947.00,96.79
946.00,96.89
945.00,96.96
944.00,97.02
943.00,97.05
942.00,97.08
941.00,97.10
940.00,97.12
939.00,97.13
938.00,97.13
937.00,97.12
936.00,97.10
935.00,97.06
934.00,97.00
933.00,96.91
932.00,96.82
931.00,96.78
930.00,96.79
929.00,96.84
928.00,96.88
927.00,96.92
926.00,96.95
925.00,96.99
924.00,97.02
923.00,97.03
922.00,97.04
921.00,97.07
920.00,97.12
919.00,97.19
918.00,97.25
917.00,97.29
916.00,97.31
915.00,97.31
914.00,97.30
913.00,97.30
912.00,97.31
911.00,97.32
910.00,97.36
909.00,97.40
908.00,97.46
907.00,97.50
906.00,97.53
905.00,97.53
904.00,97.53
903.00,97.54
902.00,97.57
901.00,97.59
900.00,97.61
899.00,97.61
898.00,97.63
897.00,97.65
896.00,97.68
895.00,97.69
894.00,97.68
893.00,97.66
892.00,97.64
891.00,97.64
890.00,97.65
889.00,97.67
888.00,97.69
887.00,97.69
886.00,97.70
885.00,97.71
884.00,97.72
883.00,97.74
882.00,97.77
881.00,97.81
880.00,97.84
879.00,97.84
878.00,97.83
877.00,97.81
876.00,97.79
875.00,97.79
874.00,97.82
873.00,97.85
872.00,97.87
871.00,97.87
870.00,97.87
869.00,97.87
868.00,97.88
867.00,97.88
866.00,97.87
865.00,97.87
864.00,97.88
863.00,97.87
862.00,97.87
861.00,97.86
860.00,97.86
859.00,97.85
858.00,97.86
857.00,97.87
856.00,97.87
855.00,97.85
854.00,97.84
853.00,97.82
852.00,97.80
851.00,97.77
850.00,97.72
849.00,97.66
848.00,97.59
847.00,97.52
846.00,97.49
845.00,97.48
844.00,97.48
843.00,97.47
842.00,97.45
841.00,97.40
840.00,97.32
839.00,97.23
838.00,97.14
837.00,97.08
836.00,97.04
835.00,97.01
834.00,96.99
833.00,96.97
832.00,96.95
831.00,96.95
830.00,96.97
829.00,97.01
828.00,97.07
827.00,97.11
826.00,97.13
825.00,97.11
824.00,97.08
823.00,97.06
822.00,97.08
821.00,97.14
820.00,97.21
819.00,97.22
818.00,97.17
817.00,97.08
816.00,97.00
815.00,96.94
814.00,96.89
813.00,96.85
812.00,96.82
811.00,96.80
810.00,96.78
809.00,96.74
808.00,96.68
807.00,96.62
806.00,96.59
805.00,96.61
804.00,96.64
803.00,96.63
802.00,96.57
801.00,96.47
800.00,96.36
799.00,96.29
798.00,96.26
797.00,96.25
796.00,96.23
795.00,96.18
794.00,96.09
793.00,95.98
792.00,95.87
791.00,95.79
790.00,95.75
789.00,95.71
788.00,95.64
787.00,95.54
786.00,95.42
785.00,95.33
784.00,95.27
783.00,95.24
782.00,95.21
781.00,95.19
780.00,95.14
779.00,95.06
778.00,94.98
777.00,94.91
776.00,94.87
775.00,94.85
774.00,94.81
773.00,94.73
772.00,94.61
771.00,94.49
770.00,94.41
769.00,94.37
768.00,94.36
767.00,94.38
766.00,94.37
765.00,94.31
764.00,94.19
763.00,94.04
762.00,93.93
761.00,93.86
760.00,93.81
759.00,93.77
758.00,93.71
757.00,93.63
756.00,93.52
755.00,93.39
754.00,93.27
753.00,93.14
752.00,93.03
751.00,92.92
750.00,92.81
749.00,92.70
748.00,92.59
747.00,92.49
746.00,92.37
745.00,92.22
744.00,92.02
743.00,91.82
742.00,91.64
741.00,91.48
740.00,91.32
739.00,91.13
738.00,90.89
737.00,90.58
736.00,90.19
735.00,89.76
734.00,89.36
733.00,89.05
732.00,88.83
731.00,88.62
730.00,88.40
729.00,88.18
728.00,88.06
727.00,88.05
726.00,88.13
725.00,88.25
724.00,88.32
723.00,88.36
722.00,88.37
721.00,88.37
720.00,88.38
719.00,88.39
718.00,88.41
717.00,88.42
716.00,88.39
715.00,88.32
714.00,88.21
713.00,88.10
712.00,88.05
711.00,88.06
710.00,88.09
709.00,88.08
708.00,87.99
707.00,87.84
706.00,87.68
705.00,87.56
704.00,87.54
703.00,87.58
702.00,87.61
701.00,87.53
700.00,87.32
699.00,87.05
698.00,86.81
697.00,86.69
696.00,86.67
695.00,86.70
694.00,86.66
693.00,86.52
692.00,86.31
691.00,86.13
690.00,86.05
689.00,86.10
688.00,86.20
687.00,86.26
686.00,86.24
685.00,86.13
684.00,85.99
683.00,85.91
682.00,85.93
681.00,86.03
680.00,86.15
679.00,86.24
678.00,86.28
677.00,86.27
676.00,86.23
675.00,86.19
674.00,86.20
673.00,86.30
672.00,86.43
671.00,86.53
670.00,86.55
669.00,86.50
668.00,86.46
667.00,86.58
666.00,86.82
665.00,87.05
664.00,87.24
663.00,87.39
662.00,87.52
661.00,87.61
660.00,87.64
659.00,87.64
658.00,87.68
657.00,87.80
656.00,88.00
655.00,88.23
654.00,88.37
653.00,88.36
652.00,88.24
651.00,88.14
650.00,88.14
649.00,88.22
648.00,88.38
647.00,88.59
646.00,88.82
645.00,89.00
644.00,89.10
643.00,89.12
642.00,89.12
641.00,89.13
640.00,89.20
639.00,89.35
638.00,89.54
637.00,89.64
636.00,89.49
635.00,89.09
634.00,88.68
633.00,88.51
632.00,88.70
631.00,89.10
630.00,89.48
629.00,89.65
628.00,89.57
627.00,89.33
626.00,89.12
625.00,89.08
624.00,89.24
623.00,89.50
622.00,89.66
621.00,89.54
620.00,89.13
619.00,88.66
618.00,88.48
617.00,88.76
616.00,89.34
615.00,89.82
614.00,89.84
613.00,89.40
612.00,88.79
611.00,88.36
610.00,88.31
609.00,88.62
608.00,89.13
607.00,89.58
606.00,89.68
605.00,89.37
604.00,88.81
603.00,88.28
602.00,88.00
601.00,88.06
600.00,88.38
599.00,88.71
598.00,88.69
597.00,88.18
596.00,87.39
595.00,86.78
594.00,86.76
593.00,87.38
592.00,88.42
591.00,89.34
590.00,89.59
589.00,88.97
588.00,87.91
587.00,87.06
586.00,86.81
585.00,87.04
584.00,87.47
583.00,87.81
582.00,87.75
581.00,87.05
580.00,85.87
579.00,84.82
578.00,84.48
577.00,84.89
576.00,85.75
575.00,86.64
574.00,86.98
573.00,86.47
572.00,85.45
571.00,84.75
570.00,84.94
569.00,85.77
568.00,86.56
567.00,86.79
566.00,86.44
565.00,85.83
564.00,85.35
563.00,85.34
562.00,85.92
561.00,86.90
560.00,87.93
559.00,88.59
558.00,88.65
557.00,88.24
556.00,87.75
555.00,87.45
554.00,87.34
553.00,87.29
552.00,87.36
551.00,87.78
550.00,88.58
