Created as New Dataset,77 Nylon Allied Signal Fibers USA PA-6. Superba heat set 1190d. carpet yarn. No after-treatment. 4 of 7 in a series of fiber processing techniques
cm-1,%T
4000.00,103.11
3999.00,103.11
3998.00,103.12
3997.00,103.12
3996.00,103.11
3995.00,103.09
3994.00,103.08
3993.00,103.07
3992.00,103.07
3991.00,103.06
3990.00,103.05
3989.00,103.04
3988.00,103.04
3987.00,103.03
3986.00,103.03
3985.00,103.03
3984.00,103.03
3983.00,103.04
3982.00,103.05
3981.00,103.05
3980.00,103.06
3979.00,103.07
3978.00,103.07
3977.00,103.08
3976.00,103.08
3975.00,103.08
3974.00,103.08
3973.00,103.09
3972.00,103.09
3971.00,103.09
3970.00,103.08
3969.00,103.07
3968.00,103.06
3967.00,103.07
3966.00,103.09
3965.00,103.09
3964.00,103.09
3963.00,103.09
3962.00,103.07
3961.00,103.06
3960.00,103.05
3959.00,103.06
3958.00,103.07
3957.00,103.11
3956.00,103.14
3955.00,103.17
3954.00,103.18
3953.00,103.18
3952.00,103.17
3951.00,103.16
3950.00,103.13
3949.00,103.10
3948.00,103.08
3947.00,103.06
3946.00,103.07
3945.00,103.10
3944.00,103.12
3943.00,103.14
3942.00,103.15
3941.00,103.16
3940.00,103.17
3939.00,103.16
3938.00,103.14
3937.00,103.13
3936.00,103.12
3935.00,103.14
3934.00,103.16
3933.00,103.17
3932.00,103.17
3931.00,103.16
3930.00,103.15
3929.00,103.17
3928.00,103.19
3927.00,103.21
3926.00,103.20
3925.00,103.18
3924.00,103.15
3923.00,103.15
3922.00,103.16
3921.00,103.17
3920.00,103.18
3919.00,103.18
3918.00,103.16
3917.00,103.14
3916.00,103.13
3915.00,103.13
3914.00,103.13
3913.00,103.12
3912.00,103.09
3911.00,103.06
3910.00,103.04
3909.00,103.05
3908.00,103.08
3907.00,103.14
3906.00,103.21
3905.00,103.28
3904.00,103.34
3903.00,103.38
3902.00,103.40
3901.00,103.38
3900.00,103.31
3899.00,103.23
3898.00,103.18
3897.00,103.16
3896.00,103.16
3895.00,103.17
3894.00,103.18
3893.00,103.17
3892.00,103.13
3891.00,103.11
3890.00,103.13
3889.00,103.19
3888.00,103.25
3887.00,103.26
3886.00,103.23
3885.00,103.20
3884.00,103.22
3883.00,103.25
3882.00,103.25
3881.00,103.22
3880.00,103.18
3879.00,103.17
3878.00,103.19
3877.00,103.20
3876.00,103.19
3875.00,103.17
3874.00,103.20
3873.00,103.26
3872.00,103.33
3871.00,103.33
3870.00,103.28
3869.00,103.26
3868.00,103.29
3867.00,103.33
3866.00,103.34
3865.00,103.30
3864.00,103.26
3863.00,103.25
3862.00,103.24
3861.00,103.22
3860.00,103.21
3859.00,103.24
3858.00,103.31
3857.00,103.44
3856.00,103.59
3855.00,103.66
3854.00,103.61
3853.00,103.52
3852.00,103.53
3851.00,103.56
3850.00,103.50
3849.00,103.37
3848.00,103.25
3847.00,103.19
3846.00,103.17
3845.00,103.17
3844.00,103.20
3843.00,103.24
3842.00,103.30
3841.00,103.36
3840.00,103.41
3839.00,103.42
3838.00,103.40
3837.00,103.39
3836.00,103.38
3835.00,103.37
3834.00,103.33
3833.00,103.27
3832.00,103.21
3831.00,103.18
3830.00,103.18
3829.00,103.20
3828.00,103.20
3827.00,103.19
3826.00,103.19
3825.00,103.22
3824.00,103.28
3823.00,103.31
3822.00,103.30
3821.00,103.26
3820.00,103.28
3819.00,103.34
3818.00,103.37
3817.00,103.32
3816.00,103.22
3815.00,103.15
3814.00,103.15
3813.00,103.16
3812.00,103.14
3811.00,103.13
3810.00,103.14
3809.00,103.17
3808.00,103.17
3807.00,103.16
3806.00,103.19
3805.00,103.25
3804.00,103.30
3803.00,103.29
3802.00,103.23
3801.00,103.18
3800.00,103.22
3799.00,103.27
3798.00,103.27
3797.00,103.18
3796.00,103.09
3795.00,103.04
3794.00,103.03
3793.00,103.03
3792.00,103.01
3791.00,102.99
3790.00,102.98
3789.00,102.99
3788.00,103.00
3787.00,103.01
3786.00,103.01
3785.00,102.99
3784.00,102.99
3783.00,103.01
3782.00,103.02
3781.00,103.03
3780.00,103.01
3779.00,102.99
3778.00,102.98
3777.00,103.00
3776.00,103.00
3775.00,103.00
3774.00,103.00
3773.00,103.02
3772.00,103.05
3771.00,103.07
3770.00,103.08
3769.00,103.11
3768.00,103.14
3767.00,103.14
3766.00,103.11
3765.00,103.08
3764.00,103.06
3763.00,103.07
3762.00,103.08
3761.00,103.07
3760.00,103.07
3759.00,103.08
3758.00,103.10
3757.00,103.13
3756.00,103.17
3755.00,103.21
3754.00,103.26
3753.00,103.31
3752.00,103.34
3751.00,103.34
3750.00,103.34
3749.00,103.37
3748.00,103.43
3747.00,103.49
3746.00,103.50
3745.00,103.44
3744.00,103.35
3743.00,103.33
3742.00,103.37
3741.00,103.35
3740.00,103.30
3739.00,103.27
3738.00,103.28
3737.00,103.32
3736.00,103.34
3735.00,103.37
3734.00,103.40
3733.00,103.38
3732.00,103.31
3731.00,103.23
3730.00,103.17
3729.00,103.12
3728.00,103.08
3727.00,103.05
3726.00,103.05
3725.00,103.07
3724.00,103.10
3723.00,103.11
3722.00,103.10
3721.00,103.07
3720.00,103.03
3719.00,102.98
3718.00,102.94
3717.00,102.93
3716.00,102.96
3715.00,103.01
3714.00,103.06
3713.00,103.10
3712.00,103.10
3711.00,103.09
3710.00,103.07
3709.00,103.05
3708.00,103.02
3707.00,102.99
3706.00,102.97
3705.00,102.96
3704.00,102.95
3703.00,102.94
3702.00,102.92
3701.00,102.92
3700.00,102.93
3699.00,102.93
3698.00,102.91
3697.00,102.87
3696.00,102.85
3695.00,102.88
3694.00,102.94
3693.00,103.01
3692.00,103.06
3691.00,103.09
3690.00,103.08
3689.00,103.05
3688.00,103.03
3687.00,103.04
3686.00,103.04
3685.00,103.00
3684.00,102.94
3683.00,102.90
3682.00,102.89
3681.00,102.90
3680.00,102.93
3679.00,102.99
3678.00,103.06
3677.00,103.11
3676.00,103.10
3675.00,103.10
3674.00,103.15
3673.00,103.23
3672.00,103.23
3671.00,103.16
3670.00,103.07
3669.00,103.02
3668.00,103.02
3667.00,103.01
3666.00,102.96
3665.00,102.87
3664.00,102.81
3663.00,102.77
3662.00,102.77
3661.00,102.79
3660.00,102.83
3659.00,102.87
3658.00,102.89
3657.00,102.90
3656.00,102.91
3655.00,102.94
3654.00,103.00
3653.00,103.05
3652.00,103.10
3651.00,103.14
3650.00,103.17
3649.00,103.17
3648.00,103.15
3647.00,103.10
3646.00,103.03
3645.00,102.95
3644.00,102.87
3643.00,102.80
3642.00,102.76
3641.00,102.74
3640.00,102.74
3639.00,102.75
3638.00,102.75
3637.00,102.75
3636.00,102.74
3635.00,102.75
3634.00,102.77
3633.00,102.83
3632.00,102.92
3631.00,102.99
3630.00,103.00
3629.00,102.96
3628.00,102.93
3627.00,102.92
3626.00,102.89
3625.00,102.82
3624.00,102.75
3623.00,102.74
3622.00,102.78
3621.00,102.82
3620.00,102.84
3619.00,102.83
3618.00,102.83
3617.00,102.84
3616.00,102.85
3615.00,102.83
3614.00,102.80
3613.00,102.78
3612.00,102.79
3611.00,102.81
3610.00,102.84
3609.00,102.84
3608.00,102.81
3607.00,102.77
3606.00,102.71
3605.00,102.66
3604.00,102.62
3603.00,102.60
3602.00,102.60
3601.00,102.59
3600.00,102.59
3599.00,102.59
3598.00,102.59
3597.00,102.60
3596.00,102.60
3595.00,102.57
3594.00,102.54
3593.00,102.52
3592.00,102.53
3591.00,102.58
3590.00,102.63
3589.00,102.68
3588.00,102.69
3587.00,102.68
3586.00,102.65
3585.00,102.61
3584.00,102.55
3583.00,102.50
3582.00,102.49
3581.00,102.50
3580.00,102.51
3579.00,102.51
3578.00,102.49
3577.00,102.47
3576.00,102.46
3575.00,102.45
3574.00,102.45
3573.00,102.46
3572.00,102.47
3571.00,102.50
3570.00,102.52
3569.00,102.51
3568.00,102.48
3567.00,102.45
3566.00,102.44
3565.00,102.44
3564.00,102.43
3563.00,102.39
3562.00,102.36
3561.00,102.33
3560.00,102.33
3559.00,102.34
3558.00,102.35
3557.00,102.33
3556.00,102.31
3555.00,102.29
3554.00,102.27
3553.00,102.26
3552.00,102.25
3551.00,102.24
3550.00,102.22
3549.00,102.21
3548.00,102.20
3547.00,102.21
3546.00,102.21
3545.00,102.22
3544.00,102.22
3543.00,102.20
3542.00,102.18
3541.00,102.15
3540.00,102.13
3539.00,102.12
3538.00,102.12
3537.00,102.11
3536.00,102.09
3535.00,102.08
3534.00,102.07
3533.00,102.06
3532.00,102.06
3531.00,102.05
3530.00,102.05
3529.00,102.03
3528.00,102.01
3527.00,102.00
3526.00,102.00
3525.00,101.99
3524.00,101.98
3523.00,101.97
3522.00,101.96
3521.00,101.96
3520.00,101.96
3519.00,101.96
3518.00,101.95
3517.00,101.93
3516.00,101.91
3515.00,101.88
3514.00,101.85
3513.00,101.84
3512.00,101.83
3511.00,101.83
3510.00,101.83
3509.00,101.81
3508.00,101.80
3507.00,101.80
3506.00,101.80
3505.00,101.79
3504.00,101.77
3503.00,101.76
3502.00,101.76
3501.00,101.76
3500.00,101.76
3499.00,101.74
3498.00,101.71
3497.00,101.68
3496.00,101.67
3495.00,101.66
3494.00,101.66
3493.00,101.67
3492.00,101.69
3491.00,101.69
3490.00,101.69
3489.00,101.67
3488.00,101.64
3487.00,101.63
3486.00,101.63
3485.00,101.65
3484.00,101.67
3483.00,101.69
3482.00,101.69
3481.00,101.67
3480.00,101.65
3479.00,101.64
3478.00,101.63
3477.00,101.62
3476.00,101.60
3475.00,101.58
3474.00,101.55
3473.00,101.53
3472.00,101.52
3471.00,101.52
3470.00,101.53
3469.00,101.53
3468.00,101.53
3467.00,101.53
3466.00,101.54
3465.00,101.54
3464.00,101.54
3463.00,101.52
3462.00,101.50
3461.00,101.48
3460.00,101.47
3459.00,101.45
3458.00,101.43
3457.00,101.42
3456.00,101.41
3455.00,101.41
3454.00,101.41
3453.00,101.41
3452.00,101.43
3451.00,101.45
3450.00,101.47
3449.00,101.47
3448.00,101.45
3447.00,101.41
3446.00,101.36
3445.00,101.33
3444.00,101.32
3443.00,101.31
3442.00,101.31
3441.00,101.32
3440.00,101.34
3439.00,101.37
3438.00,101.39
3437.00,101.38
3436.00,101.34
3435.00,101.30
3434.00,101.28
3433.00,101.27
3432.00,101.27
3431.00,101.27
3430.00,101.26
3429.00,101.25
3428.00,101.24
3427.00,101.24
3426.00,101.24
3425.00,101.24
3424.00,101.24
3423.00,101.23
3422.00,101.21
3421.00,101.18
3420.00,101.16
3419.00,101.14
3418.00,101.12
3417.00,101.12
3416.00,101.11
3415.00,101.11
3414.00,101.10
3413.00,101.08
3412.00,101.06
3411.00,101.05
3410.00,101.05
3409.00,101.07
3408.00,101.08
3407.00,101.08
3406.00,101.06
3405.00,101.02
3404.00,100.98
3403.00,100.95
3402.00,100.94
3401.00,100.93
3400.00,100.93
3399.00,100.94
3398.00,100.95
3397.00,100.96
3396.00,100.96
3395.00,100.93
3394.00,100.89
3393.00,100.85
3392.00,100.80
3391.00,100.76
3390.00,100.73
3389.00,100.71
3388.00,100.70
3387.00,100.67
3386.00,100.65
3385.00,100.62
3384.00,100.60
3383.00,100.60
3382.00,100.62
3381.00,100.64
3380.00,100.65
3379.00,100.64
3378.00,100.62
3377.00,100.58
3376.00,100.54
3375.00,100.49
3374.00,100.43
3373.00,100.38
3372.00,100.33
3371.00,100.29
3370.00,100.27
3369.00,100.24
3368.00,100.21
3367.00,100.17
3366.00,100.12
3365.00,100.05
3364.00,99.98
3363.00,99.91
3362.00,99.86
3361.00,99.82
3360.00,99.78
3359.00,99.74
3358.00,99.69
3357.00,99.62
3356.00,99.55
3355.00,99.48
3354.00,99.43
3353.00,99.37
3352.00,99.30
3351.00,99.22
3350.00,99.15
3349.00,99.07
3348.00,99.00
3347.00,98.93
3346.00,98.84
3345.00,98.73
3344.00,98.62
3343.00,98.51
3342.00,98.42
3341.00,98.32
3340.00,98.21
3339.00,98.09
3338.00,97.97
3337.00,97.86
3336.00,97.77
3335.00,97.68
3334.00,97.57
3333.00,97.43
3332.00,97.27
3331.00,97.10
3330.00,96.93
3329.00,96.77
3328.00,96.62
3327.00,96.46
3326.00,96.28
3325.00,96.08
3324.00,95.86
3323.00,95.65
3322.00,95.45
3321.00,95.25
3320.00,95.07
3319.00,94.88
3318.00,94.70
3317.00,94.50
3316.00,94.29
3315.00,94.08
3314.00,93.88
3313.00,93.68
3312.00,93.46
3311.00,93.22
3310.00,92.95
3309.00,92.66
3308.00,92.36
3307.00,92.06
3306.00,91.75
3305.00,91.42
3304.00,91.09
3303.00,90.77
3302.00,90.45
3301.00,90.16
3300.00,89.89
3299.00,89.66
3298.00,89.47
3297.00,89.34
3296.00,89.24
3295.00,89.19
3294.00,89.17
3293.00,89.19
3292.00,89.24
3291.00,89.33
3290.00,89.45
3289.00,89.60
3288.00,89.77
3287.00,89.96
3286.00,90.17
3285.00,90.40
3284.00,90.63
3283.00,90.86
3282.00,91.08
3281.00,91.31
3280.00,91.53
3279.00,91.75
3278.00,91.97
3277.00,92.17
3276.00,92.35
3275.00,92.52
3274.00,92.68
3273.00,92.84
3272.00,93.00
3271.00,93.18
3270.00,93.36
3269.00,93.52
3268.00,93.67
3267.00,93.82
3266.00,93.98
3265.00,94.15
3264.00,94.32
3263.00,94.49
3262.00,94.64
3261.00,94.78
3260.00,94.92
3259.00,95.07
3258.00,95.23
3257.00,95.38
3256.00,95.51
3255.00,95.62
3254.00,95.73
3253.00,95.83
3252.00,95.95
3251.00,96.06
3250.00,96.19
3249.00,96.32
3248.00,96.45
3247.00,96.59
3246.00,96.72
3245.00,96.84
3244.00,96.95
3243.00,97.05
3242.00,97.14
3241.00,97.23
3240.00,97.33
3239.00,97.43
3238.00,97.53
3237.00,97.61
3236.00,97.68
3235.00,97.76
3234.00,97.84
3233.00,97.93
3232.00,98.02
3231.00,98.10
3230.00,98.16
3229.00,98.22
3228.00,98.27
3227.00,98.33
3226.00,98.39
3225.00,98.46
3224.00,98.52
3223.00,98.57
3222.00,98.61
3221.00,98.63
3220.00,98.65
3219.00,98.69
3218.00,98.73
3217.00,98.77
3216.00,98.81
3215.00,98.86
3214.00,98.90
3213.00,98.92
3212.00,98.92
3211.00,98.91
3210.00,98.90
3209.00,98.91
3208.00,98.94
3207.00,98.98
3206.00,99.02
3205.00,99.04
3204.00,99.07
3203.00,99.10
3202.00,99.14
3201.00,99.16
3200.00,99.17
3199.00,99.18
3198.00,99.19
3197.00,99.21
3196.00,99.24
3195.00,99.28
3194.00,99.31
3193.00,99.34
3192.00,99.37
3191.00,99.39
3190.00,99.42
3189.00,99.45
3188.00,99.49
3187.00,99.54
3186.00,99.58
3185.00,99.62
3184.00,99.64
3183.00,99.67
3182.00,99.70
3181.00,99.74
3180.00,99.78
3179.00,99.82
3178.00,99.87
3177.00,99.92
3176.00,99.96
3175.00,100.00
3174.00,100.02
3173.00,100.03
3172.00,100.05
3171.00,100.08
3170.00,100.14
3169.00,100.21
3168.00,100.26
3167.00,100.30
3166.00,100.32
3165.00,100.33
3164.00,100.35
3163.00,100.38
3162.00,100.43
3161.00,100.48
3160.00,100.53
3159.00,100.56
3158.00,100.58
3157.00,100.58
3156.00,100.58
3155.00,100.59
3154.00,100.61
3153.00,100.64
3152.00,100.66
3151.00,100.68
3150.00,100.70
3149.00,100.71
3148.00,100.72
3147.00,100.75
3146.00,100.78
3145.00,100.80
3144.00,100.81
3143.00,100.81
3142.00,100.81
3141.00,100.81
3140.00,100.81
3139.00,100.82
3138.00,100.82
3137.00,100.82
3136.00,100.82
3135.00,100.81
3134.00,100.80
3133.00,100.80
3132.00,100.81
3131.00,100.81
3130.00,100.81
3129.00,100.79
3128.00,100.77
3127.00,100.76
3126.00,100.75
3125.00,100.74
3124.00,100.72
3123.00,100.71
3122.00,100.69
3121.00,100.67
3120.00,100.65
3119.00,100.64
3118.00,100.62
3117.00,100.61
3116.00,100.60
3115.00,100.57
3114.00,100.53
3113.00,100.49
3112.00,100.46
3111.00,100.44
3110.00,100.42
3109.00,100.40
3108.00,100.37
3107.00,100.33
3106.00,100.28
3105.00,100.24
3104.00,100.21
3103.00,100.17
3102.00,100.12
3101.00,100.07
3100.00,100.02
3099.00,99.97
3098.00,99.93
3097.00,99.90
3096.00,99.86
3095.00,99.83
3094.00,99.79
3093.00,99.76
3092.00,99.72
3091.00,99.68
3090.00,99.64
3089.00,99.60
3088.00,99.56
3087.00,99.54
3086.00,99.52
3085.00,99.52
3084.00,99.51
3083.00,99.50
3082.00,99.48
3081.00,99.45
3080.00,99.42
3079.00,99.40
3078.00,99.38
3077.00,99.37
3076.00,99.37
3075.00,99.37
3074.00,99.38
3073.00,99.40
3072.00,99.41
3071.00,99.40
3070.00,99.40
3069.00,99.39
3068.00,99.39
3067.00,99.40
3066.00,99.41
3065.00,99.44
3064.00,99.48
3063.00,99.52
3062.00,99.56
3061.00,99.58
3060.00,99.60
3059.00,99.62
3058.00,99.67
3057.00,99.73
3056.00,99.80
3055.00,99.87
3054.00,99.93
3053.00,99.99
3052.00,100.04
3051.00,100.10
3050.00,100.15
3049.00,100.21
3048.00,100.29
3047.00,100.37
3046.00,100.44
3045.00,100.50
3044.00,100.56
3043.00,100.61
3042.00,100.66
3041.00,100.71
3040.00,100.76
3039.00,100.80
3038.00,100.84
3037.00,100.86
3036.00,100.88
3035.00,100.91
3034.00,100.94
3033.00,100.97
3032.00,101.00
3031.00,101.02
3030.00,101.06
3029.00,101.09
3028.00,101.11
3027.00,101.13
3026.00,101.15
3025.00,101.16
3024.00,101.18
3023.00,101.20
3022.00,101.21
3021.00,101.23
3020.00,101.24
3019.00,101.25
3018.00,101.25
3017.00,101.25
3016.00,101.25
3015.00,101.26
3014.00,101.28
3013.00,101.30
3012.00,101.32
3011.00,101.31
3010.00,101.30
3009.00,101.28
3008.00,101.27
3007.00,101.27
3006.00,101.27
3005.00,101.26
3004.00,101.24
3003.00,101.21
3002.00,101.19
3001.00,101.19
3000.00,101.19
2999.00,101.19
2998.00,101.19
2997.00,101.18
2996.00,101.18
2995.00,101.17
2994.00,101.17
2993.00,101.15
2992.00,101.12
2991.00,101.08
2990.00,101.03
2989.00,100.97
2988.00,100.91
2987.00,100.85
2986.00,100.79
2985.00,100.73
2984.00,100.67
2983.00,100.61
2982.00,100.55
2981.00,100.47
2980.00,100.39
2979.00,100.30
2978.00,100.20
2977.00,100.10
2976.00,99.98
2975.00,99.85
2974.00,99.72
2973.00,99.59
2972.00,99.47
2971.00,99.35
2970.00,99.21
2969.00,99.06
2968.00,98.90
2967.00,98.74
2966.00,98.57
2965.00,98.41
2964.00,98.25
2963.00,98.08
2962.00,97.91
2961.00,97.72
2960.00,97.51
2959.00,97.29
2958.00,97.04
2957.00,96.76
2956.00,96.46
2955.00,96.13
2954.00,95.77
2953.00,95.38
2952.00,94.98
2951.00,94.58
2950.00,94.20
2949.00,93.84
2948.00,93.51
2947.00,93.20
2946.00,92.92
2945.00,92.68
2944.00,92.46
2943.00,92.28
2942.00,92.11
2941.00,91.96
2940.00,91.83
2939.00,91.71
2938.00,91.62
2937.00,91.54
2936.00,91.49
2935.00,91.46
2934.00,91.47
2933.00,91.53
2932.00,91.63
2931.00,91.76
2930.00,91.89
2929.00,92.03
2928.00,92.17
2927.00,92.30
2926.00,92.45
2925.00,92.60
2924.00,92.77
2923.00,92.96
2922.00,93.16
2921.00,93.35
2920.00,93.55
2919.00,93.74
2918.00,93.94
2917.00,94.13
2916.00,94.32
2915.00,94.50
2914.00,94.68
2913.00,94.84
2912.00,95.00
2911.00,95.15
2910.00,95.29
2909.00,95.40
2908.00,95.49
2907.00,95.57
2906.00,95.64
2905.00,95.69
2904.00,95.74
2903.00,95.79
2902.00,95.85
2901.00,95.93
2900.00,96.03
2899.00,96.15
2898.00,96.28
2897.00,96.41
2896.00,96.54
2895.00,96.68
2894.00,96.82
2893.00,96.97
2892.00,97.09
2891.00,97.19
2890.00,97.26
2889.00,97.30
2888.00,97.32
2887.00,97.32
2886.00,97.30
2885.00,97.26
2884.00,97.20
2883.00,97.10
2882.00,96.98
2881.00,96.82
2880.00,96.64
2879.00,96.43
2878.00,96.22
2877.00,95.99
2876.00,95.75
2875.00,95.52
2874.00,95.30
2873.00,95.10
2872.00,94.92
2871.00,94.77
2870.00,94.65
2869.00,94.55
2868.00,94.48
2867.00,94.44
2866.00,94.42
2865.00,94.42
2864.00,94.43
2863.00,94.45
2862.00,94.48
2861.00,94.52
2860.00,94.57
2859.00,94.66
2858.00,94.77
2857.00,94.92
2856.00,95.07
2855.00,95.24
2854.00,95.42
2853.00,95.63
2852.00,95.87
2851.00,96.16
2850.00,96.49
2849.00,96.83
2848.00,97.18
2847.00,97.52
2846.00,97.85
2845.00,98.16
2844.00,98.44
2843.00,98.69
2842.00,98.93
2841.00,99.16
2840.00,99.37
2839.00,99.55
2838.00,99.69
2837.00,99.80
2836.00,99.89
2835.00,99.97
2834.00,100.03
2833.00,100.08
2832.00,100.11
2831.00,100.15
2830.00,100.19
2829.00,100.23
2828.00,100.28
2827.00,100.33
2826.00,100.37
2825.00,100.40
2824.00,100.43
2823.00,100.46
2822.00,100.48
2821.00,100.49
2820.00,100.50
2819.00,100.51
2818.00,100.54
2817.00,100.57
2816.00,100.61
2815.00,100.65
2814.00,100.69
2813.00,100.72
2812.00,100.75
2811.00,100.78
2810.00,100.81
2809.00,100.83
2808.00,100.85
2807.00,100.86
2806.00,100.87
2805.00,100.88
2804.00,100.89
2803.00,100.90
2802.00,100.91
2801.00,100.93
2800.00,100.95
2799.00,100.98
2798.00,101.00
2797.00,101.02
2796.00,101.03
2795.00,101.05
2794.00,101.07
2793.00,101.08
2792.00,101.09
2791.00,101.10
2790.00,101.12
2789.00,101.13
2788.00,101.14
2787.00,101.15
2786.00,101.16
2785.00,101.17
2784.00,101.18
2783.00,101.19
2782.00,101.20
2781.00,101.21
2780.00,101.22
2779.00,101.22
2778.00,101.23
2777.00,101.24
2776.00,101.26
2775.00,101.28
2774.00,101.29
2773.00,101.30
2772.00,101.31
2771.00,101.32
2770.00,101.33
2769.00,101.34
2768.00,101.36
2767.00,101.37
2766.00,101.39
2765.00,101.39
2764.00,101.37
2763.00,101.36
2762.00,101.36
2761.00,101.38
2760.00,101.40
2759.00,101.41
2758.00,101.42
2757.00,101.41
2756.00,101.42
2755.00,101.42
2754.00,101.42
2753.00,101.40
2752.00,101.37
2751.00,101.34
2750.00,101.33
2749.00,101.33
2748.00,101.34
2747.00,101.36
2746.00,101.38
2745.00,101.40
2744.00,101.40
2743.00,101.40
2742.00,101.40
2741.00,101.40
2740.00,101.42
2739.00,101.43
2738.00,101.44
2737.00,101.45
2736.00,101.46
2735.00,101.46
2734.00,101.46
2733.00,101.47
2732.00,101.47
2731.00,101.49
2730.00,101.51
2729.00,101.53
2728.00,101.53
2727.00,101.52
2726.00,101.51
2725.00,101.51
2724.00,101.52
2723.00,101.54
2722.00,101.55
2721.00,101.56
2720.00,101.57
2719.00,101.58
2718.00,101.58
2717.00,101.58
2716.00,101.58
2715.00,101.57
2714.00,101.57
2713.00,101.57
2712.00,101.57
2711.00,101.58
2710.00,101.58
2709.00,101.58
2708.00,101.58
2707.00,101.58
2706.00,101.58
2705.00,101.59
2704.00,101.59
2703.00,101.60
2702.00,101.61
2701.00,101.61
2700.00,101.62
2699.00,101.62
2698.00,101.63
2697.00,101.64
2696.00,101.64
2695.00,101.65
2694.00,101.65
2693.00,101.65
2692.00,101.65
2691.00,101.65
2690.00,101.64
2689.00,101.64
2688.00,101.63
2687.00,101.64
2686.00,101.64
2685.00,101.65
2684.00,101.66
2683.00,101.66
2682.00,101.66
2681.00,101.66
2680.00,101.67
2679.00,101.68
2678.00,101.69
2677.00,101.69
2676.00,101.69
2675.00,101.69
2674.00,101.70
2673.00,101.70
2672.00,101.70
2671.00,101.69
2670.00,101.69
2669.00,101.69
2668.00,101.68
2667.00,101.68
2666.00,101.68
2665.00,101.67
2664.00,101.66
2663.00,101.66
2662.00,101.65
2661.00,101.66
2660.00,101.66
2659.00,101.65
2658.00,101.64
2657.00,101.63
2656.00,101.62
2655.00,101.61
2654.00,101.61
2653.00,101.61
2652.00,101.61
2651.00,101.61
2650.00,101.61
2649.00,101.61
2648.00,101.62
2647.00,101.63
2646.00,101.63
2645.00,101.62
2644.00,101.60
2643.00,101.57
2642.00,101.56
2641.00,101.55
2640.00,101.56
2639.00,101.56
2638.00,101.55
2637.00,101.55
2636.00,101.54
2635.00,101.54
2634.00,101.54
2633.00,101.54
2632.00,101.54
2631.00,101.54
2630.00,101.54
2629.00,101.53
2628.00,101.52
2627.00,101.51
2626.00,101.50
2625.00,101.50
2624.00,101.51
2623.00,101.52
2622.00,101.53
2621.00,101.53
2620.00,101.52
2619.00,101.50
2618.00,101.48
2617.00,101.46
2616.00,101.45
2615.00,101.45
2614.00,101.45
2613.00,101.44
2612.00,101.43
2611.00,101.43
2610.00,101.44
2609.00,101.46
2608.00,101.48
2607.00,101.49
2606.00,101.49
2605.00,101.46
2604.00,101.44
2603.00,101.43
2602.00,101.44
2601.00,101.47
2600.00,101.49
2599.00,101.50
2598.00,101.50
2597.00,101.50
2596.00,101.50
2595.00,101.50
2594.00,101.49
2593.00,101.47
2592.00,101.46
2591.00,101.46
2590.00,101.46
2589.00,101.46
2588.00,101.44
2587.00,101.42
2586.00,101.42
2585.00,101.42
2584.00,101.43
2583.00,101.43
2582.00,101.43
2581.00,101.42
2580.00,101.42
2579.00,101.41
2578.00,101.42
2577.00,101.44
2576.00,101.47
2575.00,101.49
2574.00,101.52
2573.00,101.53
2572.00,101.52
2571.00,101.51
2570.00,101.49
2569.00,101.47
2568.00,101.46
2567.00,101.44
2566.00,101.44
2565.00,101.44
2564.00,101.44
2563.00,101.44
2562.00,101.44
2561.00,101.45
2560.00,101.47
2559.00,101.49
2558.00,101.51
2557.00,101.52
2556.00,101.52
2555.00,101.50
2554.00,101.47
2553.00,101.44
2552.00,101.42
2551.00,101.42
2550.00,101.44
2549.00,101.46
2548.00,101.48
2547.00,101.49
2546.00,101.50
2545.00,101.50
2544.00,101.49
2543.00,101.48
2542.00,101.48
2541.00,101.49
2540.00,101.49
2539.00,101.48
2538.00,101.47
2537.00,101.46
2536.00,101.46
2535.00,101.47
2534.00,101.50
2533.00,101.51
2532.00,101.51
2531.00,101.50
2530.00,101.49
2529.00,101.50
2528.00,101.52
2527.00,101.56
2526.00,101.58
2525.00,101.56
2524.00,101.52
2523.00,101.47
2522.00,101.45
2521.00,101.45
2520.00,101.48
2519.00,101.51
2518.00,101.53
2517.00,101.52
2516.00,101.50
2515.00,101.49
2514.00,101.50
2513.00,101.51
2512.00,101.51
2511.00,101.51
2510.00,101.52
2509.00,101.54
2508.00,101.55
2507.00,101.53
2506.00,101.50
2505.00,101.49
2504.00,101.50
2503.00,101.54
2502.00,101.58
2501.00,101.59
2500.00,101.57
2499.00,101.54
2498.00,101.51
2497.00,101.50
2496.00,101.49
2495.00,101.49
2494.00,101.49
2493.00,101.50
2492.00,101.52
2491.00,101.53
2490.00,101.54
2489.00,101.54
2488.00,101.52
2487.00,101.50
2486.00,101.48
2485.00,101.47
2484.00,101.48
2483.00,101.49
2482.00,101.51
2481.00,101.51
2480.00,101.50
2479.00,101.49
2478.00,101.49
2477.00,101.48
2476.00,101.48
2475.00,101.49
2474.00,101.51
2473.00,101.53
2472.00,101.53
2471.00,101.53
2470.00,101.52
2469.00,101.52
2468.00,101.53
2467.00,101.55
2466.00,101.55
2465.00,101.54
2464.00,101.53
2463.00,101.52
2462.00,101.52
2461.00,101.53
2460.00,101.53
2459.00,101.52
2458.00,101.51
2457.00,101.50
2456.00,101.50
2455.00,101.50
2454.00,101.48
2453.00,101.46
2452.00,101.45
2451.00,101.45
2450.00,101.46
2449.00,101.48
2448.00,101.49
2447.00,101.50
2446.00,101.51
2445.00,101.52
2444.00,101.52
2443.00,101.51
2442.00,101.49
2441.00,101.48
2440.00,101.48
2439.00,101.50
2438.00,101.51
2437.00,101.51
2436.00,101.50
2435.00,101.50
2434.00,101.51
2433.00,101.53
2432.00,101.55
2431.00,101.56
2430.00,101.56
2429.00,101.55
2428.00,101.52
2427.00,101.50
2426.00,101.48
2425.00,101.48
2424.00,101.51
2423.00,101.53
2422.00,101.54
2421.00,101.53
2420.00,101.51
2419.00,101.50
2418.00,101.50
2417.00,101.51
2416.00,101.51
2415.00,101.52
2414.00,101.52
2413.00,101.53
2412.00,101.55
2411.00,101.57
2410.00,101.59
2409.00,101.61
2408.00,101.62
2407.00,101.62
2406.00,101.62
2405.00,101.61
2404.00,101.61
2403.00,101.61
2402.00,101.60
2401.00,101.58
2400.00,101.57
2399.00,101.57
2398.00,101.58
2397.00,101.60
2396.00,101.62
2395.00,101.64
2394.00,101.64
2393.00,101.63
2392.00,101.62
2391.00,101.62
2390.00,101.62
2389.00,101.62
2388.00,101.62
2387.00,101.63
2386.00,101.65
2385.00,101.67
2384.00,101.70
2383.00,101.72
2382.00,101.75
2381.00,101.76
2380.00,101.76
2379.00,101.75
2378.00,101.74
2377.00,101.74
2376.00,101.75
2375.00,101.77
2374.00,101.79
2373.00,101.79
2372.00,101.77
2371.00,101.76
2370.00,101.76
2369.00,101.78
2368.00,101.78
2367.00,101.76
2366.00,101.74
2365.00,101.76
2364.00,101.82
2363.00,101.86
2362.00,101.87
2361.00,101.84
2360.00,101.80
2359.00,101.77
2358.00,101.76
2357.00,101.75
2356.00,101.73
2355.00,101.69
2354.00,101.63
2353.00,101.57
2352.00,101.54
2351.00,101.57
2350.00,101.65
2349.00,101.72
2348.00,101.72
2347.00,101.70
2346.00,101.69
2345.00,101.72
2344.00,101.80
2343.00,101.88
2342.00,101.90
2341.00,101.84
2340.00,101.76
2339.00,101.68
2338.00,101.60
2337.00,101.55
2336.00,101.51
2335.00,101.51
2334.00,101.52
2333.00,101.53
2332.00,101.54
2331.00,101.56
2330.00,101.57
2329.00,101.57
2328.00,101.54
2327.00,101.49
2326.00,101.42
2325.00,101.34
2324.00,101.26
2323.00,101.23
2322.00,101.24
2321.00,101.25
2320.00,101.26
2319.00,101.26
2318.00,101.27
2317.00,101.27
2316.00,101.25
2315.00,101.22
2314.00,101.20
2313.00,101.21
2312.00,101.24
2311.00,101.28
2310.00,101.28
2309.00,101.28
2308.00,101.28
2307.00,101.30
2306.00,101.33
2305.00,101.36
2304.00,101.38
2303.00,101.38
2302.00,101.39
2301.00,101.40
2300.00,101.40
2299.00,101.40
2298.00,101.39
2297.00,101.37
2296.00,101.36
2295.00,101.38
2294.00,101.39
2293.00,101.37
2292.00,101.33
2291.00,101.27
2290.00,101.21
2289.00,101.17
2288.00,101.16
2287.00,101.17
2286.00,101.17
2285.00,101.17
2284.00,101.17
2283.00,101.16
2282.00,101.16
2281.00,101.16
2280.00,101.16
2279.00,101.16
2278.00,101.14
2277.00,101.11
2276.00,101.10
2275.00,101.10
2274.00,101.11
2273.00,101.13
2272.00,101.15
2271.00,101.15
2270.00,101.14
2269.00,101.12
2268.00,101.10
2267.00,101.10
2266.00,101.10
2265.00,101.09
2264.00,101.08
2263.00,101.07
2262.00,101.07
2261.00,101.07
2260.00,101.06
2259.00,101.04
2258.00,101.02
2257.00,101.00
2256.00,100.99
2255.00,100.99
2254.00,101.00
2253.00,101.00
2252.00,101.00
2251.00,100.99
2250.00,100.96
2249.00,100.93
2248.00,100.90
2247.00,100.88
2246.00,100.87
2245.00,100.85
2244.00,100.85
2243.00,100.87
2242.00,100.90
2241.00,100.91
2240.00,100.90
2239.00,100.88
2238.00,100.87
2237.00,100.87
2236.00,100.89
2235.00,100.92
2234.00,100.95
2233.00,100.95
2232.00,100.94
2231.00,100.92
2230.00,100.89
2229.00,100.86
2228.00,100.83
2227.00,100.81
2226.00,100.79
2225.00,100.76
2224.00,100.74
2223.00,100.72
2222.00,100.71
2221.00,100.74
2220.00,100.77
2219.00,100.82
2218.00,100.84
2217.00,100.84
2216.00,100.82
2215.00,100.80
2214.00,100.80
2213.00,100.80
2212.00,100.79
2211.00,100.75
2210.00,100.69
2209.00,100.64
2208.00,100.61
2207.00,100.60
2206.00,100.57
2205.00,100.53
2204.00,100.51
2203.00,100.51
2202.00,100.51
2201.00,100.48
2200.00,100.45
2199.00,100.44
2198.00,100.46
2197.00,100.52
2196.00,100.57
2195.00,100.60
2194.00,100.58
2193.00,100.52
2192.00,100.44
2191.00,100.38
2190.00,100.34
2189.00,100.34
2188.00,100.38
2187.00,100.42
2186.00,100.45
2185.00,100.43
2184.00,100.39
2183.00,100.38
2182.00,100.40
2181.00,100.43
2180.00,100.44
2179.00,100.45
2178.00,100.45
2177.00,100.49
2176.00,100.54
2175.00,100.59
2174.00,100.60
2173.00,100.57
2172.00,100.53
2171.00,100.48
2170.00,100.41
2169.00,100.33
2168.00,100.25
2167.00,100.21
2166.00,100.20
2165.00,100.18
2164.00,100.15
2163.00,100.08
2162.00,100.00
2161.00,99.95
2160.00,99.99
2159.00,100.14
2158.00,100.34
2157.00,100.53
2156.00,100.65
2155.00,100.70
2154.00,100.70
2153.00,100.64
2152.00,100.56
2151.00,100.49
2150.00,100.47
2149.00,100.51
2148.00,100.60
2147.00,100.69
2146.00,100.74
2145.00,100.72
2144.00,100.67
2143.00,100.62
2142.00,100.59
2141.00,100.60
2140.00,100.64
2139.00,100.70
2138.00,100.77
2137.00,100.82
2136.00,100.86
2135.00,100.90
2134.00,100.97
2133.00,101.04
2132.00,101.09
2131.00,101.11
2130.00,101.09
2129.00,101.06
2128.00,101.03
2127.00,101.01
2126.00,101.01
2125.00,101.02
2124.00,101.04
2123.00,101.05
2122.00,101.03
2121.00,100.99
2120.00,100.95
2119.00,100.93
2118.00,100.94
2117.00,100.94
2116.00,100.94
2115.00,100.93
2114.00,100.91
2113.00,100.91
2112.00,100.91
2111.00,100.91
2110.00,100.89
2109.00,100.86
2108.00,100.85
2107.00,100.87
2106.00,100.91
2105.00,100.93
2104.00,100.94
2103.00,100.93
2102.00,100.92
2101.00,100.91
2100.00,100.91
2099.00,100.92
2098.00,100.93
2097.00,100.96
2096.00,101.01
2095.00,101.04
2094.00,101.04
2093.00,100.99
2092.00,100.93
2091.00,100.87
2090.00,100.83
2089.00,100.82
2088.00,100.83
2087.00,100.84
2086.00,100.84
2085.00,100.82
2084.00,100.80
2083.00,100.81
2082.00,100.81
2081.00,100.81
2080.00,100.81
2079.00,100.81
2078.00,100.80
2077.00,100.77
2076.00,100.72
2075.00,100.68
2074.00,100.66
2073.00,100.68
2072.00,100.73
2071.00,100.80
2070.00,100.84
2069.00,100.84
2068.00,100.80
2067.00,100.77
2066.00,100.75
2065.00,100.74
2064.00,100.74
2063.00,100.76
2062.00,100.81
2061.00,100.87
2060.00,100.90
2059.00,100.89
2058.00,100.85
2057.00,100.79
2056.00,100.73
2055.00,100.66
2054.00,100.56
2053.00,100.46
2052.00,100.42
2051.00,100.46
2050.00,100.52
2049.00,100.56
2048.00,100.54
2047.00,100.50
2046.00,100.46
2045.00,100.42
2044.00,100.39
2043.00,100.37
2042.00,100.36
2041.00,100.36
2040.00,100.36
2039.00,100.36
2038.00,100.33
2037.00,100.31
2036.00,100.29
2035.00,100.31
2034.00,100.35
2033.00,100.37
2032.00,100.38
2031.00,100.37
2030.00,100.37
2029.00,100.41
2028.00,100.47
2027.00,100.54
2026.00,100.58
2025.00,100.57
2024.00,100.54
2023.00,100.49
2022.00,100.42
2021.00,100.37
2020.00,100.37
2019.00,100.43
2018.00,100.48
2017.00,100.46
2016.00,100.39
2015.00,100.30
2014.00,100.26
2013.00,100.28
2012.00,100.35
2011.00,100.44
2010.00,100.50
2009.00,100.53
2008.00,100.53
2007.00,100.55
2006.00,100.58
2005.00,100.60
2004.00,100.61
2003.00,100.60
2002.00,100.61
2001.00,100.63
2000.00,100.66
1999.00,100.69
1998.00,100.70
1997.00,100.66
1996.00,100.60
1995.00,100.56
1994.00,100.55
1993.00,100.53
1992.00,100.51
1991.00,100.48
1990.00,100.46
1989.00,100.44
1988.00,100.43
1987.00,100.43
1986.00,100.43
1985.00,100.41
1984.00,100.37
1983.00,100.32
1982.00,100.27
1981.00,100.22
1980.00,100.18
1979.00,100.19
1978.00,100.25
1977.00,100.35
1976.00,100.42
1975.00,100.46
1974.00,100.47
1973.00,100.47
1972.00,100.47
1971.00,100.47
1970.00,100.47
1969.00,100.49
1968.00,100.55
1967.00,100.62
1966.00,100.67
1965.00,100.68
1964.00,100.66
1963.00,100.65
1962.00,100.65
1961.00,100.67
1960.00,100.67
1959.00,100.69
1958.00,100.72
1957.00,100.77
1956.00,100.83
1955.00,100.87
1954.00,100.90
1953.00,100.91
1952.00,100.90
1951.00,100.88
1950.00,100.86
1949.00,100.81
1948.00,100.76
1947.00,100.72
1946.00,100.73
1945.00,100.78
1944.00,100.84
1943.00,100.90
1942.00,100.94
1941.00,100.96
1940.00,100.96
1939.00,100.94
1938.00,100.94
1937.00,100.96
1936.00,100.97
1935.00,100.96
1934.00,100.94
1933.00,100.92
1932.00,100.90
1931.00,100.90
1930.00,100.89
1929.00,100.90
1928.00,100.94
1927.00,100.98
1926.00,101.00
1925.00,100.99
1924.00,100.97
1923.00,100.97
1922.00,100.97
1921.00,100.96
1920.00,100.93
1919.00,100.91
1918.00,100.92
1917.00,100.94
1916.00,100.96
1915.00,100.96
1914.00,100.95
1913.00,100.96
1912.00,100.98
1911.00,101.00
1910.00,101.01
1909.00,101.00
1908.00,101.00
1907.00,100.99
1906.00,100.99
1905.00,100.98
1904.00,100.99
1903.00,101.00
1902.00,101.02
1901.00,101.04
1900.00,101.06
1899.00,101.08
1898.00,101.07
1897.00,101.05
1896.00,101.02
1895.00,101.02
1894.00,101.03
1893.00,101.03
1892.00,101.02
1891.00,101.03
1890.00,101.05
1889.00,101.04
1888.00,101.03
1887.00,101.02
1886.00,101.02
1885.00,101.03
1884.00,101.05
1883.00,101.07
1882.00,101.09
1881.00,101.10
1880.00,101.09
1879.00,101.08
1878.00,101.08
1877.00,101.08
1876.00,101.07
1875.00,101.05
1874.00,101.05
1873.00,101.06
1872.00,101.07
1871.00,101.08
1870.00,101.08
1869.00,101.07
1868.00,101.06
1867.00,101.06
1866.00,101.05
1865.00,101.06
1864.00,101.07
1863.00,101.09
1862.00,101.11
1861.00,101.11
1860.00,101.11
1859.00,101.11
1858.00,101.10
1857.00,101.10
1856.00,101.12
1855.00,101.16
1854.00,101.19
1853.00,101.20
1852.00,101.19
1851.00,101.17
1850.00,101.15
1849.00,101.13
1848.00,101.13
1847.00,101.13
1846.00,101.13
1845.00,101.13
1844.00,101.13
1843.00,101.13
1842.00,101.13
1841.00,101.12
1840.00,101.12
1839.00,101.13
1838.00,101.15
1837.00,101.15
1836.00,101.14
1835.00,101.13
1834.00,101.12
1833.00,101.11
1832.00,101.12
1831.00,101.14
1830.00,101.14
1829.00,101.13
1828.00,101.11
1827.00,101.10
1826.00,101.10
1825.00,101.12
1824.00,101.14
1823.00,101.15
1822.00,101.15
1821.00,101.15
1820.00,101.13
1819.00,101.12
1818.00,101.12
1817.00,101.13
1816.00,101.13
1815.00,101.13
1814.00,101.12
1813.00,101.12
1812.00,101.12
1811.00,101.14
1810.00,101.14
1809.00,101.13
1808.00,101.10
1807.00,101.08
1806.00,101.08
1805.00,101.09
1804.00,101.10
1803.00,101.11
1802.00,101.10
1801.00,101.10
1800.00,101.10
1799.00,101.11
1798.00,101.12
1797.00,101.13
1796.00,101.14
1795.00,101.15
1794.00,101.14
1793.00,101.11
1792.00,101.09
1791.00,101.09
1790.00,101.09
1789.00,101.08
1788.00,101.07
1787.00,101.06
1786.00,101.05
1785.00,101.03
1784.00,101.03
1783.00,101.03
1782.00,101.04
1781.00,101.04
1780.00,101.03
1779.00,101.02
1778.00,101.02
1777.00,101.04
1776.00,101.06
1775.00,101.08
1774.00,101.09
1773.00,101.08
1772.00,101.06
1771.00,101.03
1770.00,100.99
1769.00,100.94
1768.00,100.89
1767.00,100.87
1766.00,100.87
1765.00,100.88
1764.00,100.88
1763.00,100.88
1762.00,100.87
1761.00,100.85
1760.00,100.83
1759.00,100.80
1758.00,100.78
1757.00,100.77
1756.00,100.75
1755.00,100.72
1754.00,100.70
1753.00,100.68
1752.00,100.66
1751.00,100.64
1750.00,100.63
1749.00,100.61
1748.00,100.58
1747.00,100.55
1746.00,100.51
1745.00,100.46
1744.00,100.42
1743.00,100.40
1742.00,100.40
1741.00,100.40
1740.00,100.40
1739.00,100.39
1738.00,100.37
1737.00,100.34
1736.00,100.33
1735.00,100.33
1734.00,100.33
1733.00,100.33
1732.00,100.29
1731.00,100.24
1730.00,100.19
1729.00,100.17
1728.00,100.17
1727.00,100.17
1726.00,100.18
1725.00,100.17
1724.00,100.15
1723.00,100.13
1722.00,100.14
1721.00,100.14
1720.00,100.15
1719.00,100.18
1718.00,100.20
1717.00,100.21
1716.00,100.18
1715.00,100.14
1714.00,100.10
1713.00,100.06
1712.00,100.04
1711.00,100.03
1710.00,100.02
1709.00,100.02
1708.00,100.01
1707.00,100.01
1706.00,100.01
1705.00,100.01
1704.00,100.01
1703.00,100.01
1702.00,100.00
1701.00,99.99
1700.00,99.97
1699.00,99.98
1698.00,99.97
1697.00,99.92
1696.00,99.86
1695.00,99.78
1694.00,99.69
1693.00,99.55
1692.00,99.41
1691.00,99.30
1690.00,99.20
1689.00,99.10
1688.00,98.98
1687.00,98.87
1686.00,98.73
1685.00,98.49
1684.00,98.16
1683.00,97.87
1682.00,97.58
1681.00,97.28
1680.00,96.99
1679.00,96.71
1678.00,96.46
1677.00,96.18
1676.00,95.86
1675.00,95.51
1674.00,95.19
1673.00,94.89
1672.00,94.57
1671.00,94.20
1670.00,93.77
1669.00,93.28
1668.00,92.77
1667.00,92.30
1666.00,91.87
1665.00,91.45
1664.00,91.01
1663.00,90.55
1662.00,90.11
1661.00,89.70
1660.00,89.30
1659.00,88.92
1658.00,88.59
1657.00,88.28
1656.00,87.98
1655.00,87.63
1654.00,87.14
1653.00,86.47
1652.00,85.82
1651.00,85.26
1650.00,84.70
1649.00,84.10
1648.00,83.39
1647.00,82.56
1646.00,81.71
1645.00,80.90
1644.00,80.12
1643.00,79.36
1642.00,78.60
1641.00,77.86
1640.00,77.17
1639.00,76.57
1638.00,76.09
1637.00,75.71
1636.00,75.45
1635.00,75.36
1634.00,75.42
1633.00,75.56
1632.00,75.77
1631.00,76.08
1630.00,76.46
1629.00,76.91
1628.00,77.39
1627.00,77.86
1626.00,78.31
1625.00,78.79
1624.00,79.33
1623.00,79.95
1622.00,80.59
1621.00,81.17
1620.00,81.72
1619.00,82.32
1618.00,83.04
1617.00,83.88
1616.00,84.71
1615.00,85.39
1614.00,85.92
1613.00,86.40
1612.00,86.92
1611.00,87.45
1610.00,87.99
1609.00,88.53
1608.00,89.09
1607.00,89.62
1606.00,90.12
1605.00,90.60
1604.00,91.08
1603.00,91.55
1602.00,91.97
1601.00,92.36
1600.00,92.71
1599.00,93.02
1598.00,93.28
1597.00,93.52
1596.00,93.74
1595.00,93.93
1594.00,94.08
1593.00,94.19
1592.00,94.29
1591.00,94.37
1590.00,94.40
1589.00,94.40
1588.00,94.38
1587.00,94.32
1586.00,94.24
1585.00,94.14
1584.00,94.04
1583.00,93.93
1582.00,93.78
1581.00,93.62
1580.00,93.46
1579.00,93.30
1578.00,93.11
1577.00,92.87
1576.00,92.58
1575.00,92.25
1574.00,91.90
1573.00,91.56
1572.00,91.25
1571.00,90.92
1570.00,90.52
1569.00,90.10
1568.00,89.71
1567.00,89.35
1566.00,88.98
1565.00,88.62
1564.00,88.28
1563.00,87.98
1562.00,87.70
1561.00,87.41
1560.00,87.01
1559.00,86.46
1558.00,85.95
1557.00,85.51
1556.00,85.09
1555.00,84.65
1554.00,84.20
1553.00,83.73
1552.00,83.25
1551.00,82.74
1550.00,82.20
1549.00,81.67
1548.00,81.19
1547.00,80.73
1546.00,80.29
1545.00,79.85
1544.00,79.47
1543.00,79.14
1542.00,78.88
1541.00,78.68
1540.00,78.59
1539.00,78.59
1538.00,78.60
1537.00,78.61
1536.00,78.64
1535.00,78.77
1534.00,79.04
1533.00,79.41
1532.00,79.77
1531.00,80.10
1530.00,80.43
1529.00,80.81
1528.00,81.24
1527.00,81.73
1526.00,82.25
1525.00,82.72
1524.00,83.15
1523.00,83.59
1522.00,84.14
1521.00,84.73
1520.00,85.23
1519.00,85.61
1518.00,85.99
1517.00,86.45
1516.00,86.92
1515.00,87.34
1514.00,87.72
1513.00,88.08
1512.00,88.44
1511.00,88.79
1510.00,89.13
1509.00,89.47
1508.00,89.88
1507.00,90.40
1506.00,90.92
1505.00,91.27
1504.00,91.48
1503.00,91.66
1502.00,91.88
1501.00,92.13
1500.00,92.38
1499.00,92.63
1498.00,92.89
1497.00,93.17
1496.00,93.42
1495.00,93.63
1494.00,93.79
1493.00,93.91
1492.00,94.00
1491.00,94.09
1490.00,94.16
1489.00,94.15
1488.00,94.04
1487.00,93.83
1486.00,93.54
1485.00,93.16
1484.00,92.71
1483.00,92.22
1482.00,91.74
1481.00,91.32
1480.00,91.00
1479.00,90.78
1478.00,90.68
1477.00,90.66
1476.00,90.73
1475.00,90.87
1474.00,91.07
1473.00,91.25
1472.00,91.35
1471.00,91.30
1470.00,91.09
1469.00,90.75
1468.00,90.31
1467.00,89.81
1466.00,89.28
1465.00,88.80
1464.00,88.51
1463.00,88.44
1462.00,88.56
1461.00,88.77
1460.00,89.04
1459.00,89.33
1458.00,89.67
1457.00,90.00
1456.00,90.25
1455.00,90.37
1454.00,90.42
1453.00,90.47
1452.00,90.54
1451.00,90.63
1450.00,90.75
1449.00,90.86
1448.00,90.96
1447.00,91.04
1446.00,91.08
1445.00,91.09
1444.00,91.08
1443.00,91.06
1442.00,91.03
1441.00,90.99
1440.00,90.93
1439.00,90.87
1438.00,90.82
1437.00,90.79
1436.00,90.79
1435.00,90.82
1434.00,90.90
1433.00,91.00
1432.00,91.14
1431.00,91.30
1430.00,91.46
1429.00,91.59
1428.00,91.67
1427.00,91.67
1426.00,91.60
1425.00,91.46
1424.00,91.25
1423.00,91.00
1422.00,90.75
1421.00,90.48
1420.00,90.20
1419.00,89.93
1418.00,89.76
1417.00,89.69
1416.00,89.72
1415.00,89.85
1414.00,90.09
1413.00,90.42
1412.00,90.81
1411.00,91.26
1410.00,91.72
1409.00,92.18
1408.00,92.61
1407.00,93.00
1406.00,93.35
1405.00,93.65
1404.00,93.90
1403.00,94.09
1402.00,94.24
1401.00,94.36
1400.00,94.45
1399.00,94.51
1398.00,94.55
1397.00,94.55
1396.00,94.54
1395.00,94.51
1394.00,94.46
1393.00,94.40
1392.00,94.33
1391.00,94.23
1390.00,94.11
1389.00,93.97
1388.00,93.80
1387.00,93.62
1386.00,93.42
1385.00,93.22
1384.00,93.00
1383.00,92.77
1382.00,92.55
1381.00,92.33
1380.00,92.10
1379.00,91.87
1378.00,91.65
1377.00,91.47
1376.00,91.31
1375.00,91.19
1374.00,91.12
1373.00,91.08
1372.00,91.09
1371.00,91.13
1370.00,91.21
1369.00,91.31
1368.00,91.41
1367.00,91.51
1366.00,91.61
1365.00,91.71
1364.00,91.80
1363.00,91.90
1362.00,92.00
1361.00,92.09
1360.00,92.19
1359.00,92.28
1358.00,92.37
1357.00,92.46
1356.00,92.55
1355.00,92.64
1354.00,92.74
1353.00,92.84
1352.00,92.92
1351.00,92.99
1350.00,93.06
1349.00,93.14
1348.00,93.22
1347.00,93.28
1346.00,93.34
1345.00,93.40
1344.00,93.46
1343.00,93.53
1342.00,93.59
1341.00,93.65
1340.00,93.69
1339.00,93.72
1338.00,93.76
1337.00,93.81
1336.00,93.86
1335.00,93.91
1334.00,93.96
1333.00,94.01
1332.00,94.06
1331.00,94.10
1330.00,94.16
1329.00,94.23
1328.00,94.29
1327.00,94.34
1326.00,94.38
1325.00,94.40
1324.00,94.41
1323.00,94.41
1322.00,94.40
1321.00,94.36
1320.00,94.32
1319.00,94.26
1318.00,94.21
1317.00,94.16
1316.00,94.14
1315.00,94.12
1314.00,94.10
1313.00,94.06
1312.00,94.02
1311.00,93.96
1310.00,93.90
1309.00,93.83
1308.00,93.76
1307.00,93.70
1306.00,93.65
1305.00,93.59
1304.00,93.53
1303.00,93.46
1302.00,93.41
1301.00,93.38
1300.00,93.35
1299.00,93.33
1298.00,93.30
1297.00,93.26
1296.00,93.19
1295.00,93.09
1294.00,93.00
1293.00,92.93
1292.00,92.89
1291.00,92.88
1290.00,92.88
1289.00,92.88
1288.00,92.85
1287.00,92.80
1286.00,92.73
1285.00,92.64
1284.00,92.55
1283.00,92.45
1282.00,92.36
1281.00,92.30
1280.00,92.24
1279.00,92.21
1278.00,92.18
1277.00,92.15
1276.00,92.11
1275.00,92.06
1274.00,91.98
1273.00,91.85
1272.00,91.66
1271.00,91.40
1270.00,91.07
1269.00,90.68
1268.00,90.27
1267.00,89.90
1266.00,89.59
1265.00,89.37
1264.00,89.24
1263.00,89.20
1262.00,89.26
1261.00,89.37
1260.00,89.53
1259.00,89.72
1258.00,89.92
1257.00,90.12
1256.00,90.32
1255.00,90.51
1254.00,90.70
1253.00,90.90
1252.00,91.09
1251.00,91.26
1250.00,91.41
1249.00,91.52
1248.00,91.61
1247.00,91.67
1246.00,91.71
1245.00,91.73
1244.00,91.73
1243.00,91.72
1242.00,91.69
1241.00,91.67
1240.00,91.65
1239.00,91.66
1238.00,91.70
1237.00,91.79
1236.00,91.92
1235.00,92.09
1234.00,92.28
1233.00,92.50
1232.00,92.75
1231.00,93.02
1230.00,93.28
1229.00,93.54
1228.00,93.77
1227.00,93.98
1226.00,94.17
1225.00,94.33
1224.00,94.45
1223.00,94.52
1222.00,94.52
1221.00,94.45
1220.00,94.31
1219.00,94.13
1218.00,93.91
1217.00,93.68
1216.00,93.46
1215.00,93.28
1214.00,93.15
1213.00,93.07
1212.00,93.04
1211.00,93.03
1210.00,93.04
1209.00,93.02
1208.00,92.96
1207.00,92.84
1206.00,92.63
1205.00,92.34
1204.00,91.96
1203.00,91.53
1202.00,91.14
1201.00,90.87
1200.00,90.78
1199.00,90.89
1198.00,91.16
1197.00,91.55
1196.00,91.99
1195.00,92.41
1194.00,92.79
1193.00,93.13
1192.00,93.43
1191.00,93.70
1190.00,93.94
1189.00,94.15
1188.00,94.32
1187.00,94.46
1186.00,94.59
1185.00,94.70
1184.00,94.79
1183.00,94.83
1182.00,94.80
1181.00,94.70
1180.00,94.54
1179.00,94.34
1178.00,94.11
1177.00,93.87
1176.00,93.59
1175.00,93.30
1174.00,93.02
1173.00,92.77
1172.00,92.59
1171.00,92.48
1170.00,92.44
1169.00,92.45
1168.00,92.52
1167.00,92.66
1166.00,92.86
1165.00,93.12
1164.00,93.42
1163.00,93.74
1162.00,94.06
1161.00,94.36
1160.00,94.61
1159.00,94.84
1158.00,95.05
1157.00,95.25
1156.00,95.44
1155.00,95.60
1154.00,95.73
1153.00,95.85
1152.00,95.97
1151.00,96.09
1150.00,96.21
1149.00,96.32
1148.00,96.41
1147.00,96.50
1146.00,96.59
1145.00,96.67
1144.00,96.74
1143.00,96.78
1142.00,96.81
1141.00,96.84
1140.00,96.88
1139.00,96.91
1138.00,96.94
1137.00,96.97
1136.00,96.97
1135.00,96.94
1134.00,96.88
1133.00,96.81
1132.00,96.73
1131.00,96.63
1130.00,96.49
1129.00,96.30
1128.00,96.07
1127.00,95.84
1126.00,95.64
1125.00,95.49
1124.00,95.39
1123.00,95.31
1122.00,95.25
1121.00,95.18
1120.00,95.11
1119.00,95.05
1118.00,95.03
1117.00,95.02
1116.00,95.03
1115.00,95.05
1114.00,95.07
1113.00,95.12
1112.00,95.18
1111.00,95.25
1110.00,95.31
1109.00,95.37
1108.00,95.43
1107.00,95.51
1106.00,95.61
1105.00,95.70
1104.00,95.78
1103.00,95.84
1102.00,95.91
1101.00,96.00
1100.00,96.09
1099.00,96.14
1098.00,96.16
1097.00,96.18
1096.00,96.21
1095.00,96.26
1094.00,96.31
1093.00,96.35
1092.00,96.37
1091.00,96.38
1090.00,96.38
1089.00,96.38
1088.00,96.39
1087.00,96.39
1086.00,96.39
1085.00,96.38
1084.00,96.37
1083.00,96.35
1082.00,96.33
1081.00,96.32
1080.00,96.31
1079.00,96.30
1078.00,96.30
1077.00,96.29
1076.00,96.28
1075.00,96.25
1074.00,96.22
1073.00,96.20
1072.00,96.21
1071.00,96.24
1070.00,96.29
1069.00,96.33
1068.00,96.37
1067.00,96.42
1066.00,96.48
1065.00,96.55
1064.00,96.62
1063.00,96.69
1062.00,96.76
1061.00,96.84
1060.00,96.90
1059.00,96.97
1058.00,97.04
1057.00,97.14
1056.00,97.24
1055.00,97.32
1054.00,97.35
1053.00,97.37
1052.00,97.39
1051.00,97.42
1050.00,97.47
1049.00,97.54
1048.00,97.59
1047.00,97.64
1046.00,97.67
1045.00,97.69
1044.00,97.70
1043.00,97.68
1042.00,97.64
1041.00,97.61
1040.00,97.58
1039.00,97.58
1038.00,97.58
1037.00,97.55
1036.00,97.48
1035.00,97.40
1034.00,97.32
1033.00,97.26
1032.00,97.20
1031.00,97.15
1030.00,97.10
1029.00,97.10
1028.00,97.15
1027.00,97.23
1026.00,97.33
1025.00,97.42
1024.00,97.49
1023.00,97.55
1022.00,97.60
1021.00,97.65
1020.00,97.71
1019.00,97.74
1018.00,97.75
1017.00,97.75
1016.00,97.76
1015.00,97.79
1014.00,97.82
1013.00,97.86
1012.00,97.88
1011.00,97.88
1010.00,97.86
1009.00,97.84
1008.00,97.82
1007.00,97.84
1006.00,97.86
1005.00,97.88
1004.00,97.90
1003.00,97.92
1002.00,97.93
1001.00,97.94
1000.00,97.94
999.00,97.93
998.00,97.92
997.00,97.90
996.00,97.86
995.00,97.80
994.00,97.74
993.00,97.68
992.00,97.63
991.00,97.57
990.00,97.52
989.00,97.48
988.00,97.45
987.00,97.43
986.00,97.41
985.00,97.39
984.00,97.37
983.00,97.34
982.00,97.30
981.00,97.25
980.00,97.20
979.00,97.18
978.00,97.16
977.00,97.13
976.00,97.10
975.00,97.08
974.00,97.06
973.00,97.05
972.00,97.04
971.00,97.04
970.00,97.03
969.00,97.01
968.00,96.96
967.00,96.89
966.00,96.82
965.00,96.74
964.00,96.65
963.00,96.54
962.00,96.43
961.00,96.33
960.00,96.26
959.00,96.25
958.00,96.29
957.00,96.36
956.00,96.45
955.00,96.53
954.00,96.60
953.00,96.65
952.00,96.69
951.00,96.74
950.00,96.83
949.00,96.94
948.00,97.07
947.00,97.18
946.00,97.28
945.00,97.37
944.00,97.45
943.00,97.52
942.00,97.58
941.00,97.61
940.00,97.62
939.00,97.61
938.00,97.58
937.00,97.53
936.00,97.48
935.00,97.41
934.00,97.33
933.00,97.24
932.00,97.14
931.00,97.02
930.00,96.93
929.00,96.88
928.00,96.89
927.00,96.95
926.00,97.07
925.00,97.20
924.00,97.34
923.00,97.46
922.00,97.55
921.00,97.62
920.00,97.66
919.00,97.71
918.00,97.76
917.00,97.83
916.00,97.90
915.00,97.95
914.00,97.98
913.00,97.99
912.00,98.01
911.00,98.02
910.00,98.05
909.00,98.09
908.00,98.12
907.00,98.15
906.00,98.18
905.00,98.21
904.00,98.23
903.00,98.21
902.00,98.17
901.00,98.14
900.00,98.16
899.00,98.21
898.00,98.27
897.00,98.30
896.00,98.30
895.00,98.28
894.00,98.26
893.00,98.25
892.00,98.27
891.00,98.28
890.00,98.29
889.00,98.29
888.00,98.31
887.00,98.33
886.00,98.34
885.00,98.34
884.00,98.33
883.00,98.33
882.00,98.33
881.00,98.36
880.00,98.41
879.00,98.46
878.00,98.50
877.00,98.53
876.00,98.54
875.00,98.54
874.00,98.53
873.00,98.50
872.00,98.45
871.00,98.41
870.00,98.40
869.00,98.43
868.00,98.48
867.00,98.52
866.00,98.54
865.00,98.55
864.00,98.56
863.00,98.58
862.00,98.60
861.00,98.59
860.00,98.56
859.00,98.52
858.00,98.47
857.00,98.44
856.00,98.43
855.00,98.42
854.00,98.42
853.00,98.41
852.00,98.40
851.00,98.38
850.00,98.35
849.00,98.32
848.00,98.29
847.00,98.27
846.00,98.26
845.00,98.22
844.00,98.17
843.00,98.10
842.00,98.03
841.00,97.97
840.00,97.89
839.00,97.81
838.00,97.72
837.00,97.59
836.00,97.44
835.00,97.31
834.00,97.22
833.00,97.20
832.00,97.24
831.00,97.34
830.00,97.46
829.00,97.56
828.00,97.64
827.00,97.68
826.00,97.70
825.00,97.74
824.00,97.78
823.00,97.81
822.00,97.83
821.00,97.84
820.00,97.84
819.00,97.83
818.00,97.81
817.00,97.77
816.00,97.73
815.00,97.69
814.00,97.65
813.00,97.61
812.00,97.58
811.00,97.56
810.00,97.55
809.00,97.55
808.00,97.55
807.00,97.52
806.00,97.46
805.00,97.39
804.00,97.32
803.00,97.26
802.00,97.22
801.00,97.18
800.00,97.13
799.00,97.08
798.00,97.04
797.00,97.01
796.00,97.00
795.00,96.99
794.00,96.96
793.00,96.92
792.00,96.86
791.00,96.79
790.00,96.71
789.00,96.64
788.00,96.58
787.00,96.54
786.00,96.51
785.00,96.48
784.00,96.42
783.00,96.34
782.00,96.26
781.00,96.19
780.00,96.14
779.00,96.12
778.00,96.11
777.00,96.08
776.00,96.03
775.00,95.95
774.00,95.87
773.00,95.82
772.00,95.80
771.00,95.77
770.00,95.73
769.00,95.66
768.00,95.57
767.00,95.49
766.00,95.42
765.00,95.35
764.00,95.29
763.00,95.23
762.00,95.18
761.00,95.12
760.00,95.06
759.00,95.00
758.00,94.95
757.00,94.91
756.00,94.87
755.00,94.81
754.00,94.73
753.00,94.62
752.00,94.51
751.00,94.42
750.00,94.36
749.00,94.30
748.00,94.22
747.00,94.10
746.00,93.97
745.00,93.84
744.00,93.72
743.00,93.61
742.00,93.48
741.00,93.31
740.00,93.10
739.00,92.86
738.00,92.62
737.00,92.38
736.00,92.13
735.00,91.86
734.00,91.52
733.00,91.11
732.00,90.69
731.00,90.34
730.00,90.11
729.00,90.00
728.00,89.98
727.00,90.03
726.00,90.11
725.00,90.20
724.00,90.26
723.00,90.29
722.00,90.30
721.00,90.30
720.00,90.28
719.00,90.23
718.00,90.16
717.00,90.04
716.00,89.87
715.00,89.67
714.00,89.50
713.00,89.37
712.00,89.27
711.00,89.19
710.00,89.12
709.00,89.05
708.00,88.97
707.00,88.89
706.00,88.81
705.00,88.72
704.00,88.61
703.00,88.49
702.00,88.35
701.00,88.20
700.00,88.01
699.00,87.80
698.00,87.57
697.00,87.31
696.00,87.04
695.00,86.78
694.00,86.58
693.00,86.43
692.00,86.30
691.00,86.17
690.00,85.99
689.00,85.79
688.00,85.60
687.00,85.51
686.00,85.52
685.00,85.59
684.00,85.65
683.00,85.68
682.00,85.69
681.00,85.70
680.00,85.72
679.00,85.76
678.00,85.82
677.00,85.89
676.00,85.96
675.00,86.03
674.00,86.12
673.00,86.25
672.00,86.43
671.00,86.62
670.00,86.82
669.00,87.02
668.00,87.12
667.00,87.07
666.00,87.02
665.00,87.14
664.00,87.36
663.00,87.58
662.00,87.79
661.00,87.97
660.00,88.14
659.00,88.28
658.00,88.42
657.00,88.58
656.00,88.78
655.00,88.97
654.00,89.09
653.00,89.15
652.00,89.17
651.00,89.18
650.00,89.15
649.00,89.09
648.00,89.05
647.00,89.08
646.00,89.21
645.00,89.39
644.00,89.56
643.00,89.70
642.00,89.82
641.00,89.93
640.00,90.05
639.00,90.19
638.00,90.31
637.00,90.36
636.00,90.31
635.00,90.23
634.00,90.23
633.00,90.33
632.00,90.44
631.00,90.47
630.00,90.40
629.00,90.31
628.00,90.28
627.00,90.33
626.00,90.40
625.00,90.43
624.00,90.43
623.00,90.40
622.00,90.35
621.00,90.27
620.00,90.14
619.00,89.99
618.00,89.86
617.00,89.85
616.00,90.07
615.00,90.45
614.00,90.77
613.00,90.80
612.00,90.58
611.00,90.36
610.00,90.33
609.00,90.40
608.00,90.40
607.00,90.30
606.00,90.22
605.00,90.20
604.00,90.14
603.00,89.85
602.00,89.31
601.00,88.70
600.00,88.30
599.00,88.32
598.00,88.70
597.00,89.19
596.00,89.56
595.00,89.71
594.00,89.62
593.00,89.32
592.00,88.96
591.00,88.79
590.00,88.86
589.00,88.95
588.00,88.79
587.00,88.44
586.00,88.11
585.00,87.90
584.00,87.63
583.00,87.14
582.00,86.48
581.00,85.83
580.00,85.34
579.00,85.12
578.00,85.13
577.00,85.18
576.00,85.15
575.00,85.09
574.00,85.10
573.00,85.15
572.00,85.24
571.00,85.46
570.00,85.81
569.00,86.09
568.00,86.15
567.00,86.13
566.00,86.27
565.00,86.58
564.00,86.90
563.00,87.11
562.00,87.28
561.00,87.52
560.00,87.80
559.00,88.06
558.00,88.24
557.00,88.37
556.00,88.46
555.00,88.40
554.00,88.15
553.00,87.83
552.00,87.64
551.00,87.58
550.00,87.43
