Created as New Dataset,79. Nylon Allied Signal Fibers Dyed
cm-1,%T
4000.00,98.50
3999.00,98.51
3998.00,98.51
3997.00,98.51
3996.00,98.51
3995.00,98.50
3994.00,98.48
3993.00,98.47
3992.00,98.46
3991.00,98.45
3990.00,98.45
3989.00,98.46
3988.00,98.46
3987.00,98.46
3986.00,98.46
3985.00,98.46
3984.00,98.47
3983.00,98.48
3982.00,98.49
3981.00,98.51
3980.00,98.52
3979.00,98.52
3978.00,98.50
3977.00,98.47
3976.00,98.45
3975.00,98.45
3974.00,98.46
3973.00,98.49
3972.00,98.51
3971.00,98.51
3970.00,98.50
3969.00,98.48
3968.00,98.48
3967.00,98.48
3966.00,98.48
3965.00,98.47
3964.00,98.46
3963.00,98.44
3962.00,98.43
3961.00,98.43
3960.00,98.43
3959.00,98.45
3958.00,98.47
3957.00,98.50
3956.00,98.52
3955.00,98.54
3954.00,98.55
3953.00,98.55
3952.00,98.53
3951.00,98.51
3950.00,98.49
3949.00,98.48
3948.00,98.48
3947.00,98.48
3946.00,98.49
3945.00,98.50
3944.00,98.50
3943.00,98.51
3942.00,98.52
3941.00,98.52
3940.00,98.53
3939.00,98.55
3938.00,98.57
3937.00,98.59
3936.00,98.58
3935.00,98.57
3934.00,98.55
3933.00,98.54
3932.00,98.52
3931.00,98.51
3930.00,98.49
3929.00,98.49
3928.00,98.50
3927.00,98.52
3926.00,98.56
3925.00,98.58
3924.00,98.60
3923.00,98.60
3922.00,98.60
3921.00,98.59
3920.00,98.59
3919.00,98.57
3918.00,98.54
3917.00,98.50
3916.00,98.48
3915.00,98.48
3914.00,98.49
3913.00,98.51
3912.00,98.54
3911.00,98.57
3910.00,98.58
3909.00,98.57
3908.00,98.55
3907.00,98.53
3906.00,98.51
3905.00,98.50
3904.00,98.52
3903.00,98.54
3902.00,98.56
3901.00,98.57
3900.00,98.57
3899.00,98.55
3898.00,98.52
3897.00,98.49
3896.00,98.48
3895.00,98.48
3894.00,98.50
3893.00,98.52
3892.00,98.54
3891.00,98.56
3890.00,98.56
3889.00,98.54
3888.00,98.52
3887.00,98.52
3886.00,98.53
3885.00,98.54
3884.00,98.53
3883.00,98.51
3882.00,98.50
3881.00,98.53
3880.00,98.57
3879.00,98.59
3878.00,98.58
3877.00,98.56
3876.00,98.54
3875.00,98.53
3874.00,98.53
3873.00,98.52
3872.00,98.52
3871.00,98.53
3870.00,98.56
3869.00,98.58
3868.00,98.57
3867.00,98.55
3866.00,98.55
3865.00,98.56
3864.00,98.57
3863.00,98.56
3862.00,98.55
3861.00,98.56
3860.00,98.56
3859.00,98.56
3858.00,98.54
3857.00,98.52
3856.00,98.49
3855.00,98.48
3854.00,98.49
3853.00,98.48
3852.00,98.47
3851.00,98.46
3850.00,98.48
3849.00,98.52
3848.00,98.55
3847.00,98.57
3846.00,98.58
3845.00,98.59
3844.00,98.59
3843.00,98.60
3842.00,98.59
3841.00,98.58
3840.00,98.56
3839.00,98.54
3838.00,98.53
3837.00,98.52
3836.00,98.52
3835.00,98.52
3834.00,98.53
3833.00,98.55
3832.00,98.57
3831.00,98.57
3830.00,98.56
3829.00,98.54
3828.00,98.54
3827.00,98.54
3826.00,98.55
3825.00,98.55
3824.00,98.53
3823.00,98.53
3822.00,98.55
3821.00,98.59
3820.00,98.59
3819.00,98.55
3818.00,98.50
3817.00,98.47
3816.00,98.46
3815.00,98.45
3814.00,98.45
3813.00,98.45
3812.00,98.48
3811.00,98.51
3810.00,98.53
3809.00,98.54
3808.00,98.55
3807.00,98.57
3806.00,98.57
3805.00,98.54
3804.00,98.48
3803.00,98.45
3802.00,98.47
3801.00,98.51
3800.00,98.52
3799.00,98.50
3798.00,98.49
3797.00,98.50
3796.00,98.52
3795.00,98.54
3794.00,98.54
3793.00,98.54
3792.00,98.53
3791.00,98.52
3790.00,98.51
3789.00,98.50
3788.00,98.48
3787.00,98.47
3786.00,98.47
3785.00,98.47
3784.00,98.48
3783.00,98.49
3782.00,98.49
3781.00,98.50
3780.00,98.50
3779.00,98.51
3778.00,98.50
3777.00,98.50
3776.00,98.51
3775.00,98.53
3774.00,98.56
3773.00,98.57
3772.00,98.56
3771.00,98.54
3770.00,98.53
3769.00,98.52
3768.00,98.52
3767.00,98.52
3766.00,98.52
3765.00,98.52
3764.00,98.51
3763.00,98.49
3762.00,98.48
3761.00,98.49
3760.00,98.50
3759.00,98.51
3758.00,98.52
3757.00,98.51
3756.00,98.49
3755.00,98.46
3754.00,98.44
3753.00,98.45
3752.00,98.46
3751.00,98.48
3750.00,98.49
3749.00,98.50
3748.00,98.48
3747.00,98.44
3746.00,98.43
3745.00,98.45
3744.00,98.48
3743.00,98.48
3742.00,98.46
3741.00,98.44
3740.00,98.44
3739.00,98.45
3738.00,98.46
3737.00,98.47
3736.00,98.48
3735.00,98.47
3734.00,98.46
3733.00,98.46
3732.00,98.47
3731.00,98.50
3730.00,98.50
3729.00,98.49
3728.00,98.47
3727.00,98.45
3726.00,98.44
3725.00,98.43
3724.00,98.43
3723.00,98.43
3722.00,98.45
3721.00,98.47
3720.00,98.48
3719.00,98.48
3718.00,98.48
3717.00,98.47
3716.00,98.47
3715.00,98.47
3714.00,98.48
3713.00,98.48
3712.00,98.48
3711.00,98.47
3710.00,98.45
3709.00,98.45
3708.00,98.46
3707.00,98.47
3706.00,98.48
3705.00,98.48
3704.00,98.47
3703.00,98.46
3702.00,98.46
3701.00,98.47
3700.00,98.49
3699.00,98.50
3698.00,98.51
3697.00,98.51
3696.00,98.52
3695.00,98.52
3694.00,98.52
3693.00,98.51
3692.00,98.49
3691.00,98.47
3690.00,98.45
3689.00,98.43
3688.00,98.42
3687.00,98.40
3686.00,98.38
3685.00,98.36
3684.00,98.36
3683.00,98.36
3682.00,98.34
3681.00,98.33
3680.00,98.33
3679.00,98.34
3678.00,98.34
3677.00,98.36
3676.00,98.40
3675.00,98.45
3674.00,98.45
3673.00,98.42
3672.00,98.38
3671.00,98.37
3670.00,98.37
3669.00,98.37
3668.00,98.34
3667.00,98.32
3666.00,98.31
3665.00,98.31
3664.00,98.32
3663.00,98.32
3662.00,98.31
3661.00,98.31
3660.00,98.29
3659.00,98.28
3658.00,98.29
3657.00,98.31
3656.00,98.34
3655.00,98.37
3654.00,98.37
3653.00,98.37
3652.00,98.37
3651.00,98.35
3650.00,98.33
3649.00,98.31
3648.00,98.29
3647.00,98.27
3646.00,98.26
3645.00,98.25
3644.00,98.26
3643.00,98.28
3642.00,98.30
3641.00,98.30
3640.00,98.28
3639.00,98.26
3638.00,98.24
3637.00,98.24
3636.00,98.26
3635.00,98.30
3634.00,98.34
3633.00,98.36
3632.00,98.36
3631.00,98.33
3630.00,98.31
3629.00,98.29
3628.00,98.26
3627.00,98.21
3626.00,98.18
3625.00,98.17
3624.00,98.19
3623.00,98.21
3622.00,98.22
3621.00,98.23
3620.00,98.23
3619.00,98.24
3618.00,98.24
3617.00,98.24
3616.00,98.22
3615.00,98.20
3614.00,98.20
3613.00,98.20
3612.00,98.20
3611.00,98.20
3610.00,98.19
3609.00,98.19
3608.00,98.19
3607.00,98.18
3606.00,98.15
3605.00,98.13
3604.00,98.12
3603.00,98.11
3602.00,98.11
3601.00,98.10
3600.00,98.10
3599.00,98.10
3598.00,98.11
3597.00,98.13
3596.00,98.15
3595.00,98.16
3594.00,98.17
3593.00,98.17
3592.00,98.16
3591.00,98.14
3590.00,98.13
3589.00,98.10
3588.00,98.08
3587.00,98.07
3586.00,98.06
3585.00,98.05
3584.00,98.06
3583.00,98.07
3582.00,98.07
3581.00,98.06
3580.00,98.04
3579.00,98.00
3578.00,97.98
3577.00,97.96
3576.00,97.97
3575.00,97.98
3574.00,97.99
3573.00,98.00
3572.00,98.01
3571.00,98.00
3570.00,98.00
3569.00,97.98
3568.00,97.97
3567.00,97.95
3566.00,97.94
3565.00,97.94
3564.00,97.94
3563.00,97.95
3562.00,97.94
3561.00,97.92
3560.00,97.89
3559.00,97.85
3558.00,97.82
3557.00,97.80
3556.00,97.79
3555.00,97.79
3554.00,97.79
3553.00,97.80
3552.00,97.80
3551.00,97.82
3550.00,97.84
3549.00,97.84
3548.00,97.82
3547.00,97.79
3546.00,97.76
3545.00,97.74
3544.00,97.73
3543.00,97.73
3542.00,97.72
3541.00,97.70
3540.00,97.69
3539.00,97.69
3538.00,97.71
3537.00,97.73
3536.00,97.75
3535.00,97.76
3534.00,97.76
3533.00,97.75
3532.00,97.73
3531.00,97.70
3530.00,97.67
3529.00,97.62
3528.00,97.60
3527.00,97.59
3526.00,97.61
3525.00,97.63
3524.00,97.64
3523.00,97.63
3522.00,97.62
3521.00,97.59
3520.00,97.56
3519.00,97.53
3518.00,97.49
3517.00,97.46
3516.00,97.45
3515.00,97.47
3514.00,97.49
3513.00,97.50
3512.00,97.50
3511.00,97.49
3510.00,97.48
3509.00,97.47
3508.00,97.45
3507.00,97.44
3506.00,97.43
3505.00,97.42
3504.00,97.42
3503.00,97.42
3502.00,97.43
3501.00,97.43
3500.00,97.43
3499.00,97.42
3498.00,97.41
3497.00,97.42
3496.00,97.42
3495.00,97.41
3494.00,97.39
3493.00,97.36
3492.00,97.34
3491.00,97.34
3490.00,97.35
3489.00,97.36
3488.00,97.36
3487.00,97.36
3486.00,97.35
3485.00,97.35
3484.00,97.35
3483.00,97.37
3482.00,97.38
3481.00,97.39
3480.00,97.38
3479.00,97.36
3478.00,97.34
3477.00,97.33
3476.00,97.32
3475.00,97.32
3474.00,97.33
3473.00,97.33
3472.00,97.34
3471.00,97.37
3470.00,97.38
3469.00,97.38
3468.00,97.36
3467.00,97.33
3466.00,97.30
3465.00,97.29
3464.00,97.30
3463.00,97.31
3462.00,97.32
3461.00,97.31
3460.00,97.29
3459.00,97.26
3458.00,97.24
3457.00,97.24
3456.00,97.25
3455.00,97.25
3454.00,97.24
3453.00,97.23
3452.00,97.23
3451.00,97.24
3450.00,97.24
3449.00,97.25
3448.00,97.25
3447.00,97.25
3446.00,97.24
3445.00,97.22
3444.00,97.20
3443.00,97.19
3442.00,97.19
3441.00,97.21
3440.00,97.24
3439.00,97.26
3438.00,97.27
3437.00,97.27
3436.00,97.24
3435.00,97.21
3434.00,97.18
3433.00,97.16
3432.00,97.15
3431.00,97.15
3430.00,97.15
3429.00,97.15
3428.00,97.14
3427.00,97.11
3426.00,97.09
3425.00,97.08
3424.00,97.08
3423.00,97.09
3422.00,97.09
3421.00,97.08
3420.00,97.05
3419.00,97.02
3418.00,97.02
3417.00,97.02
3416.00,97.04
3415.00,97.04
3414.00,97.04
3413.00,97.04
3412.00,97.03
3411.00,97.03
3410.00,97.03
3409.00,97.02
3408.00,97.00
3407.00,96.98
3406.00,96.97
3405.00,96.96
3404.00,96.94
3403.00,96.92
3402.00,96.89
3401.00,96.87
3400.00,96.85
3399.00,96.85
3398.00,96.86
3397.00,96.86
3396.00,96.84
3395.00,96.82
3394.00,96.79
3393.00,96.78
3392.00,96.77
3391.00,96.76
3390.00,96.75
3389.00,96.74
3388.00,96.71
3387.00,96.69
3386.00,96.68
3385.00,96.68
3384.00,96.68
3383.00,96.66
3382.00,96.62
3381.00,96.57
3380.00,96.52
3379.00,96.48
3378.00,96.45
3377.00,96.44
3376.00,96.43
3375.00,96.43
3374.00,96.42
3373.00,96.40
3372.00,96.38
3371.00,96.36
3370.00,96.33
3369.00,96.30
3368.00,96.24
3367.00,96.20
3366.00,96.16
3365.00,96.14
3364.00,96.11
3363.00,96.06
3362.00,95.99
3361.00,95.92
3360.00,95.87
3359.00,95.84
3358.00,95.82
3357.00,95.79
3356.00,95.76
3355.00,95.71
3354.00,95.65
3353.00,95.60
3352.00,95.55
3351.00,95.50
3350.00,95.44
3349.00,95.36
3348.00,95.28
3347.00,95.18
3346.00,95.10
3345.00,95.03
3344.00,94.97
3343.00,94.91
3342.00,94.83
3341.00,94.73
3340.00,94.63
3339.00,94.52
3338.00,94.41
3337.00,94.30
3336.00,94.16
3335.00,94.02
3334.00,93.86
3333.00,93.71
3332.00,93.56
3331.00,93.40
3330.00,93.21
3329.00,93.01
3328.00,92.80
3327.00,92.60
3326.00,92.39
3325.00,92.16
3324.00,91.93
3323.00,91.70
3322.00,91.46
3321.00,91.24
3320.00,91.02
3319.00,90.80
3318.00,90.57
3317.00,90.33
3316.00,90.08
3315.00,89.83
3314.00,89.56
3313.00,89.29
3312.00,89.00
3311.00,88.67
3310.00,88.31
3309.00,87.90
3308.00,87.46
3307.00,86.99
3306.00,86.52
3305.00,86.05
3304.00,85.59
3303.00,85.14
3302.00,84.71
3301.00,84.31
3300.00,83.95
3299.00,83.65
3298.00,83.44
3297.00,83.31
3296.00,83.25
3295.00,83.27
3294.00,83.35
3293.00,83.49
3292.00,83.67
3291.00,83.90
3290.00,84.18
3289.00,84.49
3288.00,84.84
3287.00,85.21
3286.00,85.57
3285.00,85.92
3284.00,86.27
3283.00,86.61
3282.00,86.93
3281.00,87.24
3280.00,87.54
3279.00,87.84
3278.00,88.12
3277.00,88.39
3276.00,88.64
3275.00,88.86
3274.00,89.06
3273.00,89.26
3272.00,89.46
3271.00,89.66
3270.00,89.85
3269.00,90.03
3268.00,90.21
3267.00,90.38
3266.00,90.58
3265.00,90.78
3264.00,90.98
3263.00,91.17
3262.00,91.34
3261.00,91.51
3260.00,91.66
3259.00,91.80
3258.00,91.94
3257.00,92.07
3256.00,92.19
3255.00,92.31
3254.00,92.42
3253.00,92.54
3252.00,92.66
3251.00,92.78
3250.00,92.90
3249.00,93.01
3248.00,93.13
3247.00,93.26
3246.00,93.39
3245.00,93.50
3244.00,93.59
3243.00,93.66
3242.00,93.73
3241.00,93.80
3240.00,93.89
3239.00,93.97
3238.00,94.05
3237.00,94.13
3236.00,94.21
3235.00,94.29
3234.00,94.37
3233.00,94.45
3232.00,94.52
3231.00,94.58
3230.00,94.64
3229.00,94.70
3228.00,94.74
3227.00,94.79
3226.00,94.83
3225.00,94.88
3224.00,94.92
3223.00,94.95
3222.00,94.99
3221.00,95.03
3220.00,95.08
3219.00,95.13
3218.00,95.17
3217.00,95.19
3216.00,95.21
3215.00,95.23
3214.00,95.26
3213.00,95.29
3212.00,95.32
3211.00,95.34
3210.00,95.34
3209.00,95.34
3208.00,95.34
3207.00,95.34
3206.00,95.34
3205.00,95.34
3204.00,95.35
3203.00,95.37
3202.00,95.40
3201.00,95.43
3200.00,95.47
3199.00,95.49
3198.00,95.51
3197.00,95.53
3196.00,95.56
3195.00,95.58
3194.00,95.60
3193.00,95.62
3192.00,95.63
3191.00,95.63
3190.00,95.64
3189.00,95.66
3188.00,95.69
3187.00,95.71
3186.00,95.73
3185.00,95.75
3184.00,95.78
3183.00,95.82
3182.00,95.86
3181.00,95.90
3180.00,95.94
3179.00,95.98
3178.00,96.01
3177.00,96.03
3176.00,96.07
3175.00,96.11
3174.00,96.17
3173.00,96.22
3172.00,96.26
3171.00,96.29
3170.00,96.31
3169.00,96.32
3168.00,96.35
3167.00,96.41
3166.00,96.46
3165.00,96.51
3164.00,96.54
3163.00,96.55
3162.00,96.56
3161.00,96.58
3160.00,96.61
3159.00,96.64
3158.00,96.66
3157.00,96.67
3156.00,96.69
3155.00,96.71
3154.00,96.73
3153.00,96.74
3152.00,96.76
3151.00,96.78
3150.00,96.80
3149.00,96.82
3148.00,96.82
3147.00,96.83
3146.00,96.83
3145.00,96.83
3144.00,96.84
3143.00,96.85
3142.00,96.86
3141.00,96.87
3140.00,96.86
3139.00,96.86
3138.00,96.87
3137.00,96.88
3136.00,96.89
3135.00,96.90
3134.00,96.90
3133.00,96.90
3132.00,96.89
3131.00,96.89
3130.00,96.88
3129.00,96.89
3128.00,96.89
3127.00,96.88
3126.00,96.86
3125.00,96.84
3124.00,96.82
3123.00,96.81
3122.00,96.79
3121.00,96.78
3120.00,96.76
3119.00,96.73
3118.00,96.69
3117.00,96.66
3116.00,96.64
3115.00,96.63
3114.00,96.63
3113.00,96.62
3112.00,96.62
3111.00,96.59
3110.00,96.55
3109.00,96.50
3108.00,96.45
3107.00,96.40
3106.00,96.37
3105.00,96.33
3104.00,96.29
3103.00,96.26
3102.00,96.25
3101.00,96.25
3100.00,96.25
3099.00,96.24
3098.00,96.21
3097.00,96.17
3096.00,96.11
3095.00,96.06
3094.00,96.02
3093.00,96.01
3092.00,96.01
3091.00,96.01
3090.00,95.99
3089.00,95.96
3088.00,95.93
3087.00,95.90
3086.00,95.88
3085.00,95.87
3084.00,95.85
3083.00,95.82
3082.00,95.79
3081.00,95.76
3080.00,95.75
3079.00,95.74
3078.00,95.72
3077.00,95.70
3076.00,95.68
3075.00,95.67
3074.00,95.66
3073.00,95.66
3072.00,95.65
3071.00,95.65
3070.00,95.64
3069.00,95.64
3068.00,95.63
3067.00,95.63
3066.00,95.62
3065.00,95.61
3064.00,95.60
3063.00,95.60
3062.00,95.61
3061.00,95.63
3060.00,95.66
3059.00,95.69
3058.00,95.72
3057.00,95.74
3056.00,95.77
3055.00,95.81
3054.00,95.86
3053.00,95.93
3052.00,96.01
3051.00,96.09
3050.00,96.16
3049.00,96.22
3048.00,96.27
3047.00,96.32
3046.00,96.37
3045.00,96.44
3044.00,96.50
3043.00,96.56
3042.00,96.62
3041.00,96.67
3040.00,96.71
3039.00,96.76
3038.00,96.81
3037.00,96.86
3036.00,96.90
3035.00,96.93
3034.00,96.96
3033.00,96.99
3032.00,97.02
3031.00,97.06
3030.00,97.10
3029.00,97.11
3028.00,97.12
3027.00,97.12
3026.00,97.13
3025.00,97.14
3024.00,97.15
3023.00,97.15
3022.00,97.15
3021.00,97.16
3020.00,97.19
3019.00,97.22
3018.00,97.24
3017.00,97.26
3016.00,97.27
3015.00,97.28
3014.00,97.28
3013.00,97.27
3012.00,97.27
3011.00,97.26
3010.00,97.25
3009.00,97.25
3008.00,97.25
3007.00,97.26
3006.00,97.27
3005.00,97.27
3004.00,97.27
3003.00,97.27
3002.00,97.25
3001.00,97.23
3000.00,97.21
2999.00,97.21
2998.00,97.21
2997.00,97.21
2996.00,97.19
2995.00,97.17
2994.00,97.14
2993.00,97.12
2992.00,97.10
2991.00,97.08
2990.00,97.07
2989.00,97.04
2988.00,96.99
2987.00,96.93
2986.00,96.86
2985.00,96.82
2984.00,96.79
2983.00,96.76
2982.00,96.73
2981.00,96.69
2980.00,96.63
2979.00,96.57
2978.00,96.49
2977.00,96.39
2976.00,96.29
2975.00,96.17
2974.00,96.05
2973.00,95.93
2972.00,95.81
2971.00,95.68
2970.00,95.54
2969.00,95.39
2968.00,95.24
2967.00,95.09
2966.00,94.94
2965.00,94.78
2964.00,94.62
2963.00,94.46
2962.00,94.29
2961.00,94.12
2960.00,93.95
2959.00,93.75
2958.00,93.51
2957.00,93.24
2956.00,92.93
2955.00,92.59
2954.00,92.21
2953.00,91.80
2952.00,91.36
2951.00,90.90
2950.00,90.44
2949.00,89.96
2948.00,89.51
2947.00,89.09
2946.00,88.73
2945.00,88.44
2944.00,88.21
2943.00,88.03
2942.00,87.89
2941.00,87.76
2940.00,87.64
2939.00,87.52
2938.00,87.42
2937.00,87.33
2936.00,87.29
2935.00,87.29
2934.00,87.35
2933.00,87.46
2932.00,87.59
2931.00,87.76
2930.00,87.94
2929.00,88.12
2928.00,88.30
2927.00,88.48
2926.00,88.66
2925.00,88.84
2924.00,89.03
2923.00,89.22
2922.00,89.42
2921.00,89.63
2920.00,89.85
2919.00,90.07
2918.00,90.29
2917.00,90.51
2916.00,90.71
2915.00,90.90
2914.00,91.08
2913.00,91.26
2912.00,91.42
2911.00,91.57
2910.00,91.70
2909.00,91.80
2908.00,91.88
2907.00,91.95
2906.00,92.02
2905.00,92.06
2904.00,92.09
2903.00,92.10
2902.00,92.11
2901.00,92.14
2900.00,92.19
2899.00,92.26
2898.00,92.36
2897.00,92.49
2896.00,92.65
2895.00,92.82
2894.00,92.99
2893.00,93.16
2892.00,93.30
2891.00,93.43
2890.00,93.54
2889.00,93.62
2888.00,93.65
2887.00,93.65
2886.00,93.62
2885.00,93.56
2884.00,93.47
2883.00,93.35
2882.00,93.20
2881.00,93.03
2880.00,92.83
2879.00,92.60
2878.00,92.33
2877.00,92.05
2876.00,91.76
2875.00,91.48
2874.00,91.23
2873.00,91.00
2872.00,90.81
2871.00,90.66
2870.00,90.55
2869.00,90.47
2868.00,90.42
2867.00,90.39
2866.00,90.39
2865.00,90.43
2864.00,90.50
2863.00,90.59
2862.00,90.69
2861.00,90.79
2860.00,90.89
2859.00,90.99
2858.00,91.10
2857.00,91.22
2856.00,91.33
2855.00,91.45
2854.00,91.60
2853.00,91.79
2852.00,92.02
2851.00,92.28
2850.00,92.58
2849.00,92.91
2848.00,93.27
2847.00,93.64
2846.00,94.01
2845.00,94.35
2844.00,94.65
2843.00,94.91
2842.00,95.13
2841.00,95.33
2840.00,95.50
2839.00,95.65
2838.00,95.79
2837.00,95.90
2836.00,96.01
2835.00,96.10
2834.00,96.18
2833.00,96.24
2832.00,96.28
2831.00,96.32
2830.00,96.35
2829.00,96.39
2828.00,96.43
2827.00,96.46
2826.00,96.48
2825.00,96.49
2824.00,96.51
2823.00,96.53
2822.00,96.56
2821.00,96.59
2820.00,96.62
2819.00,96.65
2818.00,96.69
2817.00,96.72
2816.00,96.75
2815.00,96.78
2814.00,96.80
2813.00,96.83
2812.00,96.85
2811.00,96.87
2810.00,96.90
2809.00,96.94
2808.00,96.97
2807.00,97.00
2806.00,97.03
2805.00,97.06
2804.00,97.08
2803.00,97.09
2802.00,97.09
2801.00,97.09
2800.00,97.10
2799.00,97.12
2798.00,97.15
2797.00,97.17
2796.00,97.18
2795.00,97.19
2794.00,97.19
2793.00,97.20
2792.00,97.23
2791.00,97.25
2790.00,97.26
2789.00,97.26
2788.00,97.26
2787.00,97.26
2786.00,97.28
2785.00,97.30
2784.00,97.32
2783.00,97.33
2782.00,97.33
2781.00,97.34
2780.00,97.35
2779.00,97.36
2778.00,97.38
2777.00,97.39
2776.00,97.41
2775.00,97.43
2774.00,97.45
2773.00,97.46
2772.00,97.47
2771.00,97.47
2770.00,97.47
2769.00,97.47
2768.00,97.46
2767.00,97.46
2766.00,97.47
2765.00,97.48
2764.00,97.50
2763.00,97.51
2762.00,97.52
2761.00,97.53
2760.00,97.52
2759.00,97.52
2758.00,97.53
2757.00,97.54
2756.00,97.56
2755.00,97.56
2754.00,97.54
2753.00,97.53
2752.00,97.51
2751.00,97.51
2750.00,97.51
2749.00,97.51
2748.00,97.53
2747.00,97.53
2746.00,97.53
2745.00,97.52
2744.00,97.51
2743.00,97.50
2742.00,97.51
2741.00,97.53
2740.00,97.55
2739.00,97.56
2738.00,97.58
2737.00,97.59
2736.00,97.60
2735.00,97.62
2734.00,97.64
2733.00,97.65
2732.00,97.65
2731.00,97.65
2730.00,97.65
2729.00,97.66
2728.00,97.67
2727.00,97.68
2726.00,97.69
2725.00,97.72
2724.00,97.74
2723.00,97.76
2722.00,97.77
2721.00,97.77
2720.00,97.77
2719.00,97.78
2718.00,97.79
2717.00,97.80
2716.00,97.81
2715.00,97.81
2714.00,97.81
2713.00,97.80
2712.00,97.81
2711.00,97.81
2710.00,97.82
2709.00,97.83
2708.00,97.84
2707.00,97.86
2706.00,97.87
2705.00,97.87
2704.00,97.87
2703.00,97.86
2702.00,97.86
2701.00,97.86
2700.00,97.85
2699.00,97.85
2698.00,97.85
2697.00,97.85
2696.00,97.85
2695.00,97.85
2694.00,97.87
2693.00,97.88
2692.00,97.89
2691.00,97.89
2690.00,97.89
2689.00,97.89
2688.00,97.89
2687.00,97.90
2686.00,97.90
2685.00,97.91
2684.00,97.92
2683.00,97.92
2682.00,97.91
2681.00,97.89
2680.00,97.89
2679.00,97.90
2678.00,97.92
2677.00,97.94
2676.00,97.96
2675.00,97.97
2674.00,97.97
2673.00,97.96
2672.00,97.95
2671.00,97.96
2670.00,97.96
2669.00,97.96
2668.00,97.95
2667.00,97.95
2666.00,97.96
2665.00,97.97
2664.00,97.98
2663.00,97.98
2662.00,97.97
2661.00,97.95
2660.00,97.94
2659.00,97.94
2658.00,97.94
2657.00,97.94
2656.00,97.94
2655.00,97.96
2654.00,97.97
2653.00,97.98
2652.00,97.98
2651.00,97.97
2650.00,97.96
2649.00,97.95
2648.00,97.95
2647.00,97.95
2646.00,97.95
2645.00,97.93
2644.00,97.91
2643.00,97.90
2642.00,97.88
2641.00,97.88
2640.00,97.87
2639.00,97.87
2638.00,97.88
2637.00,97.88
2636.00,97.89
2635.00,97.90
2634.00,97.91
2633.00,97.92
2632.00,97.92
2631.00,97.90
2630.00,97.88
2629.00,97.87
2628.00,97.87
2627.00,97.87
2626.00,97.87
2625.00,97.86
2624.00,97.86
2623.00,97.85
2622.00,97.84
2621.00,97.82
2620.00,97.81
2619.00,97.81
2618.00,97.82
2617.00,97.83
2616.00,97.83
2615.00,97.84
2614.00,97.84
2613.00,97.85
2612.00,97.85
2611.00,97.85
2610.00,97.86
2609.00,97.87
2608.00,97.87
2607.00,97.88
2606.00,97.88
2605.00,97.88
2604.00,97.87
2603.00,97.87
2602.00,97.86
2601.00,97.85
2600.00,97.84
2599.00,97.83
2598.00,97.81
2597.00,97.79
2596.00,97.77
2595.00,97.77
2594.00,97.78
2593.00,97.80
2592.00,97.83
2591.00,97.85
2590.00,97.85
2589.00,97.84
2588.00,97.84
2587.00,97.83
2586.00,97.83
2585.00,97.83
2584.00,97.82
2583.00,97.82
2582.00,97.82
2581.00,97.82
2580.00,97.82
2579.00,97.83
2578.00,97.83
2577.00,97.84
2576.00,97.85
2575.00,97.86
2574.00,97.86
2573.00,97.84
2572.00,97.82
2571.00,97.80
2570.00,97.78
2569.00,97.77
2568.00,97.77
2567.00,97.78
2566.00,97.79
2565.00,97.81
2564.00,97.83
2563.00,97.84
2562.00,97.84
2561.00,97.82
2560.00,97.80
2559.00,97.80
2558.00,97.80
2557.00,97.80
2556.00,97.81
2555.00,97.82
2554.00,97.83
2553.00,97.82
2552.00,97.81
2551.00,97.80
2550.00,97.79
2549.00,97.78
2548.00,97.78
2547.00,97.77
2546.00,97.77
2545.00,97.78
2544.00,97.80
2543.00,97.82
2542.00,97.84
2541.00,97.85
2540.00,97.85
2539.00,97.85
2538.00,97.85
2537.00,97.85
2536.00,97.84
2535.00,97.84
2534.00,97.84
2533.00,97.86
2532.00,97.88
2531.00,97.89
2530.00,97.88
2529.00,97.86
2528.00,97.85
2527.00,97.85
2526.00,97.86
2525.00,97.89
2524.00,97.91
2523.00,97.93
2522.00,97.92
2521.00,97.90
2520.00,97.89
2519.00,97.88
2518.00,97.88
2517.00,97.90
2516.00,97.91
2515.00,97.92
2514.00,97.92
2513.00,97.92
2512.00,97.92
2511.00,97.91
2510.00,97.91
2509.00,97.91
2508.00,97.91
2507.00,97.90
2506.00,97.89
2505.00,97.87
2504.00,97.87
2503.00,97.89
2502.00,97.90
2501.00,97.91
2500.00,97.92
2499.00,97.94
2498.00,97.96
2497.00,97.98
2496.00,97.98
2495.00,97.98
2494.00,97.98
2493.00,97.98
2492.00,97.99
2491.00,97.99
2490.00,97.97
2489.00,97.94
2488.00,97.92
2487.00,97.91
2486.00,97.93
2485.00,97.96
2484.00,97.99
2483.00,97.99
2482.00,97.99
2481.00,97.98
2480.00,97.98
2479.00,97.97
2478.00,97.97
2477.00,97.98
2476.00,98.00
2475.00,98.03
2474.00,98.03
2473.00,98.02
2472.00,98.00
2471.00,97.98
2470.00,97.95
2469.00,97.94
2468.00,97.93
2467.00,97.95
2466.00,97.97
2465.00,98.00
2464.00,98.02
2463.00,98.02
2462.00,98.02
2461.00,98.02
2460.00,98.02
2459.00,98.00
2458.00,97.99
2457.00,97.97
2456.00,97.97
2455.00,97.98
2454.00,98.00
2453.00,98.02
2452.00,98.05
2451.00,98.08
2450.00,98.10
2449.00,98.10
2448.00,98.10
2447.00,98.10
2446.00,98.10
2445.00,98.09
2444.00,98.05
2443.00,98.01
2442.00,97.99
2441.00,97.99
2440.00,98.00
2439.00,98.01
2438.00,98.01
2437.00,98.01
2436.00,98.02
2435.00,98.04
2434.00,98.05
2433.00,98.07
2432.00,98.08
2431.00,98.09
2430.00,98.10
2429.00,98.10
2428.00,98.10
2427.00,98.11
2426.00,98.11
2425.00,98.12
2424.00,98.13
2423.00,98.15
2422.00,98.17
2421.00,98.17
2420.00,98.16
2419.00,98.14
2418.00,98.11
2417.00,98.09
2416.00,98.07
2415.00,98.05
2414.00,98.06
2413.00,98.07
2412.00,98.09
2411.00,98.11
2410.00,98.12
2409.00,98.12
2408.00,98.13
2407.00,98.14
2406.00,98.15
2405.00,98.16
2404.00,98.16
2403.00,98.17
2402.00,98.18
2401.00,98.19
2400.00,98.19
2399.00,98.17
2398.00,98.15
2397.00,98.14
2396.00,98.14
2395.00,98.14
2394.00,98.13
2393.00,98.12
2392.00,98.12
2391.00,98.14
2390.00,98.17
2389.00,98.20
2388.00,98.21
2387.00,98.22
2386.00,98.23
2385.00,98.25
2384.00,98.28
2383.00,98.30
2382.00,98.32
2381.00,98.32
2380.00,98.33
2379.00,98.34
2378.00,98.36
2377.00,98.36
2376.00,98.34
2375.00,98.33
2374.00,98.34
2373.00,98.38
2372.00,98.44
2371.00,98.49
2370.00,98.50
2369.00,98.49
2368.00,98.45
2367.00,98.41
2366.00,98.37
2365.00,98.34
2364.00,98.35
2363.00,98.39
2362.00,98.46
2361.00,98.52
2360.00,98.55
2359.00,98.52
2358.00,98.44
2357.00,98.39
2356.00,98.41
2355.00,98.46
2354.00,98.50
2353.00,98.49
2352.00,98.47
2351.00,98.46
2350.00,98.47
2349.00,98.50
2348.00,98.53
2347.00,98.57
2346.00,98.60
2345.00,98.58
2344.00,98.53
2343.00,98.47
2342.00,98.41
2341.00,98.37
2340.00,98.37
2339.00,98.41
2338.00,98.48
2337.00,98.53
2336.00,98.55
2335.00,98.55
2334.00,98.54
2333.00,98.52
2332.00,98.50
2331.00,98.45
2330.00,98.41
2329.00,98.38
2328.00,98.39
2327.00,98.41
2326.00,98.42
2325.00,98.40
2324.00,98.36
2323.00,98.31
2322.00,98.27
2321.00,98.24
2320.00,98.25
2319.00,98.27
2318.00,98.29
2317.00,98.30
2316.00,98.30
2315.00,98.29
2314.00,98.29
2313.00,98.29
2312.00,98.27
2311.00,98.24
2310.00,98.22
2309.00,98.22
2308.00,98.22
2307.00,98.24
2306.00,98.24
2305.00,98.22
2304.00,98.20
2303.00,98.18
2302.00,98.17
2301.00,98.17
2300.00,98.18
2299.00,98.18
2298.00,98.18
2297.00,98.18
2296.00,98.18
2295.00,98.17
2294.00,98.16
2293.00,98.15
2292.00,98.14
2291.00,98.13
2290.00,98.11
2289.00,98.08
2288.00,98.06
2287.00,98.05
2286.00,98.05
2285.00,98.06
2284.00,98.06
2283.00,98.05
2282.00,98.01
2281.00,97.98
2280.00,97.96
2279.00,97.96
2278.00,97.96
2277.00,97.97
2276.00,97.98
2275.00,97.99
2274.00,98.01
2273.00,98.02
2272.00,98.02
2271.00,98.01
2270.00,97.98
2269.00,97.96
2268.00,97.95
2267.00,97.95
2266.00,97.97
2265.00,97.99
2264.00,98.00
2263.00,97.99
2262.00,97.96
2261.00,97.94
2260.00,97.93
2259.00,97.95
2258.00,97.97
2257.00,97.98
2256.00,97.98
2255.00,97.96
2254.00,97.93
2253.00,97.90
2252.00,97.90
2251.00,97.92
2250.00,97.96
2249.00,97.99
2248.00,97.99
2247.00,97.96
2246.00,97.91
2245.00,97.85
2244.00,97.81
2243.00,97.82
2242.00,97.84
2241.00,97.85
2240.00,97.83
2239.00,97.83
2238.00,97.84
2237.00,97.87
2236.00,97.87
2235.00,97.85
2234.00,97.82
2233.00,97.78
2232.00,97.76
2231.00,97.75
2230.00,97.76
2229.00,97.79
2228.00,97.79
2227.00,97.78
2226.00,97.76
2225.00,97.73
2224.00,97.71
2223.00,97.71
2222.00,97.71
2221.00,97.71
2220.00,97.72
2219.00,97.71
2218.00,97.66
2217.00,97.60
2216.00,97.54
2215.00,97.51
2214.00,97.54
2213.00,97.58
2212.00,97.61
2211.00,97.61
2210.00,97.58
2209.00,97.56
2208.00,97.56
2207.00,97.56
2206.00,97.58
2205.00,97.60
2204.00,97.64
2203.00,97.69
2202.00,97.73
2201.00,97.72
2200.00,97.68
2199.00,97.61
2198.00,97.53
2197.00,97.49
2196.00,97.47
2195.00,97.45
2194.00,97.41
2193.00,97.38
2192.00,97.40
2191.00,97.44
2190.00,97.45
2189.00,97.42
2188.00,97.39
2187.00,97.38
2186.00,97.38
2185.00,97.40
2184.00,97.43
2183.00,97.45
2182.00,97.46
2181.00,97.46
2180.00,97.47
2179.00,97.48
2178.00,97.46
2177.00,97.40
2176.00,97.35
2175.00,97.33
2174.00,97.33
2173.00,97.34
2172.00,97.35
2171.00,97.36
2170.00,97.36
2169.00,97.35
2168.00,97.31
2167.00,97.27
2166.00,97.25
2165.00,97.25
2164.00,97.25
2163.00,97.22
2162.00,97.18
2161.00,97.15
2160.00,97.19
2159.00,97.29
2158.00,97.40
2157.00,97.48
2156.00,97.55
2155.00,97.59
2154.00,97.59
2153.00,97.55
2152.00,97.50
2151.00,97.46
2150.00,97.45
2149.00,97.48
2148.00,97.55
2147.00,97.64
2146.00,97.70
2145.00,97.74
2144.00,97.75
2143.00,97.77
2142.00,97.79
2141.00,97.79
2140.00,97.80
2139.00,97.81
2138.00,97.83
2137.00,97.85
2136.00,97.87
2135.00,97.90
2134.00,97.94
2133.00,97.96
2132.00,97.96
2131.00,97.95
2130.00,97.95
2129.00,97.95
2128.00,97.96
2127.00,97.97
2126.00,97.97
2125.00,97.95
2124.00,97.96
2123.00,97.99
2122.00,98.03
2121.00,98.04
2120.00,98.05
2119.00,98.04
2118.00,98.02
2117.00,98.00
2116.00,97.99
2115.00,97.99
2114.00,98.01
2113.00,98.01
2112.00,97.98
2111.00,97.95
2110.00,97.95
2109.00,97.97
2108.00,98.00
2107.00,98.03
2106.00,98.03
2105.00,98.02
2104.00,98.02
2103.00,98.02
2102.00,98.02
2101.00,98.00
2100.00,97.97
2099.00,97.94
2098.00,97.92
2097.00,97.92
2096.00,97.94
2095.00,97.99
2094.00,98.05
2093.00,98.09
2092.00,98.10
2091.00,98.08
2090.00,98.07
2089.00,98.06
2088.00,98.06
2087.00,98.04
2086.00,98.01
2085.00,97.99
2084.00,97.97
2083.00,97.96
2082.00,97.97
2081.00,97.98
2080.00,97.98
2079.00,97.97
2078.00,97.95
2077.00,97.92
2076.00,97.90
2075.00,97.90
2074.00,97.90
2073.00,97.90
2072.00,97.89
2071.00,97.89
2070.00,97.88
2069.00,97.88
2068.00,97.89
2067.00,97.89
2066.00,97.89
2065.00,97.86
2064.00,97.83
2063.00,97.81
2062.00,97.81
2061.00,97.83
2060.00,97.84
2059.00,97.84
2058.00,97.84
2057.00,97.83
2056.00,97.84
2055.00,97.85
2054.00,97.84
2053.00,97.82
2052.00,97.78
2051.00,97.75
2050.00,97.74
2049.00,97.73
2048.00,97.72
2047.00,97.72
2046.00,97.71
2045.00,97.68
2044.00,97.62
2043.00,97.57
2042.00,97.54
2041.00,97.52
2040.00,97.51
2039.00,97.52
2038.00,97.53
2037.00,97.54
2036.00,97.53
2035.00,97.51
2034.00,97.46
2033.00,97.41
2032.00,97.38
2031.00,97.38
2030.00,97.41
2029.00,97.45
2028.00,97.50
2027.00,97.55
2026.00,97.59
2025.00,97.59
2024.00,97.57
2023.00,97.56
2022.00,97.54
2021.00,97.50
2020.00,97.44
2019.00,97.37
2018.00,97.33
2017.00,97.33
2016.00,97.39
2015.00,97.48
2014.00,97.58
2013.00,97.67
2012.00,97.72
2011.00,97.73
2010.00,97.69
2009.00,97.66
2008.00,97.67
2007.00,97.70
2006.00,97.71
2005.00,97.69
2004.00,97.67
2003.00,97.68
2002.00,97.71
2001.00,97.73
2000.00,97.73
1999.00,97.71
1998.00,97.69
1997.00,97.65
1996.00,97.60
1995.00,97.58
1994.00,97.59
1993.00,97.60
1992.00,97.60
1991.00,97.59
1990.00,97.58
1989.00,97.56
1988.00,97.53
1987.00,97.49
1986.00,97.48
1985.00,97.49
1984.00,97.50
1983.00,97.47
1982.00,97.41
1981.00,97.37
1980.00,97.39
1979.00,97.47
1978.00,97.58
1977.00,97.65
1976.00,97.66
1975.00,97.62
1974.00,97.58
1973.00,97.58
1972.00,97.63
1971.00,97.69
1970.00,97.74
1969.00,97.79
1968.00,97.85
1967.00,97.91
1966.00,97.91
1965.00,97.87
1964.00,97.82
1963.00,97.81
1962.00,97.84
1961.00,97.88
1960.00,97.90
1959.00,97.93
1958.00,97.95
1957.00,97.97
1956.00,97.97
1955.00,97.95
1954.00,97.92
1953.00,97.89
1952.00,97.88
1951.00,97.89
1950.00,97.91
1949.00,97.93
1948.00,97.95
1947.00,97.98
1946.00,97.99
1945.00,97.98
1944.00,97.98
1943.00,98.01
1942.00,98.07
1941.00,98.13
1940.00,98.15
1939.00,98.13
1938.00,98.10
1937.00,98.09
1936.00,98.10
1935.00,98.12
1934.00,98.13
1933.00,98.14
1932.00,98.17
1931.00,98.20
1930.00,98.22
1929.00,98.21
1928.00,98.20
1927.00,98.20
1926.00,98.17
1925.00,98.13
1924.00,98.08
1923.00,98.08
1922.00,98.12
1921.00,98.17
1920.00,98.20
1919.00,98.22
1918.00,98.24
1917.00,98.26
1916.00,98.28
1915.00,98.31
1914.00,98.32
1913.00,98.30
1912.00,98.27
1911.00,98.25
1910.00,98.26
1909.00,98.29
1908.00,98.34
1907.00,98.36
1906.00,98.36
1905.00,98.34
1904.00,98.33
1903.00,98.33
1902.00,98.32
1901.00,98.31
1900.00,98.29
1899.00,98.29
1898.00,98.31
1897.00,98.33
1896.00,98.34
1895.00,98.36
1894.00,98.36
1893.00,98.35
1892.00,98.33
1891.00,98.34
1890.00,98.35
1889.00,98.37
1888.00,98.37
1887.00,98.37
1886.00,98.39
1885.00,98.41
1884.00,98.44
1883.00,98.45
1882.00,98.45
1881.00,98.43
1880.00,98.43
1879.00,98.43
1878.00,98.45
1877.00,98.45
1876.00,98.45
1875.00,98.44
1874.00,98.44
1873.00,98.43
1872.00,98.40
1871.00,98.35
1870.00,98.30
1869.00,98.29
1868.00,98.32
1867.00,98.37
1866.00,98.40
1865.00,98.40
1864.00,98.40
1863.00,98.43
1862.00,98.48
1861.00,98.53
1860.00,98.54
1859.00,98.52
1858.00,98.49
1857.00,98.48
1856.00,98.48
1855.00,98.49
1854.00,98.49
1853.00,98.49
1852.00,98.48
1851.00,98.46
1850.00,98.44
1849.00,98.43
1848.00,98.44
1847.00,98.46
1846.00,98.49
1845.00,98.53
1844.00,98.56
1843.00,98.55
1842.00,98.51
1841.00,98.47
1840.00,98.45
1839.00,98.44
1838.00,98.46
1837.00,98.48
1836.00,98.51
1835.00,98.53
1834.00,98.53
1833.00,98.50
1832.00,98.43
1831.00,98.39
1830.00,98.40
1829.00,98.42
1828.00,98.42
1827.00,98.42
1826.00,98.43
1825.00,98.46
1824.00,98.50
1823.00,98.53
1822.00,98.55
1821.00,98.57
1820.00,98.60
1819.00,98.62
1818.00,98.64
1817.00,98.63
1816.00,98.62
1815.00,98.59
1814.00,98.56
1813.00,98.52
1812.00,98.50
1811.00,98.51
1810.00,98.52
1809.00,98.54
1808.00,98.57
1807.00,98.59
1806.00,98.60
1805.00,98.59
1804.00,98.57
1803.00,98.55
1802.00,98.55
1801.00,98.56
1800.00,98.56
1799.00,98.56
1798.00,98.56
1797.00,98.55
1796.00,98.54
1795.00,98.53
1794.00,98.51
1793.00,98.52
1792.00,98.55
1791.00,98.57
1790.00,98.57
1789.00,98.56
1788.00,98.55
1787.00,98.55
1786.00,98.57
1785.00,98.58
1784.00,98.57
1783.00,98.53
1782.00,98.50
1781.00,98.49
1780.00,98.48
1779.00,98.48
1778.00,98.48
1777.00,98.49
1776.00,98.52
1775.00,98.54
1774.00,98.54
1773.00,98.54
1772.00,98.53
1771.00,98.51
1770.00,98.49
1769.00,98.48
1768.00,98.48
1767.00,98.48
1766.00,98.45
1765.00,98.42
1764.00,98.39
1763.00,98.37
1762.00,98.36
1761.00,98.33
1760.00,98.28
1759.00,98.24
1758.00,98.24
1757.00,98.27
1756.00,98.29
1755.00,98.29
1754.00,98.27
1753.00,98.23
1752.00,98.16
1751.00,98.07
1750.00,97.97
1749.00,97.91
1748.00,97.88
1747.00,97.85
1746.00,97.80
1745.00,97.73
1744.00,97.68
1743.00,97.66
1742.00,97.63
1741.00,97.59
1740.00,97.54
1739.00,97.49
1738.00,97.48
1737.00,97.48
1736.00,97.48
1735.00,97.46
1734.00,97.41
1733.00,97.28
1732.00,97.13
1731.00,97.05
1730.00,97.04
1729.00,97.05
1728.00,97.04
1727.00,97.01
1726.00,96.98
1725.00,96.94
1724.00,96.90
1723.00,96.88
1722.00,96.88
1721.00,96.88
1720.00,96.89
1719.00,96.92
1718.00,96.96
1717.00,96.95
1716.00,96.91
1715.00,96.87
1714.00,96.86
1713.00,96.86
1712.00,96.86
1711.00,96.86
1710.00,96.86
1709.00,96.84
1708.00,96.80
1707.00,96.78
1706.00,96.82
1705.00,96.89
1704.00,96.96
1703.00,97.01
1702.00,97.03
1701.00,97.07
1700.00,97.12
1699.00,97.11
1698.00,97.08
1697.00,97.07
1696.00,97.06
1695.00,96.97
1694.00,96.83
1693.00,96.70
1692.00,96.60
1691.00,96.53
1690.00,96.47
1689.00,96.43
1688.00,96.41
1687.00,96.36
1686.00,96.21
1685.00,95.96
1684.00,95.68
1683.00,95.40
1682.00,95.16
1681.00,94.96
1680.00,94.77
1679.00,94.60
1678.00,94.43
1677.00,94.22
1676.00,93.94
1675.00,93.61
1674.00,93.26
1673.00,92.92
1672.00,92.57
1671.00,92.17
1670.00,91.69
1669.00,91.11
1668.00,90.51
1667.00,89.97
1666.00,89.51
1665.00,89.06
1664.00,88.57
1663.00,88.05
1662.00,87.58
1661.00,87.16
1660.00,86.77
1659.00,86.42
1658.00,86.13
1657.00,85.92
1656.00,85.75
1655.00,85.48
1654.00,84.92
1653.00,83.98
1652.00,82.95
1651.00,82.18
1650.00,81.60
1649.00,81.02
1648.00,80.20
1647.00,79.10
1646.00,77.92
1645.00,76.85
1644.00,75.90
1643.00,75.00
1642.00,74.10
1641.00,73.19
1640.00,72.32
1639.00,71.60
1638.00,71.02
1637.00,70.51
1636.00,70.03
1635.00,69.73
1634.00,69.71
1633.00,69.94
1632.00,70.32
1631.00,70.79
1630.00,71.31
1629.00,71.88
1628.00,72.47
1627.00,73.05
1626.00,73.61
1625.00,74.17
1624.00,74.78
1623.00,75.45
1622.00,76.13
1621.00,76.79
1620.00,77.49
1619.00,78.23
1618.00,79.02
1617.00,79.84
1616.00,80.58
1615.00,81.17
1614.00,81.68
1613.00,82.20
1612.00,82.76
1611.00,83.31
1610.00,83.85
1609.00,84.40
1608.00,84.98
1607.00,85.56
1606.00,86.12
1605.00,86.68
1604.00,87.24
1603.00,87.78
1602.00,88.27
1601.00,88.72
1600.00,89.16
1599.00,89.55
1598.00,89.87
1597.00,90.16
1596.00,90.42
1595.00,90.67
1594.00,90.88
1593.00,91.04
1592.00,91.19
1591.00,91.29
1590.00,91.35
1589.00,91.39
1588.00,91.43
1587.00,91.45
1586.00,91.42
1585.00,91.36
1584.00,91.28
1583.00,91.19
1582.00,91.05
1581.00,90.90
1580.00,90.79
1579.00,90.71
1578.00,90.57
1577.00,90.33
1576.00,90.00
1575.00,89.61
1574.00,89.25
1573.00,88.97
1572.00,88.72
1571.00,88.41
1570.00,88.01
1569.00,87.59
1568.00,87.22
1567.00,86.89
1566.00,86.54
1565.00,86.19
1564.00,85.92
1563.00,85.76
1562.00,85.65
1561.00,85.39
1560.00,84.89
1559.00,84.15
1558.00,83.42
1557.00,82.92
1556.00,82.54
1555.00,82.11
1554.00,81.56
1553.00,80.95
1552.00,80.32
1551.00,79.66
1550.00,78.95
1549.00,78.24
1548.00,77.61
1547.00,77.03
1546.00,76.44
1545.00,75.84
1544.00,75.31
1543.00,74.91
1542.00,74.60
1541.00,74.33
1540.00,74.11
1539.00,73.97
1538.00,73.96
1537.00,74.06
1536.00,74.28
1535.00,74.58
1534.00,74.98
1533.00,75.44
1532.00,75.91
1531.00,76.36
1530.00,76.82
1529.00,77.31
1528.00,77.84
1527.00,78.42
1526.00,79.02
1525.00,79.60
1524.00,80.13
1523.00,80.69
1522.00,81.33
1521.00,81.97
1520.00,82.48
1519.00,82.88
1518.00,83.32
1517.00,83.87
1516.00,84.43
1515.00,84.94
1514.00,85.38
1513.00,85.79
1512.00,86.17
1511.00,86.53
1510.00,86.88
1509.00,87.23
1508.00,87.64
1507.00,88.20
1506.00,88.78
1505.00,89.13
1504.00,89.31
1503.00,89.48
1502.00,89.70
1501.00,89.95
1500.00,90.21
1499.00,90.49
1498.00,90.80
1497.00,91.09
1496.00,91.32
1495.00,91.47
1494.00,91.57
1493.00,91.64
1492.00,91.66
1491.00,91.69
1490.00,91.73
1489.00,91.72
1488.00,91.61
1487.00,91.41
1486.00,91.08
1485.00,90.62
1484.00,90.04
1483.00,89.38
1482.00,88.73
1481.00,88.16
1480.00,87.72
1479.00,87.43
1478.00,87.28
1477.00,87.29
1476.00,87.46
1475.00,87.73
1474.00,88.07
1473.00,88.41
1472.00,88.64
1471.00,88.67
1470.00,88.51
1469.00,88.18
1468.00,87.71
1467.00,87.09
1466.00,86.38
1465.00,85.71
1464.00,85.30
1463.00,85.22
1462.00,85.42
1461.00,85.78
1460.00,86.23
1459.00,86.72
1458.00,87.25
1457.00,87.73
1456.00,87.99
1455.00,88.07
1454.00,88.12
1453.00,88.19
1452.00,88.28
1451.00,88.37
1450.00,88.48
1449.00,88.61
1448.00,88.76
1447.00,88.89
1446.00,88.99
1445.00,89.05
1444.00,89.08
1443.00,89.09
1442.00,89.07
1441.00,89.06
1440.00,89.05
1439.00,89.05
1438.00,89.05
1437.00,89.05
1436.00,89.04
1435.00,89.05
1434.00,89.11
1433.00,89.22
1432.00,89.37
1431.00,89.54
1430.00,89.72
1429.00,89.85
1428.00,89.89
1427.00,89.82
1426.00,89.65
1425.00,89.39
1424.00,89.05
1423.00,88.70
1422.00,88.35
1421.00,87.97
1420.00,87.48
1419.00,86.96
1418.00,86.59
1417.00,86.41
1416.00,86.40
1415.00,86.54
1414.00,86.80
1413.00,87.17
1412.00,87.64
1411.00,88.19
1410.00,88.78
1409.00,89.34
1408.00,89.85
1407.00,90.31
1406.00,90.74
1405.00,91.13
1404.00,91.46
1403.00,91.70
1402.00,91.86
1401.00,91.97
1400.00,92.06
1399.00,92.13
1398.00,92.18
1397.00,92.20
1396.00,92.21
1395.00,92.21
1394.00,92.20
1393.00,92.14
1392.00,92.05
1391.00,91.93
1390.00,91.81
1389.00,91.68
1388.00,91.52
1387.00,91.35
1386.00,91.15
1385.00,90.94
1384.00,90.72
1383.00,90.48
1382.00,90.23
1381.00,89.98
1380.00,89.72
1379.00,89.46
1378.00,89.23
1377.00,89.02
1376.00,88.83
1375.00,88.68
1374.00,88.59
1373.00,88.57
1372.00,88.61
1371.00,88.67
1370.00,88.76
1369.00,88.87
1368.00,88.99
1367.00,89.11
1366.00,89.22
1365.00,89.32
1364.00,89.41
1363.00,89.52
1362.00,89.65
1361.00,89.78
1360.00,89.91
1359.00,90.02
1358.00,90.12
1357.00,90.22
1356.00,90.32
1355.00,90.43
1354.00,90.54
1353.00,90.64
1352.00,90.73
1351.00,90.80
1350.00,90.87
1349.00,90.93
1348.00,90.98
1347.00,91.03
1346.00,91.09
1345.00,91.16
1344.00,91.24
1343.00,91.30
1342.00,91.35
1341.00,91.40
1340.00,91.47
1339.00,91.55
1338.00,91.63
1337.00,91.70
1336.00,91.76
1335.00,91.81
1334.00,91.87
1333.00,91.93
1332.00,92.00
1331.00,92.06
1330.00,92.13
1329.00,92.20
1328.00,92.27
1327.00,92.33
1326.00,92.38
1325.00,92.42
1324.00,92.45
1323.00,92.44
1322.00,92.41
1321.00,92.36
1320.00,92.31
1319.00,92.27
1318.00,92.24
1317.00,92.21
1316.00,92.18
1315.00,92.16
1314.00,92.14
1313.00,92.11
1312.00,92.08
1311.00,92.03
1310.00,91.96
1309.00,91.88
1308.00,91.79
1307.00,91.70
1306.00,91.61
1305.00,91.52
1304.00,91.44
1303.00,91.37
1302.00,91.33
1301.00,91.29
1300.00,91.27
1299.00,91.24
1298.00,91.19
1297.00,91.12
1296.00,91.02
1295.00,90.89
1294.00,90.77
1293.00,90.66
1292.00,90.58
1291.00,90.54
1290.00,90.55
1289.00,90.57
1288.00,90.59
1287.00,90.59
1286.00,90.56
1285.00,90.51
1284.00,90.43
1283.00,90.34
1282.00,90.25
1281.00,90.15
1280.00,90.07
1279.00,89.99
1278.00,89.94
1277.00,89.89
1276.00,89.83
1275.00,89.73
1274.00,89.58
1273.00,89.36
1272.00,89.07
1271.00,88.69
1270.00,88.25
1269.00,87.76
1268.00,87.26
1267.00,86.81
1266.00,86.44
1265.00,86.20
1264.00,86.08
1263.00,86.08
1262.00,86.18
1261.00,86.35
1260.00,86.57
1259.00,86.82
1258.00,87.10
1257.00,87.37
1256.00,87.64
1255.00,87.90
1254.00,88.15
1253.00,88.39
1252.00,88.61
1251.00,88.80
1250.00,88.97
1249.00,89.12
1248.00,89.25
1247.00,89.34
1246.00,89.41
1245.00,89.45
1244.00,89.46
1243.00,89.45
1242.00,89.44
1241.00,89.43
1240.00,89.45
1239.00,89.49
1238.00,89.56
1237.00,89.67
1236.00,89.82
1235.00,90.02
1234.00,90.26
1233.00,90.53
1232.00,90.80
1231.00,91.07
1230.00,91.34
1229.00,91.60
1228.00,91.84
1227.00,92.05
1226.00,92.22
1225.00,92.36
1224.00,92.45
1223.00,92.48
1222.00,92.43
1221.00,92.32
1220.00,92.15
1219.00,91.92
1218.00,91.66
1217.00,91.40
1216.00,91.16
1215.00,90.97
1214.00,90.84
1213.00,90.78
1212.00,90.79
1211.00,90.82
1210.00,90.83
1209.00,90.80
1208.00,90.69
1207.00,90.50
1206.00,90.21
1205.00,89.81
1204.00,89.29
1203.00,88.72
1202.00,88.18
1201.00,87.79
1200.00,87.63
1199.00,87.74
1198.00,88.06
1197.00,88.51
1196.00,89.01
1195.00,89.49
1194.00,89.92
1193.00,90.31
1192.00,90.64
1191.00,90.93
1190.00,91.17
1189.00,91.39
1188.00,91.59
1187.00,91.76
1186.00,91.89
1185.00,91.97
1184.00,92.02
1183.00,92.04
1182.00,92.02
1181.00,91.96
1180.00,91.84
1179.00,91.66
1178.00,91.44
1177.00,91.17
1176.00,90.87
1175.00,90.56
1174.00,90.25
1173.00,89.98
1172.00,89.77
1171.00,89.63
1170.00,89.58
1169.00,89.61
1168.00,89.72
1167.00,89.90
1166.00,90.13
1165.00,90.40
1164.00,90.69
1163.00,90.99
1162.00,91.30
1161.00,91.59
1160.00,91.87
1159.00,92.13
1158.00,92.39
1157.00,92.62
1156.00,92.83
1155.00,93.00
1154.00,93.15
1153.00,93.28
1152.00,93.42
1151.00,93.56
1150.00,93.72
1149.00,93.88
1148.00,94.04
1147.00,94.19
1146.00,94.33
1145.00,94.47
1144.00,94.59
1143.00,94.69
1142.00,94.77
1141.00,94.86
1140.00,94.96
1139.00,95.05
1138.00,95.13
1137.00,95.17
1136.00,95.19
1135.00,95.18
1134.00,95.15
1133.00,95.11
1132.00,95.05
1131.00,94.94
1130.00,94.77
1129.00,94.56
1128.00,94.32
1127.00,94.11
1126.00,93.96
1125.00,93.86
1124.00,93.81
1123.00,93.78
1122.00,93.74
1121.00,93.72
1120.00,93.71
1119.00,93.71
1118.00,93.73
1117.00,93.75
1116.00,93.77
1115.00,93.80
1114.00,93.85
1113.00,93.89
1112.00,93.92
1111.00,93.94
1110.00,93.97
1109.00,94.02
1108.00,94.08
1107.00,94.17
1106.00,94.28
1105.00,94.43
1104.00,94.58
1103.00,94.71
1102.00,94.82
1101.00,94.90
1100.00,94.97
1099.00,95.04
1098.00,95.10
1097.00,95.16
1096.00,95.18
1095.00,95.18
1094.00,95.18
1093.00,95.22
1092.00,95.28
1091.00,95.35
1090.00,95.38
1089.00,95.39
1088.00,95.37
1087.00,95.34
1086.00,95.30
1085.00,95.28
1084.00,95.27
1083.00,95.28
1082.00,95.29
1081.00,95.27
1080.00,95.24
1079.00,95.19
1078.00,95.15
1077.00,95.13
1076.00,95.13
1075.00,95.12
1074.00,95.12
1073.00,95.13
1072.00,95.14
1071.00,95.15
1070.00,95.17
1069.00,95.22
1068.00,95.29
1067.00,95.37
1066.00,95.46
1065.00,95.54
1064.00,95.62
1063.00,95.68
1062.00,95.74
1061.00,95.80
1060.00,95.85
1059.00,95.92
1058.00,95.99
1057.00,96.08
1056.00,96.18
1055.00,96.26
1054.00,96.34
1053.00,96.41
1052.00,96.49
1051.00,96.55
1050.00,96.59
1049.00,96.59
1048.00,96.58
1047.00,96.57
1046.00,96.56
1045.00,96.56
1044.00,96.55
1043.00,96.53
1042.00,96.52
1041.00,96.52
1040.00,96.52
1039.00,96.53
1038.00,96.53
1037.00,96.51
1036.00,96.46
1035.00,96.37
1034.00,96.24
1033.00,96.10
1032.00,95.96
1031.00,95.84
1030.00,95.76
1029.00,95.75
1028.00,95.78
1027.00,95.85
1026.00,95.95
1025.00,96.07
1024.00,96.20
1023.00,96.32
1022.00,96.43
1021.00,96.51
1020.00,96.58
1019.00,96.64
1018.00,96.69
1017.00,96.72
1016.00,96.74
1015.00,96.75
1014.00,96.76
1013.00,96.78
1012.00,96.81
1011.00,96.83
1010.00,96.86
1009.00,96.90
1008.00,96.93
1007.00,96.96
1006.00,96.97
1005.00,96.96
1004.00,96.95
1003.00,96.95
1002.00,96.96
1001.00,96.97
1000.00,96.97
999.00,96.96
998.00,96.94
997.00,96.93
996.00,96.93
995.00,96.92
994.00,96.90
993.00,96.87
992.00,96.82
991.00,96.74
990.00,96.66
989.00,96.59
988.00,96.53
987.00,96.49
986.00,96.45
985.00,96.42
984.00,96.40
983.00,96.40
982.00,96.40
981.00,96.39
980.00,96.36
979.00,96.32
978.00,96.28
977.00,96.26
976.00,96.24
975.00,96.23
974.00,96.21
973.00,96.16
972.00,96.10
971.00,96.03
970.00,95.98
969.00,95.94
968.00,95.90
967.00,95.83
966.00,95.72
965.00,95.59
964.00,95.44
963.00,95.26
962.00,95.07
961.00,94.89
960.00,94.78
959.00,94.77
958.00,94.86
957.00,95.00
956.00,95.15
955.00,95.27
954.00,95.33
953.00,95.36
952.00,95.37
951.00,95.40
950.00,95.46
949.00,95.56
948.00,95.70
947.00,95.84
946.00,95.97
945.00,96.09
944.00,96.19
943.00,96.29
942.00,96.38
941.00,96.44
940.00,96.49
939.00,96.50
938.00,96.48
937.00,96.44
936.00,96.38
935.00,96.28
934.00,96.15
933.00,95.99
932.00,95.82
931.00,95.65
930.00,95.52
929.00,95.46
928.00,95.48
927.00,95.56
926.00,95.70
925.00,95.88
924.00,96.06
923.00,96.24
922.00,96.39
921.00,96.53
920.00,96.63
919.00,96.69
918.00,96.73
917.00,96.77
916.00,96.82
915.00,96.87
914.00,96.91
913.00,96.95
912.00,96.98
911.00,96.99
910.00,97.00
909.00,97.01
908.00,97.04
907.00,97.10
906.00,97.16
905.00,97.22
904.00,97.26
903.00,97.29
902.00,97.31
901.00,97.32
900.00,97.32
899.00,97.32
898.00,97.32
897.00,97.33
896.00,97.34
895.00,97.35
894.00,97.35
893.00,97.35
892.00,97.36
891.00,97.39
890.00,97.41
889.00,97.44
888.00,97.45
887.00,97.45
886.00,97.45
885.00,97.44
884.00,97.43
883.00,97.42
882.00,97.41
881.00,97.41
880.00,97.43
879.00,97.46
878.00,97.47
877.00,97.46
876.00,97.43
875.00,97.41
874.00,97.41
873.00,97.42
872.00,97.44
871.00,97.44
870.00,97.45
869.00,97.46
868.00,97.48
867.00,97.51
866.00,97.52
865.00,97.53
864.00,97.53
863.00,97.53
862.00,97.53
861.00,97.53
860.00,97.51
859.00,97.49
858.00,97.47
857.00,97.46
856.00,97.47
855.00,97.48
854.00,97.47
853.00,97.44
852.00,97.40
851.00,97.38
850.00,97.35
849.00,97.32
848.00,97.30
847.00,97.29
846.00,97.31
845.00,97.31
844.00,97.28
843.00,97.21
842.00,97.12
841.00,97.03
840.00,96.93
839.00,96.81
838.00,96.67
837.00,96.51
836.00,96.32
835.00,96.15
834.00,96.06
833.00,96.06
832.00,96.16
831.00,96.30
830.00,96.45
829.00,96.58
828.00,96.69
827.00,96.78
826.00,96.86
825.00,96.90
824.00,96.90
823.00,96.87
822.00,96.86
821.00,96.88
820.00,96.90
819.00,96.90
818.00,96.87
817.00,96.82
816.00,96.75
815.00,96.68
814.00,96.62
813.00,96.58
812.00,96.57
811.00,96.57
810.00,96.54
809.00,96.50
808.00,96.47
807.00,96.45
806.00,96.43
805.00,96.40
804.00,96.35
803.00,96.29
802.00,96.22
801.00,96.16
800.00,96.11
799.00,96.07
798.00,96.03
797.00,96.00
796.00,95.97
795.00,95.93
794.00,95.86
793.00,95.78
792.00,95.71
791.00,95.68
790.00,95.67
789.00,95.66
788.00,95.64
787.00,95.61
786.00,95.54
785.00,95.46
784.00,95.39
783.00,95.33
782.00,95.30
781.00,95.28
780.00,95.25
779.00,95.21
778.00,95.15
777.00,95.08
776.00,95.02
775.00,94.96
774.00,94.91
773.00,94.86
772.00,94.81
771.00,94.76
770.00,94.71
769.00,94.64
768.00,94.56
767.00,94.49
766.00,94.46
765.00,94.46
764.00,94.45
763.00,94.43
762.00,94.38
761.00,94.29
760.00,94.19
759.00,94.10
758.00,94.05
757.00,94.01
756.00,93.96
755.00,93.89
754.00,93.81
753.00,93.71
752.00,93.57
751.00,93.44
750.00,93.34
749.00,93.30
748.00,93.28
747.00,93.23
746.00,93.13
745.00,93.00
744.00,92.85
743.00,92.68
742.00,92.50
741.00,92.31
740.00,92.12
739.00,91.91
738.00,91.68
737.00,91.40
736.00,91.06
735.00,90.62
734.00,90.10
733.00,89.54
732.00,89.03
731.00,88.64
730.00,88.42
729.00,88.35
728.00,88.41
727.00,88.53
726.00,88.68
725.00,88.80
724.00,88.87
723.00,88.92
722.00,88.95
721.00,88.96
720.00,88.94
719.00,88.87
718.00,88.77
717.00,88.64
716.00,88.48
715.00,88.30
714.00,88.09
713.00,87.88
712.00,87.69
711.00,87.54
710.00,87.44
709.00,87.34
708.00,87.23
707.00,87.11
706.00,87.00
705.00,86.88
704.00,86.72
703.00,86.51
702.00,86.24
701.00,85.96
700.00,85.68
699.00,85.39
698.00,85.08
697.00,84.72
696.00,84.33
695.00,83.94
694.00,83.57
693.00,83.22
692.00,82.87
691.00,82.54
690.00,82.24
689.00,81.98
688.00,81.80
687.00,81.72
686.00,81.71
685.00,81.75
684.00,81.78
683.00,81.84
682.00,81.91
681.00,82.00
680.00,82.08
679.00,82.17
678.00,82.26
677.00,82.37
676.00,82.49
675.00,82.64
674.00,82.85
673.00,83.10
672.00,83.33
671.00,83.49
670.00,83.61
669.00,83.77
668.00,84.03
667.00,84.32
666.00,84.55
665.00,84.73
664.00,84.89
663.00,85.06
662.00,85.25
661.00,85.43
660.00,85.59
659.00,85.75
658.00,85.96
657.00,86.21
656.00,86.47
655.00,86.67
654.00,86.82
653.00,86.92
652.00,86.98
651.00,87.02
650.00,87.09
649.00,87.20
648.00,87.30
647.00,87.39
646.00,87.47
645.00,87.63
644.00,87.83
643.00,87.99
642.00,88.05
641.00,88.06
640.00,88.06
639.00,88.08
638.00,88.12
637.00,88.17
636.00,88.26
635.00,88.35
634.00,88.40
633.00,88.35
632.00,88.21
631.00,88.05
630.00,87.97
629.00,88.02
628.00,88.18
627.00,88.37
626.00,88.54
625.00,88.71
624.00,88.81
623.00,88.79
622.00,88.62
621.00,88.41
620.00,88.28
619.00,88.26
618.00,88.35
617.00,88.47
616.00,88.51
615.00,88.41
614.00,88.26
613.00,88.23
612.00,88.37
611.00,88.59
610.00,88.76
609.00,88.87
608.00,88.93
607.00,88.91
606.00,88.80
605.00,88.59
604.00,88.23
603.00,87.59
602.00,86.76
601.00,86.10
600.00,85.99
599.00,86.43
598.00,87.00
597.00,87.31
596.00,87.33
595.00,87.26
594.00,87.24
593.00,87.26
592.00,87.30
591.00,87.26
590.00,87.04
589.00,86.65
588.00,86.29
587.00,86.08
586.00,85.95
585.00,85.69
584.00,85.30
583.00,84.86
582.00,84.25
581.00,83.28
580.00,82.04
579.00,81.03
578.00,80.54
577.00,80.41
576.00,80.55
575.00,81.15
574.00,82.08
573.00,82.75
572.00,82.84
571.00,82.69
570.00,82.64
569.00,82.59
568.00,82.37
567.00,82.20
566.00,82.42
565.00,82.90
564.00,83.35
563.00,83.76
562.00,84.32
561.00,85.11
560.00,85.91
559.00,86.41
558.00,86.51
557.00,86.36
556.00,86.23
555.00,86.28
554.00,86.42
553.00,86.50
552.00,86.55
551.00,86.79
550.00,87.23
