Created as New Dataset,97. Du Pont (Bright Yellow)
cm-1,%T
4000.00,97.10
3999.00,97.08
3998.00,97.07
3997.00,97.05
3996.00,97.03
3995.00,97.03
3994.00,97.03
3993.00,97.03
3992.00,97.03
3991.00,97.04
3990.00,97.05
3989.00,97.06
3988.00,97.06
3987.00,97.07
3986.00,97.06
3985.00,97.05
3984.00,97.03
3983.00,97.01
3982.00,96.99
3981.00,96.98
3980.00,96.98
3979.00,96.99
3978.00,97.01
3977.00,97.01
3976.00,97.02
3975.00,97.02
3974.00,97.03
3973.00,97.05
3972.00,97.05
3971.00,97.05
3970.00,97.05
3969.00,97.04
3968.00,97.04
3967.00,97.05
3966.00,97.06
3965.00,97.06
3964.00,97.06
3963.00,97.05
3962.00,97.05
3961.00,97.05
3960.00,97.06
3959.00,97.07
3958.00,97.08
3957.00,97.08
3956.00,97.08
3955.00,97.06
3954.00,97.05
3953.00,97.05
3952.00,97.06
3951.00,97.08
3950.00,97.10
3949.00,97.10
3948.00,97.09
3947.00,97.07
3946.00,97.06
3945.00,97.04
3944.00,97.03
3943.00,97.02
3942.00,97.02
3941.00,97.02
3940.00,97.03
3939.00,97.03
3938.00,97.03
3937.00,97.02
3936.00,97.01
3935.00,97.00
3934.00,97.00
3933.00,97.00
3932.00,97.00
3931.00,96.99
3930.00,96.98
3929.00,96.98
3928.00,96.98
3927.00,96.98
3926.00,96.99
3925.00,96.99
3924.00,96.99
3923.00,96.99
3922.00,97.01
3921.00,97.01
3920.00,97.01
3919.00,97.00
3918.00,96.98
3917.00,96.97
3916.00,96.97
3915.00,96.97
3914.00,96.98
3913.00,96.98
3912.00,96.98
3911.00,96.98
3910.00,96.99
3909.00,97.00
3908.00,97.01
3907.00,97.02
3906.00,97.02
3905.00,97.02
3904.00,97.03
3903.00,97.03
3902.00,97.03
3901.00,97.03
3900.00,97.01
3899.00,97.00
3898.00,97.01
3897.00,97.01
3896.00,97.02
3895.00,97.03
3894.00,97.01
3893.00,96.99
3892.00,96.97
3891.00,96.97
3890.00,96.99
3889.00,97.02
3888.00,97.03
3887.00,97.04
3886.00,97.03
3885.00,97.03
3884.00,97.03
3883.00,97.01
3882.00,96.99
3881.00,96.96
3880.00,96.94
3879.00,96.94
3878.00,96.95
3877.00,96.96
3876.00,96.97
3875.00,97.01
3874.00,97.06
3873.00,97.09
3872.00,97.09
3871.00,97.04
3870.00,96.98
3869.00,96.96
3868.00,96.97
3867.00,96.99
3866.00,97.00
3865.00,97.01
3864.00,97.03
3863.00,97.05
3862.00,97.04
3861.00,97.03
3860.00,97.01
3859.00,97.01
3858.00,97.02
3857.00,97.03
3856.00,97.05
3855.00,97.04
3854.00,97.01
3853.00,96.99
3852.00,97.00
3851.00,97.00
3850.00,96.98
3849.00,96.95
3848.00,96.93
3847.00,96.92
3846.00,96.94
3845.00,96.95
3844.00,96.96
3843.00,96.95
3842.00,96.95
3841.00,96.95
3840.00,96.96
3839.00,96.97
3838.00,96.98
3837.00,96.99
3836.00,96.98
3835.00,96.98
3834.00,96.97
3833.00,96.97
3832.00,96.97
3831.00,96.98
3830.00,96.98
3829.00,96.97
3828.00,96.95
3827.00,96.93
3826.00,96.92
3825.00,96.92
3824.00,96.92
3823.00,96.92
3822.00,96.91
3821.00,96.90
3820.00,96.91
3819.00,96.93
3818.00,96.93
3817.00,96.91
3816.00,96.89
3815.00,96.89
3814.00,96.91
3813.00,96.91
3812.00,96.91
3811.00,96.90
3810.00,96.91
3809.00,96.93
3808.00,96.95
3807.00,96.94
3806.00,96.93
3805.00,96.91
3804.00,96.89
3803.00,96.86
3802.00,96.84
3801.00,96.86
3800.00,96.91
3799.00,96.94
3798.00,96.93
3797.00,96.91
3796.00,96.89
3795.00,96.90
3794.00,96.91
3793.00,96.92
3792.00,96.91
3791.00,96.89
3790.00,96.86
3789.00,96.83
3788.00,96.81
3787.00,96.80
3786.00,96.80
3785.00,96.81
3784.00,96.82
3783.00,96.82
3782.00,96.82
3781.00,96.81
3780.00,96.81
3779.00,96.81
3778.00,96.81
3777.00,96.80
3776.00,96.79
3775.00,96.80
3774.00,96.81
3773.00,96.84
3772.00,96.84
3771.00,96.82
3770.00,96.80
3769.00,96.79
3768.00,96.80
3767.00,96.80
3766.00,96.78
3765.00,96.77
3764.00,96.76
3763.00,96.75
3762.00,96.75
3761.00,96.74
3760.00,96.72
3759.00,96.72
3758.00,96.72
3757.00,96.73
3756.00,96.75
3755.00,96.77
3754.00,96.79
3753.00,96.79
3752.00,96.79
3751.00,96.78
3750.00,96.77
3749.00,96.76
3748.00,96.76
3747.00,96.74
3746.00,96.73
3745.00,96.71
3744.00,96.71
3743.00,96.73
3742.00,96.75
3741.00,96.75
3740.00,96.75
3739.00,96.76
3738.00,96.77
3737.00,96.76
3736.00,96.74
3735.00,96.71
3734.00,96.69
3733.00,96.69
3732.00,96.70
3731.00,96.73
3730.00,96.75
3729.00,96.75
3728.00,96.73
3727.00,96.68
3726.00,96.63
3725.00,96.61
3724.00,96.61
3723.00,96.63
3722.00,96.66
3721.00,96.67
3720.00,96.67
3719.00,96.68
3718.00,96.69
3717.00,96.71
3716.00,96.71
3715.00,96.71
3714.00,96.70
3713.00,96.67
3712.00,96.65
3711.00,96.62
3710.00,96.62
3709.00,96.62
3708.00,96.63
3707.00,96.63
3706.00,96.62
3705.00,96.60
3704.00,96.58
3703.00,96.57
3702.00,96.57
3701.00,96.60
3700.00,96.64
3699.00,96.66
3698.00,96.66
3697.00,96.64
3696.00,96.62
3695.00,96.61
3694.00,96.62
3693.00,96.64
3692.00,96.66
3691.00,96.66
3690.00,96.64
3689.00,96.62
3688.00,96.61
3687.00,96.61
3686.00,96.60
3685.00,96.58
3684.00,96.55
3683.00,96.52
3682.00,96.51
3681.00,96.52
3680.00,96.53
3679.00,96.55
3678.00,96.55
3677.00,96.52
3676.00,96.49
3675.00,96.50
3674.00,96.54
3673.00,96.58
3672.00,96.59
3671.00,96.56
3670.00,96.53
3669.00,96.51
3668.00,96.51
3667.00,96.51
3666.00,96.50
3665.00,96.48
3664.00,96.46
3663.00,96.44
3662.00,96.42
3661.00,96.41
3660.00,96.41
3659.00,96.41
3658.00,96.41
3657.00,96.40
3656.00,96.39
3655.00,96.39
3654.00,96.40
3653.00,96.42
3652.00,96.45
3651.00,96.46
3650.00,96.46
3649.00,96.45
3648.00,96.45
3647.00,96.44
3646.00,96.43
3645.00,96.40
3644.00,96.36
3643.00,96.34
3642.00,96.32
3641.00,96.33
3640.00,96.35
3639.00,96.37
3638.00,96.40
3637.00,96.42
3636.00,96.44
3635.00,96.45
3634.00,96.45
3633.00,96.45
3632.00,96.44
3631.00,96.42
3630.00,96.39
3629.00,96.37
3628.00,96.37
3627.00,96.39
3626.00,96.40
3625.00,96.38
3624.00,96.36
3623.00,96.34
3622.00,96.33
3621.00,96.31
3620.00,96.30
3619.00,96.30
3618.00,96.32
3617.00,96.32
3616.00,96.32
3615.00,96.29
3614.00,96.26
3613.00,96.24
3612.00,96.24
3611.00,96.25
3610.00,96.25
3609.00,96.24
3608.00,96.23
3607.00,96.23
3606.00,96.25
3605.00,96.26
3604.00,96.26
3603.00,96.25
3602.00,96.25
3601.00,96.25
3600.00,96.27
3599.00,96.29
3598.00,96.29
3597.00,96.28
3596.00,96.26
3595.00,96.26
3594.00,96.28
3593.00,96.31
3592.00,96.32
3591.00,96.31
3590.00,96.28
3589.00,96.22
3588.00,96.16
3587.00,96.13
3586.00,96.11
3585.00,96.10
3584.00,96.11
3583.00,96.12
3582.00,96.13
3581.00,96.14
3580.00,96.14
3579.00,96.13
3578.00,96.13
3577.00,96.13
3576.00,96.13
3575.00,96.13
3574.00,96.13
3573.00,96.12
3572.00,96.10
3571.00,96.08
3570.00,96.07
3569.00,96.07
3568.00,96.07
3567.00,96.06
3566.00,96.05
3565.00,96.04
3564.00,96.03
3563.00,96.02
3562.00,96.02
3561.00,96.03
3560.00,96.03
3559.00,96.02
3558.00,96.00
3557.00,95.98
3556.00,95.97
3555.00,95.96
3554.00,95.95
3553.00,95.94
3552.00,95.93
3551.00,95.91
3550.00,95.90
3549.00,95.89
3548.00,95.88
3547.00,95.86
3546.00,95.85
3545.00,95.85
3544.00,95.85
3543.00,95.85
3542.00,95.84
3541.00,95.84
3540.00,95.83
3539.00,95.83
3538.00,95.83
3537.00,95.83
3536.00,95.82
3535.00,95.81
3534.00,95.81
3533.00,95.82
3532.00,95.83
3531.00,95.82
3530.00,95.80
3529.00,95.77
3528.00,95.75
3527.00,95.74
3526.00,95.72
3525.00,95.70
3524.00,95.66
3523.00,95.62
3522.00,95.60
3521.00,95.60
3520.00,95.63
3519.00,95.64
3518.00,95.65
3517.00,95.65
3516.00,95.66
3515.00,95.66
3514.00,95.65
3513.00,95.62
3512.00,95.59
3511.00,95.57
3510.00,95.57
3509.00,95.58
3508.00,95.58
3507.00,95.56
3506.00,95.53
3505.00,95.50
3504.00,95.48
3503.00,95.47
3502.00,95.48
3501.00,95.49
3500.00,95.50
3499.00,95.49
3498.00,95.47
3497.00,95.45
3496.00,95.44
3495.00,95.43
3494.00,95.43
3493.00,95.42
3492.00,95.41
3491.00,95.42
3490.00,95.42
3489.00,95.43
3488.00,95.42
3487.00,95.41
3486.00,95.39
3485.00,95.39
3484.00,95.40
3483.00,95.42
3482.00,95.44
3481.00,95.44
3480.00,95.42
3479.00,95.40
3478.00,95.38
3477.00,95.37
3476.00,95.36
3475.00,95.35
3474.00,95.34
3473.00,95.33
3472.00,95.34
3471.00,95.35
3470.00,95.35
3469.00,95.33
3468.00,95.31
3467.00,95.30
3466.00,95.30
3465.00,95.31
3464.00,95.33
3463.00,95.33
3462.00,95.32
3461.00,95.31
3460.00,95.29
3459.00,95.28
3458.00,95.28
3457.00,95.30
3456.00,95.32
3455.00,95.34
3454.00,95.34
3453.00,95.32
3452.00,95.30
3451.00,95.29
3450.00,95.29
3449.00,95.29
3448.00,95.29
3447.00,95.30
3446.00,95.31
3445.00,95.31
3444.00,95.30
3443.00,95.28
3442.00,95.26
3441.00,95.25
3440.00,95.25
3439.00,95.25
3438.00,95.25
3437.00,95.26
3436.00,95.27
3435.00,95.27
3434.00,95.26
3433.00,95.25
3432.00,95.24
3431.00,95.24
3430.00,95.23
3429.00,95.22
3428.00,95.21
3427.00,95.21
3426.00,95.23
3425.00,95.26
3424.00,95.29
3423.00,95.30
3422.00,95.29
3421.00,95.27
3420.00,95.24
3419.00,95.22
3418.00,95.20
3417.00,95.18
3416.00,95.17
3415.00,95.16
3414.00,95.15
3413.00,95.13
3412.00,95.11
3411.00,95.09
3410.00,95.09
3409.00,95.10
3408.00,95.12
3407.00,95.14
3406.00,95.15
3405.00,95.15
3404.00,95.13
3403.00,95.09
3402.00,95.05
3401.00,95.02
3400.00,95.02
3399.00,95.03
3398.00,95.06
3397.00,95.07
3396.00,95.06
3395.00,95.05
3394.00,95.05
3393.00,95.07
3392.00,95.08
3391.00,95.07
3390.00,95.04
3389.00,95.01
3388.00,94.98
3387.00,94.98
3386.00,95.00
3385.00,95.01
3384.00,95.01
3383.00,95.00
3382.00,94.97
3381.00,94.95
3380.00,94.93
3379.00,94.91
3378.00,94.89
3377.00,94.87
3376.00,94.85
3375.00,94.82
3374.00,94.79
3373.00,94.77
3372.00,94.74
3371.00,94.71
3370.00,94.69
3369.00,94.67
3368.00,94.65
3367.00,94.62
3366.00,94.59
3365.00,94.55
3364.00,94.51
3363.00,94.48
3362.00,94.45
3361.00,94.42
3360.00,94.39
3359.00,94.36
3358.00,94.33
3357.00,94.29
3356.00,94.26
3355.00,94.24
3354.00,94.21
3353.00,94.17
3352.00,94.12
3351.00,94.05
3350.00,93.99
3349.00,93.92
3348.00,93.85
3347.00,93.78
3346.00,93.70
3345.00,93.62
3344.00,93.54
3343.00,93.47
3342.00,93.39
3341.00,93.30
3340.00,93.20
3339.00,93.09
3338.00,92.99
3337.00,92.89
3336.00,92.80
3335.00,92.70
3334.00,92.58
3333.00,92.44
3332.00,92.27
3331.00,92.10
3330.00,91.92
3329.00,91.75
3328.00,91.57
3327.00,91.39
3326.00,91.20
3325.00,91.00
3324.00,90.79
3323.00,90.57
3322.00,90.34
3321.00,90.10
3320.00,89.83
3319.00,89.55
3318.00,89.24
3317.00,88.91
3316.00,88.57
3315.00,88.21
3314.00,87.86
3313.00,87.50
3312.00,87.16
3311.00,86.85
3310.00,86.55
3309.00,86.27
3308.00,85.99
3307.00,85.72
3306.00,85.46
3305.00,85.22
3304.00,85.00
3303.00,84.80
3302.00,84.63
3301.00,84.50
3300.00,84.39
3299.00,84.31
3298.00,84.27
3297.00,84.25
3296.00,84.26
3295.00,84.30
3294.00,84.36
3293.00,84.44
3292.00,84.54
3291.00,84.66
3290.00,84.81
3289.00,84.98
3288.00,85.16
3287.00,85.35
3286.00,85.53
3285.00,85.71
3284.00,85.90
3283.00,86.08
3282.00,86.27
3281.00,86.44
3280.00,86.61
3279.00,86.80
3278.00,86.98
3277.00,87.16
3276.00,87.33
3275.00,87.47
3274.00,87.61
3273.00,87.74
3272.00,87.86
3271.00,87.96
3270.00,88.06
3269.00,88.15
3268.00,88.26
3267.00,88.37
3266.00,88.48
3265.00,88.59
3264.00,88.68
3263.00,88.78
3262.00,88.88
3261.00,88.99
3260.00,89.10
3259.00,89.22
3258.00,89.33
3257.00,89.43
3256.00,89.53
3255.00,89.62
3254.00,89.73
3253.00,89.83
3252.00,89.92
3251.00,90.00
3250.00,90.08
3249.00,90.17
3248.00,90.26
3247.00,90.35
3246.00,90.46
3245.00,90.56
3244.00,90.66
3243.00,90.75
3242.00,90.82
3241.00,90.88
3240.00,90.92
3239.00,90.96
3238.00,91.02
3237.00,91.10
3236.00,91.19
3235.00,91.28
3234.00,91.36
3233.00,91.42
3232.00,91.47
3231.00,91.52
3230.00,91.56
3229.00,91.61
3228.00,91.65
3227.00,91.70
3226.00,91.76
3225.00,91.81
3224.00,91.86
3223.00,91.90
3222.00,91.94
3221.00,91.97
3220.00,92.01
3219.00,92.04
3218.00,92.06
3217.00,92.08
3216.00,92.11
3215.00,92.13
3214.00,92.16
3213.00,92.19
3212.00,92.22
3211.00,92.26
3210.00,92.29
3209.00,92.32
3208.00,92.33
3207.00,92.34
3206.00,92.34
3205.00,92.35
3204.00,92.36
3203.00,92.38
3202.00,92.40
3201.00,92.43
3200.00,92.45
3199.00,92.47
3198.00,92.49
3197.00,92.51
3196.00,92.54
3195.00,92.58
3194.00,92.61
3193.00,92.62
3192.00,92.63
3191.00,92.65
3190.00,92.66
3189.00,92.68
3188.00,92.71
3187.00,92.74
3186.00,92.78
3185.00,92.80
3184.00,92.82
3183.00,92.83
3182.00,92.83
3181.00,92.85
3180.00,92.90
3179.00,92.97
3178.00,93.04
3177.00,93.09
3176.00,93.11
3175.00,93.13
3174.00,93.13
3173.00,93.15
3172.00,93.18
3171.00,93.21
3170.00,93.25
3169.00,93.29
3168.00,93.32
3167.00,93.35
3166.00,93.37
3165.00,93.40
3164.00,93.44
3163.00,93.48
3162.00,93.52
3161.00,93.54
3160.00,93.56
3159.00,93.58
3158.00,93.61
3157.00,93.64
3156.00,93.66
3155.00,93.67
3154.00,93.68
3153.00,93.71
3152.00,93.74
3151.00,93.77
3150.00,93.79
3149.00,93.80
3148.00,93.80
3147.00,93.81
3146.00,93.82
3145.00,93.83
3144.00,93.84
3143.00,93.86
3142.00,93.88
3141.00,93.91
3140.00,93.94
3139.00,93.96
3138.00,93.96
3137.00,93.96
3136.00,93.97
3135.00,93.97
3134.00,93.98
3133.00,93.97
3132.00,93.95
3131.00,93.93
3130.00,93.91
3129.00,93.91
3128.00,93.92
3127.00,93.95
3126.00,93.96
3125.00,93.97
3124.00,93.96
3123.00,93.95
3122.00,93.94
3121.00,93.94
3120.00,93.93
3119.00,93.91
3118.00,93.89
3117.00,93.89
3116.00,93.88
3115.00,93.87
3114.00,93.84
3113.00,93.80
3112.00,93.76
3111.00,93.73
3110.00,93.71
3109.00,93.70
3108.00,93.68
3107.00,93.66
3106.00,93.64
3105.00,93.62
3104.00,93.59
3103.00,93.56
3102.00,93.53
3101.00,93.49
3100.00,93.45
3099.00,93.42
3098.00,93.39
3097.00,93.36
3096.00,93.35
3095.00,93.33
3094.00,93.32
3093.00,93.30
3092.00,93.27
3091.00,93.25
3090.00,93.24
3089.00,93.22
3088.00,93.20
3087.00,93.18
3086.00,93.16
3085.00,93.15
3084.00,93.14
3083.00,93.12
3082.00,93.11
3081.00,93.11
3080.00,93.10
3079.00,93.09
3078.00,93.08
3077.00,93.05
3076.00,93.03
3075.00,93.02
3074.00,93.00
3073.00,92.99
3072.00,92.99
3071.00,92.99
3070.00,92.99
3069.00,92.99
3068.00,92.99
3067.00,92.98
3066.00,92.97
3065.00,92.97
3064.00,92.97
3063.00,92.98
3062.00,93.00
3061.00,93.02
3060.00,93.04
3059.00,93.07
3058.00,93.09
3057.00,93.12
3056.00,93.16
3055.00,93.19
3054.00,93.23
3053.00,93.27
3052.00,93.31
3051.00,93.35
3050.00,93.41
3049.00,93.46
3048.00,93.52
3047.00,93.58
3046.00,93.62
3045.00,93.66
3044.00,93.70
3043.00,93.75
3042.00,93.81
3041.00,93.87
3040.00,93.92
3039.00,93.96
3038.00,94.00
3037.00,94.03
3036.00,94.07
3035.00,94.10
3034.00,94.14
3033.00,94.18
3032.00,94.21
3031.00,94.24
3030.00,94.25
3029.00,94.25
3028.00,94.26
3027.00,94.27
3026.00,94.30
3025.00,94.33
3024.00,94.36
3023.00,94.39
3022.00,94.41
3021.00,94.44
3020.00,94.46
3019.00,94.49
3018.00,94.50
3017.00,94.50
3016.00,94.51
3015.00,94.52
3014.00,94.54
3013.00,94.56
3012.00,94.57
3011.00,94.59
3010.00,94.60
3009.00,94.62
3008.00,94.63
3007.00,94.64
3006.00,94.65
3005.00,94.66
3004.00,94.67
3003.00,94.67
3002.00,94.68
3001.00,94.69
3000.00,94.70
2999.00,94.72
2998.00,94.75
2997.00,94.77
2996.00,94.79
2995.00,94.79
2994.00,94.79
2993.00,94.79
2992.00,94.78
2991.00,94.78
2990.00,94.79
2989.00,94.79
2988.00,94.78
2987.00,94.77
2986.00,94.74
2985.00,94.71
2984.00,94.67
2983.00,94.62
2982.00,94.59
2981.00,94.56
2980.00,94.53
2979.00,94.49
2978.00,94.45
2977.00,94.40
2976.00,94.33
2975.00,94.26
2974.00,94.18
2973.00,94.11
2972.00,94.03
2971.00,93.95
2970.00,93.84
2969.00,93.72
2968.00,93.58
2967.00,93.45
2966.00,93.32
2965.00,93.20
2964.00,93.08
2963.00,92.95
2962.00,92.83
2961.00,92.70
2960.00,92.55
2959.00,92.38
2958.00,92.20
2957.00,92.00
2956.00,91.79
2955.00,91.57
2954.00,91.31
2953.00,91.03
2952.00,90.71
2951.00,90.36
2950.00,89.99
2949.00,89.61
2948.00,89.23
2947.00,88.86
2946.00,88.52
2945.00,88.21
2944.00,87.91
2943.00,87.64
2942.00,87.37
2941.00,87.09
2940.00,86.82
2939.00,86.54
2938.00,86.27
2937.00,86.01
2936.00,85.78
2935.00,85.59
2934.00,85.45
2933.00,85.37
2932.00,85.35
2931.00,85.38
2930.00,85.46
2929.00,85.58
2928.00,85.70
2927.00,85.84
2926.00,85.99
2925.00,86.15
2924.00,86.33
2923.00,86.51
2922.00,86.69
2921.00,86.86
2920.00,87.04
2919.00,87.23
2918.00,87.42
2917.00,87.59
2916.00,87.75
2915.00,87.90
2914.00,88.03
2913.00,88.17
2912.00,88.30
2911.00,88.42
2910.00,88.53
2909.00,88.64
2908.00,88.75
2907.00,88.86
2906.00,88.99
2905.00,89.12
2904.00,89.26
2903.00,89.41
2902.00,89.57
2901.00,89.74
2900.00,89.90
2899.00,90.04
2898.00,90.18
2897.00,90.31
2896.00,90.45
2895.00,90.57
2894.00,90.69
2893.00,90.78
2892.00,90.87
2891.00,90.94
2890.00,90.99
2889.00,91.02
2888.00,91.03
2887.00,91.02
2886.00,90.98
2885.00,90.92
2884.00,90.84
2883.00,90.74
2882.00,90.61
2881.00,90.46
2880.00,90.30
2879.00,90.13
2878.00,89.97
2877.00,89.81
2876.00,89.66
2875.00,89.52
2874.00,89.40
2873.00,89.30
2872.00,89.22
2871.00,89.15
2870.00,89.08
2869.00,89.00
2868.00,88.92
2867.00,88.82
2866.00,88.70
2865.00,88.56
2864.00,88.42
2863.00,88.28
2862.00,88.15
2861.00,88.06
2860.00,88.00
2859.00,87.98
2858.00,88.00
2857.00,88.06
2856.00,88.17
2855.00,88.32
2854.00,88.51
2853.00,88.73
2852.00,88.97
2851.00,89.23
2850.00,89.51
2849.00,89.78
2848.00,90.05
2847.00,90.31
2846.00,90.57
2845.00,90.81
2844.00,91.02
2843.00,91.20
2842.00,91.37
2841.00,91.53
2840.00,91.67
2839.00,91.80
2838.00,91.92
2837.00,92.01
2836.00,92.09
2835.00,92.15
2834.00,92.21
2833.00,92.28
2832.00,92.34
2831.00,92.40
2830.00,92.45
2829.00,92.49
2828.00,92.53
2827.00,92.57
2826.00,92.61
2825.00,92.64
2824.00,92.66
2823.00,92.68
2822.00,92.70
2821.00,92.74
2820.00,92.77
2819.00,92.81
2818.00,92.85
2817.00,92.89
2816.00,92.93
2815.00,92.96
2814.00,92.99
2813.00,93.01
2812.00,93.04
2811.00,93.07
2810.00,93.11
2809.00,93.15
2808.00,93.17
2807.00,93.18
2806.00,93.19
2805.00,93.21
2804.00,93.23
2803.00,93.26
2802.00,93.28
2801.00,93.29
2800.00,93.31
2799.00,93.33
2798.00,93.34
2797.00,93.35
2796.00,93.36
2795.00,93.37
2794.00,93.39
2793.00,93.41
2792.00,93.44
2791.00,93.46
2790.00,93.48
2789.00,93.50
2788.00,93.51
2787.00,93.52
2786.00,93.54
2785.00,93.53
2784.00,93.52
2783.00,93.51
2782.00,93.51
2781.00,93.52
2780.00,93.54
2779.00,93.56
2778.00,93.58
2777.00,93.60
2776.00,93.61
2775.00,93.61
2774.00,93.60
2773.00,93.59
2772.00,93.60
2771.00,93.62
2770.00,93.64
2769.00,93.66
2768.00,93.68
2767.00,93.70
2766.00,93.72
2765.00,93.73
2764.00,93.73
2763.00,93.74
2762.00,93.74
2761.00,93.74
2760.00,93.74
2759.00,93.74
2758.00,93.73
2757.00,93.72
2756.00,93.71
2755.00,93.72
2754.00,93.74
2753.00,93.76
2752.00,93.78
2751.00,93.78
2750.00,93.77
2749.00,93.75
2748.00,93.75
2747.00,93.75
2746.00,93.77
2745.00,93.79
2744.00,93.81
2743.00,93.82
2742.00,93.82
2741.00,93.83
2740.00,93.83
2739.00,93.83
2738.00,93.82
2737.00,93.82
2736.00,93.83
2735.00,93.84
2734.00,93.86
2733.00,93.88
2732.00,93.89
2731.00,93.90
2730.00,93.90
2729.00,93.90
2728.00,93.90
2727.00,93.90
2726.00,93.91
2725.00,93.92
2724.00,93.94
2723.00,93.96
2722.00,93.98
2721.00,93.99
2720.00,94.00
2719.00,94.00
2718.00,94.02
2717.00,94.03
2716.00,94.04
2715.00,94.05
2714.00,94.06
2713.00,94.06
2712.00,94.05
2711.00,94.05
2710.00,94.05
2709.00,94.07
2708.00,94.08
2707.00,94.10
2706.00,94.11
2705.00,94.11
2704.00,94.10
2703.00,94.10
2702.00,94.10
2701.00,94.11
2700.00,94.12
2699.00,94.12
2698.00,94.12
2697.00,94.11
2696.00,94.11
2695.00,94.11
2694.00,94.12
2693.00,94.12
2692.00,94.13
2691.00,94.13
2690.00,94.12
2689.00,94.11
2688.00,94.10
2687.00,94.10
2686.00,94.10
2685.00,94.11
2684.00,94.12
2683.00,94.12
2682.00,94.13
2681.00,94.13
2680.00,94.12
2679.00,94.12
2678.00,94.12
2677.00,94.12
2676.00,94.13
2675.00,94.14
2674.00,94.15
2673.00,94.16
2672.00,94.16
2671.00,94.16
2670.00,94.16
2669.00,94.17
2668.00,94.17
2667.00,94.17
2666.00,94.17
2665.00,94.16
2664.00,94.16
2663.00,94.15
2662.00,94.15
2661.00,94.14
2660.00,94.14
2659.00,94.14
2658.00,94.13
2657.00,94.12
2656.00,94.11
2655.00,94.10
2654.00,94.09
2653.00,94.09
2652.00,94.08
2651.00,94.08
2650.00,94.07
2649.00,94.06
2648.00,94.04
2647.00,94.03
2646.00,94.01
2645.00,94.00
2644.00,94.00
2643.00,94.00
2642.00,94.01
2641.00,94.01
2640.00,94.01
2639.00,94.01
2638.00,93.99
2637.00,93.96
2636.00,93.94
2635.00,93.91
2634.00,93.90
2633.00,93.89
2632.00,93.89
2631.00,93.89
2630.00,93.89
2629.00,93.88
2628.00,93.88
2627.00,93.88
2626.00,93.88
2625.00,93.88
2624.00,93.86
2623.00,93.85
2622.00,93.84
2621.00,93.84
2620.00,93.85
2619.00,93.85
2618.00,93.83
2617.00,93.81
2616.00,93.79
2615.00,93.79
2614.00,93.80
2613.00,93.80
2612.00,93.79
2611.00,93.77
2610.00,93.75
2609.00,93.73
2608.00,93.72
2607.00,93.71
2606.00,93.70
2605.00,93.69
2604.00,93.69
2603.00,93.70
2602.00,93.70
2601.00,93.70
2600.00,93.70
2599.00,93.69
2598.00,93.67
2597.00,93.64
2596.00,93.62
2595.00,93.62
2594.00,93.62
2593.00,93.62
2592.00,93.60
2591.00,93.59
2590.00,93.57
2589.00,93.57
2588.00,93.57
2587.00,93.56
2586.00,93.56
2585.00,93.56
2584.00,93.55
2583.00,93.54
2582.00,93.53
2581.00,93.52
2580.00,93.51
2579.00,93.51
2578.00,93.51
2577.00,93.53
2576.00,93.55
2575.00,93.57
2574.00,93.57
2573.00,93.58
2572.00,93.58
2571.00,93.58
2570.00,93.57
2569.00,93.54
2568.00,93.52
2567.00,93.50
2566.00,93.48
2565.00,93.47
2564.00,93.47
2563.00,93.50
2562.00,93.53
2561.00,93.56
2560.00,93.56
2559.00,93.57
2558.00,93.57
2557.00,93.57
2556.00,93.56
2555.00,93.56
2554.00,93.55
2553.00,93.56
2552.00,93.58
2551.00,93.59
2550.00,93.61
2549.00,93.61
2548.00,93.61
2547.00,93.60
2546.00,93.59
2545.00,93.57
2544.00,93.57
2543.00,93.57
2542.00,93.57
2541.00,93.58
2540.00,93.59
2539.00,93.60
2538.00,93.61
2537.00,93.61
2536.00,93.61
2535.00,93.59
2534.00,93.58
2533.00,93.56
2532.00,93.55
2531.00,93.54
2530.00,93.55
2529.00,93.56
2528.00,93.56
2527.00,93.55
2526.00,93.54
2525.00,93.54
2524.00,93.55
2523.00,93.57
2522.00,93.59
2521.00,93.61
2520.00,93.61
2519.00,93.61
2518.00,93.60
2517.00,93.60
2516.00,93.61
2515.00,93.62
2514.00,93.62
2513.00,93.62
2512.00,93.62
2511.00,93.62
2510.00,93.62
2509.00,93.62
2508.00,93.62
2507.00,93.62
2506.00,93.62
2505.00,93.62
2504.00,93.61
2503.00,93.60
2502.00,93.60
2501.00,93.60
2500.00,93.61
2499.00,93.61
2498.00,93.62
2497.00,93.62
2496.00,93.62
2495.00,93.61
2494.00,93.60
2493.00,93.60
2492.00,93.60
2491.00,93.62
2490.00,93.63
2489.00,93.64
2488.00,93.65
2487.00,93.64
2486.00,93.63
2485.00,93.63
2484.00,93.63
2483.00,93.63
2482.00,93.63
2481.00,93.63
2480.00,93.65
2479.00,93.66
2478.00,93.67
2477.00,93.66
2476.00,93.64
2475.00,93.62
2474.00,93.62
2473.00,93.63
2472.00,93.63
2471.00,93.64
2470.00,93.64
2469.00,93.64
2468.00,93.63
2467.00,93.63
2466.00,93.63
2465.00,93.63
2464.00,93.63
2463.00,93.62
2462.00,93.62
2461.00,93.61
2460.00,93.61
2459.00,93.59
2458.00,93.58
2457.00,93.57
2456.00,93.58
2455.00,93.62
2454.00,93.65
2453.00,93.66
2452.00,93.66
2451.00,93.66
2450.00,93.64
2449.00,93.64
2448.00,93.64
2447.00,93.66
2446.00,93.68
2445.00,93.70
2444.00,93.70
2443.00,93.70
2442.00,93.70
2441.00,93.71
2440.00,93.71
2439.00,93.71
2438.00,93.70
2437.00,93.69
2436.00,93.69
2435.00,93.70
2434.00,93.70
2433.00,93.70
2432.00,93.71
2431.00,93.72
2430.00,93.74
2429.00,93.76
2428.00,93.77
2427.00,93.78
2426.00,93.78
2425.00,93.77
2424.00,93.75
2423.00,93.73
2422.00,93.72
2421.00,93.72
2420.00,93.73
2419.00,93.76
2418.00,93.78
2417.00,93.81
2416.00,93.83
2415.00,93.84
2414.00,93.84
2413.00,93.83
2412.00,93.82
2411.00,93.81
2410.00,93.81
2409.00,93.80
2408.00,93.81
2407.00,93.82
2406.00,93.83
2405.00,93.84
2404.00,93.84
2403.00,93.85
2402.00,93.87
2401.00,93.89
2400.00,93.91
2399.00,93.92
2398.00,93.93
2397.00,93.94
2396.00,93.95
2395.00,93.95
2394.00,93.94
2393.00,93.92
2392.00,93.91
2391.00,93.93
2390.00,93.97
2389.00,94.00
2388.00,94.01
2387.00,94.02
2386.00,94.03
2385.00,94.04
2384.00,94.06
2383.00,94.09
2382.00,94.11
2381.00,94.14
2380.00,94.16
2379.00,94.18
2378.00,94.21
2377.00,94.23
2376.00,94.25
2375.00,94.26
2374.00,94.24
2373.00,94.22
2372.00,94.22
2371.00,94.25
2370.00,94.30
2369.00,94.37
2368.00,94.42
2367.00,94.44
2366.00,94.41
2365.00,94.38
2364.00,94.38
2363.00,94.41
2362.00,94.41
2361.00,94.38
2360.00,94.37
2359.00,94.38
2358.00,94.41
2357.00,94.43
2356.00,94.45
2355.00,94.45
2354.00,94.45
2353.00,94.44
2352.00,94.45
2351.00,94.48
2350.00,94.51
2349.00,94.51
2348.00,94.49
2347.00,94.47
2346.00,94.47
2345.00,94.51
2344.00,94.56
2343.00,94.61
2342.00,94.62
2341.00,94.58
2340.00,94.51
2339.00,94.45
2338.00,94.41
2337.00,94.41
2336.00,94.42
2335.00,94.42
2334.00,94.41
2333.00,94.39
2332.00,94.38
2331.00,94.37
2330.00,94.37
2329.00,94.37
2328.00,94.37
2327.00,94.34
2326.00,94.30
2325.00,94.26
2324.00,94.25
2323.00,94.27
2322.00,94.27
2321.00,94.24
2320.00,94.21
2319.00,94.19
2318.00,94.16
2317.00,94.14
2316.00,94.11
2315.00,94.08
2314.00,94.05
2313.00,94.03
2312.00,94.03
2311.00,94.04
2310.00,94.04
2309.00,94.02
2308.00,94.00
2307.00,93.97
2306.00,93.93
2305.00,93.90
2304.00,93.88
2303.00,93.88
2302.00,93.88
2301.00,93.88
2300.00,93.88
2299.00,93.84
2298.00,93.79
2297.00,93.72
2296.00,93.67
2295.00,93.66
2294.00,93.65
2293.00,93.63
2292.00,93.60
2291.00,93.56
2290.00,93.52
2289.00,93.48
2288.00,93.42
2287.00,93.36
2286.00,93.30
2285.00,93.27
2284.00,93.26
2283.00,93.26
2282.00,93.25
2281.00,93.24
2280.00,93.23
2279.00,93.23
2278.00,93.24
2277.00,93.24
2276.00,93.24
2275.00,93.22
2274.00,93.20
2273.00,93.17
2272.00,93.15
2271.00,93.13
2270.00,93.10
2269.00,93.08
2268.00,93.08
2267.00,93.09
2266.00,93.10
2265.00,93.10
2264.00,93.07
2263.00,93.03
2262.00,92.99
2261.00,92.96
2260.00,92.94
2259.00,92.93
2258.00,92.93
2257.00,92.93
2256.00,92.94
2255.00,92.94
2254.00,92.94
2253.00,92.93
2252.00,92.92
2251.00,92.91
2250.00,92.90
2249.00,92.89
2248.00,92.88
2247.00,92.86
2246.00,92.83
2245.00,92.80
2244.00,92.75
2243.00,92.71
2242.00,92.67
2241.00,92.66
2240.00,92.68
2239.00,92.72
2238.00,92.75
2237.00,92.75
2236.00,92.72
2235.00,92.65
2234.00,92.57
2233.00,92.52
2232.00,92.52
2231.00,92.54
2230.00,92.54
2229.00,92.51
2228.00,92.47
2227.00,92.45
2226.00,92.47
2225.00,92.52
2224.00,92.57
2223.00,92.59
2222.00,92.56
2221.00,92.51
2220.00,92.47
2219.00,92.44
2218.00,92.41
2217.00,92.38
2216.00,92.35
2215.00,92.35
2214.00,92.36
2213.00,92.37
2212.00,92.38
2211.00,92.36
2210.00,92.32
2209.00,92.28
2208.00,92.25
2207.00,92.24
2206.00,92.23
2205.00,92.21
2204.00,92.15
2203.00,92.07
2202.00,91.99
2201.00,91.94
2200.00,91.95
2199.00,92.00
2198.00,92.07
2197.00,92.14
2196.00,92.19
2195.00,92.21
2194.00,92.18
2193.00,92.10
2192.00,92.03
2191.00,91.98
2190.00,91.95
2189.00,91.94
2188.00,91.92
2187.00,91.91
2186.00,91.90
2185.00,91.88
2184.00,91.87
2183.00,91.84
2182.00,91.79
2181.00,91.74
2180.00,91.71
2179.00,91.70
2178.00,91.70
2177.00,91.73
2176.00,91.78
2175.00,91.83
2174.00,91.84
2173.00,91.80
2172.00,91.72
2171.00,91.65
2170.00,91.60
2169.00,91.57
2168.00,91.56
2167.00,91.53
2166.00,91.47
2165.00,91.38
2164.00,91.29
2163.00,91.21
2162.00,91.15
2161.00,91.16
2160.00,91.27
2159.00,91.46
2158.00,91.64
2157.00,91.75
2156.00,91.82
2155.00,91.90
2154.00,92.02
2153.00,92.12
2152.00,92.18
2151.00,92.21
2150.00,92.23
2149.00,92.25
2148.00,92.28
2147.00,92.30
2146.00,92.31
2145.00,92.32
2144.00,92.35
2143.00,92.40
2142.00,92.46
2141.00,92.50
2140.00,92.53
2139.00,92.57
2138.00,92.62
2137.00,92.69
2136.00,92.75
2135.00,92.80
2134.00,92.86
2133.00,92.93
2132.00,93.00
2131.00,93.04
2130.00,93.02
2129.00,92.99
2128.00,92.96
2127.00,92.97
2126.00,93.01
2125.00,93.05
2124.00,93.07
2123.00,93.06
2122.00,93.04
2121.00,93.04
2120.00,93.06
2119.00,93.10
2118.00,93.12
2117.00,93.11
2116.00,93.10
2115.00,93.10
2114.00,93.10
2113.00,93.10
2112.00,93.11
2111.00,93.12
2110.00,93.12
2109.00,93.12
2108.00,93.11
2107.00,93.13
2106.00,93.15
2105.00,93.17
2104.00,93.19
2103.00,93.19
2102.00,93.16
2101.00,93.09
2100.00,93.02
2099.00,92.97
2098.00,92.98
2097.00,93.02
2096.00,93.08
2095.00,93.13
2094.00,93.15
2093.00,93.16
2092.00,93.16
2091.00,93.16
2090.00,93.15
2089.00,93.11
2088.00,93.08
2087.00,93.05
2086.00,93.04
2085.00,93.04
2084.00,93.05
2083.00,93.06
2082.00,93.06
2081.00,93.04
2080.00,93.02
2079.00,93.00
2078.00,92.98
2077.00,92.97
2076.00,92.96
2075.00,92.95
2074.00,92.93
2073.00,92.92
2072.00,92.93
2071.00,92.94
2070.00,92.94
2069.00,92.93
2068.00,92.89
2067.00,92.86
2066.00,92.83
2065.00,92.80
2064.00,92.78
2063.00,92.78
2062.00,92.78
2061.00,92.76
2060.00,92.75
2059.00,92.74
2058.00,92.74
2057.00,92.74
2056.00,92.73
2055.00,92.70
2054.00,92.65
2053.00,92.57
2052.00,92.48
2051.00,92.40
2050.00,92.34
2049.00,92.30
2048.00,92.27
2047.00,92.27
2046.00,92.28
2045.00,92.30
2044.00,92.30
2043.00,92.27
2042.00,92.22
2041.00,92.17
2040.00,92.13
2039.00,92.09
2038.00,92.03
2037.00,91.96
2036.00,91.91
2035.00,91.91
2034.00,91.95
2033.00,92.01
2032.00,92.04
2031.00,92.04
2030.00,92.02
2029.00,92.00
2028.00,92.00
2027.00,92.03
2026.00,92.06
2025.00,92.07
2024.00,92.04
2023.00,91.99
2022.00,91.97
2021.00,92.01
2020.00,92.10
2019.00,92.19
2018.00,92.24
2017.00,92.24
2016.00,92.21
2015.00,92.16
2014.00,92.14
2013.00,92.15
2012.00,92.19
2011.00,92.25
2010.00,92.29
2009.00,92.33
2008.00,92.36
2007.00,92.40
2006.00,92.43
2005.00,92.45
2004.00,92.46
2003.00,92.48
2002.00,92.51
2001.00,92.54
2000.00,92.56
1999.00,92.56
1998.00,92.55
1997.00,92.55
1996.00,92.56
1995.00,92.59
1994.00,92.62
1993.00,92.64
1992.00,92.65
1991.00,92.62
1990.00,92.56
1989.00,92.50
1988.00,92.47
1987.00,92.48
1986.00,92.47
1985.00,92.42
1984.00,92.35
1983.00,92.28
1982.00,92.22
1981.00,92.17
1980.00,92.15
1979.00,92.16
1978.00,92.20
1977.00,92.25
1976.00,92.30
1975.00,92.33
1974.00,92.36
1973.00,92.40
1972.00,92.44
1971.00,92.47
1970.00,92.50
1969.00,92.50
1968.00,92.52
1967.00,92.57
1966.00,92.65
1965.00,92.72
1964.00,92.74
1963.00,92.74
1962.00,92.74
1961.00,92.76
1960.00,92.80
1959.00,92.84
1958.00,92.87
1957.00,92.89
1956.00,92.92
1955.00,92.96
1954.00,93.01
1953.00,93.06
1952.00,93.09
1951.00,93.11
1950.00,93.13
1949.00,93.17
1948.00,93.24
1947.00,93.31
1946.00,93.34
1945.00,93.35
1944.00,93.36
1943.00,93.39
1942.00,93.42
1941.00,93.45
1940.00,93.49
1939.00,93.53
1938.00,93.55
1937.00,93.56
1936.00,93.55
1935.00,93.55
1934.00,93.56
1933.00,93.58
1932.00,93.59
1931.00,93.60
1930.00,93.63
1929.00,93.66
1928.00,93.70
1927.00,93.72
1926.00,93.73
1925.00,93.73
1924.00,93.75
1923.00,93.80
1922.00,93.85
1921.00,93.89
1920.00,93.90
1919.00,93.88
1918.00,93.85
1917.00,93.84
1916.00,93.86
1915.00,93.91
1914.00,93.96
1913.00,93.98
1912.00,93.98
1911.00,93.97
1910.00,93.96
1909.00,93.96
1908.00,93.99
1907.00,94.03
1906.00,94.07
1905.00,94.10
1904.00,94.12
1903.00,94.11
1902.00,94.09
1901.00,94.08
1900.00,94.10
1899.00,94.13
1898.00,94.16
1897.00,94.18
1896.00,94.19
1895.00,94.21
1894.00,94.22
1893.00,94.22
1892.00,94.23
1891.00,94.24
1890.00,94.25
1889.00,94.28
1888.00,94.32
1887.00,94.36
1886.00,94.38
1885.00,94.36
1884.00,94.33
1883.00,94.32
1882.00,94.32
1881.00,94.33
1880.00,94.36
1879.00,94.37
1878.00,94.38
1877.00,94.37
1876.00,94.37
1875.00,94.39
1874.00,94.41
1873.00,94.43
1872.00,94.43
1871.00,94.44
1870.00,94.46
1869.00,94.48
1868.00,94.50
1867.00,94.52
1866.00,94.53
1865.00,94.54
1864.00,94.55
1863.00,94.56
1862.00,94.56
1861.00,94.56
1860.00,94.57
1859.00,94.60
1858.00,94.62
1857.00,94.64
1856.00,94.65
1855.00,94.65
1854.00,94.65
1853.00,94.66
1852.00,94.69
1851.00,94.70
1850.00,94.70
1849.00,94.69
1848.00,94.68
1847.00,94.69
1846.00,94.71
1845.00,94.72
1844.00,94.73
1843.00,94.75
1842.00,94.77
1841.00,94.80
1840.00,94.82
1839.00,94.84
1838.00,94.87
1837.00,94.89
1836.00,94.91
1835.00,94.92
1834.00,94.94
1833.00,94.94
1832.00,94.93
1831.00,94.93
1830.00,94.93
1829.00,94.94
1828.00,94.96
1827.00,94.97
1826.00,94.97
1825.00,94.97
1824.00,94.97
1823.00,94.99
1822.00,95.01
1821.00,95.04
1820.00,95.06
1819.00,95.09
1818.00,95.10
1817.00,95.11
1816.00,95.12
1815.00,95.14
1814.00,95.16
1813.00,95.17
1812.00,95.16
1811.00,95.15
1810.00,95.15
1809.00,95.17
1808.00,95.20
1807.00,95.22
1806.00,95.22
1805.00,95.21
1804.00,95.22
1803.00,95.23
1802.00,95.25
1801.00,95.26
1800.00,95.27
1799.00,95.28
1798.00,95.29
1797.00,95.29
1796.00,95.29
1795.00,95.30
1794.00,95.32
1793.00,95.34
1792.00,95.37
1791.00,95.39
1790.00,95.39
1789.00,95.38
1788.00,95.37
1787.00,95.37
1786.00,95.37
1785.00,95.39
1784.00,95.41
1783.00,95.44
1782.00,95.46
1781.00,95.48
1780.00,95.50
1779.00,95.51
1778.00,95.53
1777.00,95.54
1776.00,95.55
1775.00,95.56
1774.00,95.56
1773.00,95.55
1772.00,95.54
1771.00,95.56
1770.00,95.58
1769.00,95.59
1768.00,95.58
1767.00,95.58
1766.00,95.58
1765.00,95.59
1764.00,95.59
1763.00,95.59
1762.00,95.58
1761.00,95.57
1760.00,95.57
1759.00,95.56
1758.00,95.56
1757.00,95.54
1756.00,95.53
1755.00,95.53
1754.00,95.53
1753.00,95.53
1752.00,95.51
1751.00,95.48
1750.00,95.44
1749.00,95.39
1748.00,95.35
1747.00,95.32
1746.00,95.30
1745.00,95.27
1744.00,95.24
1743.00,95.21
1742.00,95.19
1741.00,95.17
1740.00,95.16
1739.00,95.16
1738.00,95.17
1737.00,95.19
1736.00,95.21
1735.00,95.23
1734.00,95.24
1733.00,95.25
1732.00,95.26
1731.00,95.26
1730.00,95.27
1729.00,95.29
1728.00,95.32
1727.00,95.35
1726.00,95.38
1725.00,95.40
1724.00,95.41
1723.00,95.44
1722.00,95.46
1721.00,95.49
1720.00,95.53
1719.00,95.57
1718.00,95.59
1717.00,95.58
1716.00,95.58
1715.00,95.60
1714.00,95.62
1713.00,95.63
1712.00,95.65
1711.00,95.68
1710.00,95.70
1709.00,95.72
1708.00,95.74
1707.00,95.75
1706.00,95.77
1705.00,95.79
1704.00,95.81
1703.00,95.85
1702.00,95.90
1701.00,95.95
1700.00,96.02
1699.00,96.09
1698.00,96.12
1697.00,96.12
1696.00,96.12
1695.00,96.13
1694.00,96.14
1693.00,96.13
1692.00,96.10
1691.00,96.07
1690.00,96.04
1689.00,96.01
1688.00,95.97
1687.00,95.92
1686.00,95.85
1685.00,95.71
1684.00,95.54
1683.00,95.39
1682.00,95.28
1681.00,95.12
1680.00,94.92
1679.00,94.72
1678.00,94.54
1677.00,94.35
1676.00,94.12
1675.00,93.86
1674.00,93.60
1673.00,93.35
1672.00,93.07
1671.00,92.73
1670.00,92.33
1669.00,91.86
1668.00,91.39
1667.00,90.96
1666.00,90.54
1665.00,90.09
1664.00,89.54
1663.00,88.91
1662.00,88.27
1661.00,87.67
1660.00,87.10
1659.00,86.54
1658.00,85.99
1657.00,85.49
1656.00,85.02
1655.00,84.48
1654.00,83.64
1653.00,82.44
1652.00,81.39
1651.00,80.73
1650.00,80.20
1649.00,79.59
1648.00,78.75
1647.00,77.70
1646.00,76.67
1645.00,75.81
1644.00,75.05
1643.00,74.29
1642.00,73.51
1641.00,72.69
1640.00,71.87
1639.00,71.12
1638.00,70.43
1637.00,69.72
1636.00,68.96
1635.00,68.35
1634.00,68.04
1633.00,67.97
1632.00,68.05
1631.00,68.28
1630.00,68.68
1629.00,69.22
1628.00,69.85
1627.00,70.50
1626.00,71.13
1625.00,71.78
1624.00,72.50
1623.00,73.26
1622.00,73.99
1621.00,74.64
1620.00,75.24
1619.00,75.86
1618.00,76.61
1617.00,77.48
1616.00,78.37
1615.00,79.12
1614.00,79.73
1613.00,80.27
1612.00,80.81
1611.00,81.34
1610.00,81.83
1609.00,82.27
1608.00,82.72
1607.00,83.15
1606.00,83.59
1605.00,84.02
1604.00,84.47
1603.00,84.93
1602.00,85.35
1601.00,85.73
1600.00,86.09
1599.00,86.42
1598.00,86.71
1597.00,86.98
1596.00,87.24
1595.00,87.48
1594.00,87.68
1593.00,87.84
1592.00,88.01
1591.00,88.17
1590.00,88.31
1589.00,88.42
1588.00,88.52
1587.00,88.59
1586.00,88.61
1585.00,88.61
1584.00,88.61
1583.00,88.59
1582.00,88.53
1581.00,88.46
1580.00,88.39
1579.00,88.31
1578.00,88.19
1577.00,87.99
1576.00,87.76
1575.00,87.53
1574.00,87.31
1573.00,87.10
1572.00,86.87
1571.00,86.58
1570.00,86.19
1569.00,85.77
1568.00,85.40
1567.00,85.08
1566.00,84.71
1565.00,84.31
1564.00,83.93
1563.00,83.62
1562.00,83.35
1561.00,83.05
1560.00,82.59
1559.00,81.93
1558.00,81.32
1557.00,80.92
1556.00,80.57
1555.00,80.15
1554.00,79.67
1553.00,79.18
1552.00,78.72
1551.00,78.22
1550.00,77.64
1549.00,77.03
1548.00,76.46
1547.00,75.91
1546.00,75.27
1545.00,74.54
1544.00,73.79
1543.00,73.07
1542.00,72.33
1541.00,71.39
1540.00,70.24
1539.00,69.12
1538.00,68.27
1537.00,67.64
1536.00,67.08
1535.00,66.49
1534.00,65.84
1533.00,65.28
1532.00,64.94
1531.00,64.81
1530.00,64.82
1529.00,64.95
1528.00,65.21
1527.00,65.60
1526.00,66.10
1525.00,66.66
1524.00,67.25
1523.00,67.90
1522.00,68.69
1521.00,69.55
1520.00,70.32
1519.00,70.99
1518.00,71.66
1517.00,72.39
1516.00,73.11
1515.00,73.74
1514.00,74.31
1513.00,74.86
1512.00,75.43
1511.00,75.97
1510.00,76.48
1509.00,76.98
1508.00,77.52
1507.00,78.19
1506.00,78.88
1505.00,79.45
1504.00,79.86
1503.00,80.19
1502.00,80.53
1501.00,80.90
1500.00,81.28
1499.00,81.66
1498.00,82.05
1497.00,82.43
1496.00,82.79
1495.00,83.10
1494.00,83.39
1493.00,83.64
1492.00,83.88
1491.00,84.12
1490.00,84.38
1489.00,84.60
1488.00,84.78
1487.00,84.91
1486.00,85.00
1485.00,85.01
1484.00,84.90
1483.00,84.68
1482.00,84.33
1481.00,83.84
1480.00,83.27
1479.00,82.66
1478.00,82.04
1477.00,81.44
1476.00,80.93
1475.00,80.62
1474.00,80.59
1473.00,80.84
1472.00,81.25
1471.00,81.58
1470.00,81.71
1469.00,81.61
1468.00,81.32
1467.00,80.89
1466.00,80.41
1465.00,80.04
1464.00,79.93
1463.00,80.05
1462.00,80.33
1461.00,80.67
1460.00,81.02
1459.00,81.38
1458.00,81.75
1457.00,82.11
1456.00,82.39
1455.00,82.59
1454.00,82.76
1453.00,82.93
1452.00,83.11
1451.00,83.27
1450.00,83.42
1449.00,83.56
1448.00,83.66
1447.00,83.73
1446.00,83.77
1445.00,83.79
1444.00,83.77
1443.00,83.73
1442.00,83.68
1441.00,83.64
1440.00,83.62
1439.00,83.61
1438.00,83.61
1437.00,83.64
1436.00,83.68
1435.00,83.74
1434.00,83.82
1433.00,83.92
1432.00,84.04
1431.00,84.18
1430.00,84.33
1429.00,84.46
1428.00,84.55
1427.00,84.58
1426.00,84.57
1425.00,84.51
1424.00,84.38
1423.00,84.21
1422.00,83.99
1421.00,83.66
1420.00,83.13
1419.00,82.44
1418.00,81.83
1417.00,81.49
1416.00,81.46
1415.00,81.71
1414.00,82.20
1413.00,82.82
1412.00,83.48
1411.00,84.10
1410.00,84.66
1409.00,85.13
1408.00,85.51
1407.00,85.82
1406.00,86.09
1405.00,86.32
1404.00,86.51
1403.00,86.65
1402.00,86.74
1401.00,86.81
1400.00,86.85
1399.00,86.86
1398.00,86.85
1397.00,86.81
1396.00,86.75
1395.00,86.65
1394.00,86.52
1393.00,86.40
1392.00,86.27
1391.00,86.13
1390.00,85.99
1389.00,85.85
1388.00,85.71
1387.00,85.60
1386.00,85.53
1385.00,85.49
1384.00,85.44
1383.00,85.36
1382.00,85.25
1381.00,85.10
1380.00,84.92
1379.00,84.70
1378.00,84.44
1377.00,84.16
1376.00,83.84
1375.00,83.47
1374.00,83.09
1373.00,82.78
1372.00,82.56
1371.00,82.44
1370.00,82.39
1369.00,82.42
1368.00,82.51
1367.00,82.63
1366.00,82.77
1365.00,82.93
1364.00,83.10
1363.00,83.27
1362.00,83.45
1361.00,83.62
1360.00,83.78
1359.00,83.94
1358.00,84.10
1357.00,84.25
1356.00,84.42
1355.00,84.59
1354.00,84.76
1353.00,84.93
1352.00,85.08
1351.00,85.23
1350.00,85.37
1349.00,85.51
1348.00,85.65
1347.00,85.79
1346.00,85.92
1345.00,86.04
1344.00,86.14
1343.00,86.23
1342.00,86.31
1341.00,86.38
1340.00,86.44
1339.00,86.50
1338.00,86.58
1337.00,86.65
1336.00,86.72
1335.00,86.78
1334.00,86.81
1333.00,86.84
1332.00,86.84
1331.00,86.84
1330.00,86.84
1329.00,86.85
1328.00,86.86
1327.00,86.89
1326.00,86.95
1325.00,87.02
1324.00,87.09
1323.00,87.16
1322.00,87.22
1321.00,87.27
1320.00,87.32
1319.00,87.37
1318.00,87.40
1317.00,87.41
1316.00,87.40
1315.00,87.37
1314.00,87.32
1313.00,87.26
1312.00,87.19
1311.00,87.12
1310.00,87.05
1309.00,86.98
1308.00,86.90
1307.00,86.82
1306.00,86.74
1305.00,86.68
1304.00,86.63
1303.00,86.60
1302.00,86.58
1301.00,86.59
1300.00,86.61
1299.00,86.64
1298.00,86.67
1297.00,86.67
1296.00,86.66
1295.00,86.62
1294.00,86.57
1293.00,86.51
1292.00,86.43
1291.00,86.34
1290.00,86.21
1289.00,86.03
1288.00,85.80
1287.00,85.51
1286.00,85.18
1285.00,84.80
1284.00,84.35
1283.00,83.85
1282.00,83.29
1281.00,82.66
1280.00,82.00
1279.00,81.32
1278.00,80.66
1277.00,80.07
1276.00,79.56
1275.00,79.16
1274.00,78.86
1273.00,78.66
1272.00,78.54
1271.00,78.50
1270.00,78.54
1269.00,78.64
1268.00,78.79
1267.00,78.98
1266.00,79.20
1265.00,79.44
1264.00,79.67
1263.00,79.90
1262.00,80.14
1261.00,80.38
1260.00,80.61
1259.00,80.82
1258.00,81.03
1257.00,81.23
1256.00,81.40
1255.00,81.56
1254.00,81.73
1253.00,81.88
1252.00,82.02
1251.00,82.15
1250.00,82.28
1249.00,82.39
1248.00,82.50
1247.00,82.59
1246.00,82.68
1245.00,82.78
1244.00,82.88
1243.00,82.98
1242.00,83.08
1241.00,83.18
1240.00,83.26
1239.00,83.34
1238.00,83.43
1237.00,83.52
1236.00,83.62
1235.00,83.72
1234.00,83.83
1233.00,83.94
1232.00,84.05
1231.00,84.15
1230.00,84.23
1229.00,84.28
1228.00,84.29
1227.00,84.27
1226.00,84.21
1225.00,84.16
1224.00,84.15
1223.00,84.23
1222.00,84.40
1221.00,84.64
1220.00,84.89
1219.00,85.11
1218.00,85.29
1217.00,85.43
1216.00,85.53
1215.00,85.60
1214.00,85.66
1213.00,85.70
1212.00,85.72
1211.00,85.69
1210.00,85.60
1209.00,85.43
1208.00,85.19
1207.00,84.87
1206.00,84.44
1205.00,83.89
1204.00,83.20
1203.00,82.38
1202.00,81.48
1201.00,80.53
1200.00,79.61
1199.00,78.83
1198.00,78.31
1197.00,78.12
1196.00,78.26
1195.00,78.69
1194.00,79.29
1193.00,79.97
1192.00,80.63
1191.00,81.24
1190.00,81.77
1189.00,82.21
1188.00,82.53
1187.00,82.75
1186.00,82.88
1185.00,82.91
1184.00,82.87
1183.00,82.77
1182.00,82.65
1181.00,82.54
1180.00,82.48
1179.00,82.50
1178.00,82.62
1177.00,82.83
1176.00,83.11
1175.00,83.44
1174.00,83.79
1173.00,84.14
1172.00,84.48
1171.00,84.79
1170.00,85.08
1169.00,85.34
1168.00,85.57
1167.00,85.78
1166.00,85.99
1165.00,86.18
1164.00,86.35
1163.00,86.48
1162.00,86.58
1161.00,86.65
1160.00,86.69
1159.00,86.70
1158.00,86.68
1157.00,86.65
1156.00,86.60
1155.00,86.52
1154.00,86.42
1153.00,86.30
1152.00,86.17
1151.00,86.03
1150.00,85.90
1149.00,85.80
1148.00,85.73
1147.00,85.69
1146.00,85.66
1145.00,85.65
1144.00,85.63
1143.00,85.59
1142.00,85.54
1141.00,85.49
1140.00,85.44
1139.00,85.45
1138.00,85.54
1137.00,85.72
1136.00,85.98
1135.00,86.29
1134.00,86.60
1133.00,86.88
1132.00,87.13
1131.00,87.34
1130.00,87.52
1129.00,87.67
1128.00,87.80
1127.00,87.91
1126.00,88.01
1125.00,88.11
1124.00,88.21
1123.00,88.29
1122.00,88.38
1121.00,88.47
1120.00,88.57
1119.00,88.66
1118.00,88.74
1117.00,88.80
1116.00,88.83
1115.00,88.85
1114.00,88.87
1113.00,88.89
1112.00,88.92
1111.00,88.94
1110.00,88.97
1109.00,89.02
1108.00,89.07
1107.00,89.13
1106.00,89.18
1105.00,89.20
1104.00,89.19
1103.00,89.18
1102.00,89.19
1101.00,89.21
1100.00,89.22
1099.00,89.23
1098.00,89.24
1097.00,89.25
1096.00,89.26
1095.00,89.25
1094.00,89.25
1093.00,89.27
1092.00,89.30
1091.00,89.33
1090.00,89.34
1089.00,89.35
1088.00,89.36
1087.00,89.38
1086.00,89.42
1085.00,89.48
1084.00,89.55
1083.00,89.63
1082.00,89.70
1081.00,89.76
1080.00,89.81
1079.00,89.84
1078.00,89.87
1077.00,89.90
1076.00,89.92
1075.00,89.92
1074.00,89.91
1073.00,89.90
1072.00,89.87
1071.00,89.83
1070.00,89.76
1069.00,89.65
1068.00,89.52
1067.00,89.42
1066.00,89.36
1065.00,89.32
1064.00,89.30
1063.00,89.30
1062.00,89.30
1061.00,89.33
1060.00,89.36
1059.00,89.39
1058.00,89.44
1057.00,89.52
1056.00,89.59
1055.00,89.65
1054.00,89.68
1053.00,89.68
1052.00,89.68
1051.00,89.67
1050.00,89.66
1049.00,89.67
1048.00,89.65
1047.00,89.61
1046.00,89.55
1045.00,89.48
1044.00,89.40
1043.00,89.31
1042.00,89.24
1041.00,89.22
1040.00,89.24
1039.00,89.28
1038.00,89.32
1037.00,89.35
1036.00,89.37
1035.00,89.41
1034.00,89.45
1033.00,89.51
1032.00,89.57
1031.00,89.64
1030.00,89.72
1029.00,89.79
1028.00,89.86
1027.00,89.92
1026.00,89.99
1025.00,90.06
1024.00,90.11
1023.00,90.14
1022.00,90.16
1021.00,90.17
1020.00,90.19
1019.00,90.21
1018.00,90.24
1017.00,90.28
1016.00,90.32
1015.00,90.34
1014.00,90.35
1013.00,90.35
1012.00,90.36
1011.00,90.38
1010.00,90.42
1009.00,90.48
1008.00,90.55
1007.00,90.60
1006.00,90.64
1005.00,90.67
1004.00,90.72
1003.00,90.77
1002.00,90.83
1001.00,90.88
1000.00,90.92
999.00,90.94
998.00,90.96
997.00,90.98
996.00,90.99
995.00,91.01
994.00,91.04
993.00,91.09
992.00,91.14
991.00,91.18
990.00,91.19
989.00,91.18
988.00,91.17
987.00,91.17
986.00,91.22
985.00,91.29
984.00,91.38
983.00,91.47
982.00,91.53
981.00,91.59
980.00,91.65
979.00,91.71
978.00,91.76
977.00,91.78
976.00,91.80
975.00,91.83
974.00,91.87
973.00,91.92
972.00,91.96
971.00,91.98
970.00,91.98
969.00,91.98
968.00,91.99
967.00,92.02
966.00,92.05
965.00,92.06
964.00,92.07
963.00,92.05
962.00,92.02
961.00,91.98
960.00,91.94
959.00,91.92
958.00,91.91
957.00,91.90
956.00,91.88
955.00,91.85
954.00,91.82
953.00,91.80
952.00,91.76
951.00,91.69
950.00,91.60
949.00,91.50
948.00,91.41
947.00,91.32
946.00,91.20
945.00,91.04
944.00,90.85
943.00,90.60
942.00,90.27
941.00,89.84
940.00,89.29
939.00,88.64
938.00,87.91
937.00,87.18
936.00,86.55
935.00,86.11
934.00,85.96
933.00,86.09
932.00,86.43
931.00,86.88
930.00,87.36
929.00,87.82
928.00,88.24
927.00,88.61
926.00,88.94
925.00,89.21
924.00,89.44
923.00,89.66
922.00,89.86
921.00,90.04
920.00,90.20
919.00,90.33
918.00,90.43
917.00,90.54
916.00,90.65
915.00,90.76
914.00,90.84
913.00,90.89
912.00,90.90
911.00,90.87
910.00,90.79
909.00,90.68
908.00,90.56
907.00,90.46
906.00,90.43
905.00,90.48
904.00,90.59
903.00,90.74
902.00,90.91
901.00,91.08
900.00,91.25
899.00,91.40
898.00,91.53
897.00,91.62
896.00,91.70
895.00,91.76
894.00,91.81
893.00,91.85
892.00,91.89
891.00,91.95
890.00,92.01
889.00,92.05
888.00,92.07
887.00,92.09
886.00,92.11
885.00,92.15
884.00,92.18
883.00,92.20
882.00,92.20
881.00,92.20
880.00,92.20
879.00,92.22
878.00,92.25
877.00,92.28
876.00,92.30
875.00,92.31
874.00,92.34
873.00,92.39
872.00,92.44
871.00,92.48
870.00,92.49
869.00,92.49
868.00,92.49
867.00,92.50
866.00,92.51
865.00,92.50
864.00,92.48
863.00,92.44
862.00,92.42
861.00,92.43
860.00,92.46
859.00,92.49
858.00,92.50
857.00,92.49
856.00,92.47
855.00,92.46
854.00,92.46
853.00,92.47
852.00,92.47
851.00,92.45
850.00,92.42
849.00,92.39
848.00,92.35
847.00,92.32
846.00,92.31
845.00,92.33
844.00,92.36
843.00,92.38
842.00,92.36
841.00,92.32
840.00,92.29
839.00,92.29
838.00,92.30
837.00,92.30
836.00,92.28
835.00,92.26
834.00,92.27
833.00,92.29
832.00,92.31
831.00,92.32
830.00,92.30
829.00,92.27
828.00,92.24
827.00,92.22
826.00,92.21
825.00,92.20
824.00,92.19
823.00,92.18
822.00,92.17
821.00,92.15
820.00,92.09
819.00,92.01
818.00,91.92
817.00,91.86
816.00,91.84
815.00,91.85
814.00,91.88
813.00,91.90
812.00,91.89
811.00,91.87
810.00,91.84
809.00,91.81
808.00,91.79
807.00,91.76
806.00,91.72
805.00,91.67
804.00,91.58
803.00,91.46
802.00,91.35
801.00,91.28
800.00,91.23
799.00,91.19
798.00,91.14
797.00,91.08
796.00,91.02
795.00,90.98
794.00,90.96
793.00,90.95
792.00,90.93
791.00,90.91
790.00,90.89
789.00,90.85
788.00,90.77
787.00,90.69
786.00,90.63
785.00,90.63
784.00,90.65
783.00,90.67
782.00,90.65
781.00,90.60
780.00,90.52
779.00,90.43
778.00,90.35
777.00,90.27
776.00,90.20
775.00,90.14
774.00,90.09
773.00,90.03
772.00,89.95
771.00,89.86
770.00,89.77
769.00,89.69
768.00,89.63
767.00,89.58
766.00,89.52
765.00,89.45
764.00,89.36
763.00,89.28
762.00,89.22
761.00,89.17
760.00,89.10
759.00,89.01
758.00,88.89
757.00,88.77
756.00,88.67
755.00,88.60
754.00,88.54
753.00,88.47
752.00,88.38
751.00,88.31
750.00,88.26
749.00,88.22
748.00,88.18
747.00,88.13
746.00,88.08
745.00,88.02
744.00,87.94
743.00,87.81
742.00,87.64
741.00,87.41
740.00,87.11
739.00,86.75
738.00,86.35
737.00,85.90
736.00,85.43
735.00,84.96
734.00,84.54
733.00,84.14
732.00,83.75
731.00,83.35
730.00,83.01
729.00,82.77
728.00,82.65
727.00,82.61
726.00,82.60
725.00,82.61
724.00,82.62
723.00,82.65
722.00,82.69
721.00,82.73
720.00,82.74
719.00,82.71
718.00,82.65
717.00,82.58
716.00,82.50
715.00,82.43
714.00,82.35
713.00,82.26
712.00,82.15
711.00,82.03
710.00,81.91
709.00,81.82
708.00,81.76
707.00,81.69
706.00,81.59
705.00,81.42
704.00,81.20
703.00,80.97
702.00,80.73
701.00,80.48
700.00,80.21
699.00,79.91
698.00,79.58
697.00,79.22
696.00,78.84
695.00,78.47
694.00,78.10
693.00,77.75
692.00,77.43
691.00,77.16
690.00,76.93
689.00,76.71
688.00,76.51
687.00,76.35
686.00,76.25
685.00,76.21
684.00,76.18
683.00,76.17
682.00,76.19
681.00,76.24
680.00,76.29
679.00,76.35
678.00,76.41
677.00,76.51
676.00,76.66
675.00,76.83
674.00,77.01
673.00,77.17
672.00,77.33
671.00,77.50
670.00,77.66
669.00,77.86
668.00,78.12
667.00,78.34
666.00,78.48
665.00,78.62
664.00,78.78
663.00,78.95
662.00,79.16
661.00,79.38
660.00,79.60
659.00,79.80
658.00,79.99
657.00,80.16
656.00,80.34
655.00,80.54
654.00,80.72
653.00,80.85
652.00,80.89
651.00,80.90
650.00,80.95
649.00,81.07
648.00,81.22
647.00,81.36
646.00,81.47
645.00,81.59
644.00,81.77
643.00,82.01
642.00,82.24
641.00,82.40
640.00,82.49
639.00,82.52
638.00,82.55
637.00,82.59
636.00,82.62
635.00,82.61
634.00,82.54
633.00,82.46
632.00,82.43
631.00,82.45
630.00,82.49
629.00,82.54
628.00,82.66
627.00,82.87
626.00,83.08
625.00,83.15
624.00,83.07
623.00,82.96
622.00,82.93
621.00,82.98
620.00,83.02
619.00,82.99
618.00,82.91
617.00,82.86
616.00,82.91
615.00,83.08
614.00,83.25
613.00,83.30
612.00,83.22
611.00,83.08
610.00,82.99
609.00,82.95
608.00,82.91
607.00,82.85
606.00,82.74
605.00,82.53
604.00,82.14
603.00,81.55
602.00,80.90
601.00,80.47
600.00,80.49
599.00,80.89
598.00,81.26
597.00,81.17
596.00,80.62
595.00,79.96
594.00,79.53
593.00,79.42
592.00,79.54
591.00,79.74
590.00,79.76
589.00,79.39
588.00,78.79
587.00,78.31
586.00,78.10
585.00,77.85
584.00,77.26
583.00,76.44
582.00,75.66
581.00,74.88
580.00,74.05
579.00,73.45
578.00,73.34
577.00,73.48
576.00,73.48
575.00,73.43
574.00,73.68
573.00,74.28
572.00,74.95
571.00,75.41
570.00,75.50
569.00,75.27
568.00,75.07
567.00,75.36
566.00,76.13
565.00,76.83
564.00,77.10
563.00,77.17
562.00,77.35
561.00,77.58
560.00,77.59
559.00,77.35
558.00,77.09
557.00,77.02
556.00,77.27
555.00,77.99
554.00,79.02
553.00,79.83
552.00,79.98
551.00,79.53
550.00,78.94
