Created as New Dataset,87. BASF
cm-1,%T
4000.00,101.47
3999.00,101.48
3998.00,101.49
3997.00,101.50
3996.00,101.51
3995.00,101.52
3994.00,101.52
3993.00,101.53
3992.00,101.53
3991.00,101.54
3990.00,101.54
3989.00,101.53
3988.00,101.51
3987.00,101.51
3986.00,101.51
3985.00,101.51
3984.00,101.52
3983.00,101.51
3982.00,101.51
3981.00,101.50
3980.00,101.49
3979.00,101.48
3978.00,101.48
3977.00,101.48
3976.00,101.50
3975.00,101.52
3974.00,101.52
3973.00,101.51
3972.00,101.51
3971.00,101.51
3970.00,101.52
3969.00,101.53
3968.00,101.54
3967.00,101.54
3966.00,101.55
3965.00,101.55
3964.00,101.54
3963.00,101.53
3962.00,101.52
3961.00,101.52
3960.00,101.53
3959.00,101.54
3958.00,101.54
3957.00,101.53
3956.00,101.51
3955.00,101.49
3954.00,101.49
3953.00,101.50
3952.00,101.52
3951.00,101.54
3950.00,101.56
3949.00,101.56
3948.00,101.56
3947.00,101.55
3946.00,101.55
3945.00,101.55
3944.00,101.55
3943.00,101.55
3942.00,101.56
3941.00,101.58
3940.00,101.60
3939.00,101.61
3938.00,101.61
3937.00,101.60
3936.00,101.58
3935.00,101.55
3934.00,101.53
3933.00,101.51
3932.00,101.51
3931.00,101.51
3930.00,101.53
3929.00,101.56
3928.00,101.57
3927.00,101.57
3926.00,101.57
3925.00,101.57
3924.00,101.56
3923.00,101.55
3922.00,101.53
3921.00,101.52
3920.00,101.51
3919.00,101.51
3918.00,101.50
3917.00,101.50
3916.00,101.50
3915.00,101.51
3914.00,101.52
3913.00,101.52
3912.00,101.51
3911.00,101.50
3910.00,101.48
3909.00,101.49
3908.00,101.51
3907.00,101.54
3906.00,101.57
3905.00,101.59
3904.00,101.60
3903.00,101.60
3902.00,101.61
3901.00,101.62
3900.00,101.62
3899.00,101.62
3898.00,101.62
3897.00,101.61
3896.00,101.61
3895.00,101.61
3894.00,101.59
3893.00,101.57
3892.00,101.53
3891.00,101.51
3890.00,101.52
3889.00,101.55
3888.00,101.60
3887.00,101.64
3886.00,101.64
3885.00,101.61
3884.00,101.57
3883.00,101.55
3882.00,101.55
3881.00,101.57
3880.00,101.58
3879.00,101.57
3878.00,101.56
3877.00,101.57
3876.00,101.58
3875.00,101.58
3874.00,101.57
3873.00,101.55
3872.00,101.55
3871.00,101.56
3870.00,101.58
3869.00,101.59
3868.00,101.60
3867.00,101.60
3866.00,101.61
3865.00,101.62
3864.00,101.61
3863.00,101.59
3862.00,101.58
3861.00,101.57
3860.00,101.56
3859.00,101.55
3858.00,101.55
3857.00,101.56
3856.00,101.59
3855.00,101.61
3854.00,101.61
3853.00,101.62
3852.00,101.64
3851.00,101.66
3850.00,101.67
3849.00,101.67
3848.00,101.64
3847.00,101.60
3846.00,101.56
3845.00,101.54
3844.00,101.54
3843.00,101.54
3842.00,101.55
3841.00,101.55
3840.00,101.55
3839.00,101.54
3838.00,101.53
3837.00,101.53
3836.00,101.53
3835.00,101.53
3834.00,101.52
3833.00,101.52
3832.00,101.51
3831.00,101.51
3830.00,101.51
3829.00,101.51
3828.00,101.50
3827.00,101.49
3826.00,101.47
3825.00,101.46
3824.00,101.47
3823.00,101.49
3822.00,101.50
3821.00,101.50
3820.00,101.48
3819.00,101.47
3818.00,101.47
3817.00,101.49
3816.00,101.50
3815.00,101.49
3814.00,101.46
3813.00,101.44
3812.00,101.43
3811.00,101.43
3810.00,101.43
3809.00,101.44
3808.00,101.45
3807.00,101.47
3806.00,101.49
3805.00,101.50
3804.00,101.50
3803.00,101.47
3802.00,101.43
3801.00,101.40
3800.00,101.39
3799.00,101.40
3798.00,101.42
3797.00,101.45
3796.00,101.47
3795.00,101.46
3794.00,101.45
3793.00,101.43
3792.00,101.43
3791.00,101.43
3790.00,101.42
3789.00,101.41
3788.00,101.40
3787.00,101.39
3786.00,101.39
3785.00,101.40
3784.00,101.39
3783.00,101.38
3782.00,101.36
3781.00,101.34
3780.00,101.34
3779.00,101.33
3778.00,101.33
3777.00,101.33
3776.00,101.33
3775.00,101.33
3774.00,101.33
3773.00,101.32
3772.00,101.32
3771.00,101.33
3770.00,101.34
3769.00,101.36
3768.00,101.38
3767.00,101.39
3766.00,101.39
3765.00,101.38
3764.00,101.37
3763.00,101.36
3762.00,101.38
3761.00,101.41
3760.00,101.45
3759.00,101.47
3758.00,101.46
3757.00,101.44
3756.00,101.41
3755.00,101.39
3754.00,101.37
3753.00,101.37
3752.00,101.38
3751.00,101.41
3750.00,101.44
3749.00,101.46
3748.00,101.48
3747.00,101.48
3746.00,101.49
3745.00,101.48
3744.00,101.47
3743.00,101.45
3742.00,101.44
3741.00,101.44
3740.00,101.46
3739.00,101.46
3738.00,101.46
3737.00,101.46
3736.00,101.46
3735.00,101.47
3734.00,101.46
3733.00,101.44
3732.00,101.41
3731.00,101.38
3730.00,101.35
3729.00,101.34
3728.00,101.35
3727.00,101.35
3726.00,101.35
3725.00,101.34
3724.00,101.35
3723.00,101.37
3722.00,101.38
3721.00,101.37
3720.00,101.35
3719.00,101.33
3718.00,101.31
3717.00,101.30
3716.00,101.29
3715.00,101.29
3714.00,101.29
3713.00,101.30
3712.00,101.31
3711.00,101.32
3710.00,101.32
3709.00,101.32
3708.00,101.31
3707.00,101.31
3706.00,101.30
3705.00,101.31
3704.00,101.32
3703.00,101.33
3702.00,101.32
3701.00,101.28
3700.00,101.23
3699.00,101.20
3698.00,101.18
3697.00,101.18
3696.00,101.18
3695.00,101.19
3694.00,101.21
3693.00,101.24
3692.00,101.28
3691.00,101.31
3690.00,101.31
3689.00,101.28
3688.00,101.25
3687.00,101.24
3686.00,101.24
3685.00,101.24
3684.00,101.25
3683.00,101.23
3682.00,101.21
3681.00,101.20
3680.00,101.20
3679.00,101.23
3678.00,101.27
3677.00,101.30
3676.00,101.30
3675.00,101.29
3674.00,101.30
3673.00,101.33
3672.00,101.38
3671.00,101.40
3670.00,101.36
3669.00,101.28
3668.00,101.21
3667.00,101.20
3666.00,101.22
3665.00,101.24
3664.00,101.22
3663.00,101.18
3662.00,101.13
3661.00,101.10
3660.00,101.08
3659.00,101.08
3658.00,101.10
3657.00,101.11
3656.00,101.11
3655.00,101.11
3654.00,101.10
3653.00,101.11
3652.00,101.12
3651.00,101.15
3650.00,101.18
3649.00,101.21
3648.00,101.23
3647.00,101.24
3646.00,101.24
3645.00,101.22
3644.00,101.19
3643.00,101.15
3642.00,101.13
3641.00,101.12
3640.00,101.11
3639.00,101.10
3638.00,101.09
3637.00,101.08
3636.00,101.08
3635.00,101.10
3634.00,101.11
3633.00,101.12
3632.00,101.14
3631.00,101.17
3630.00,101.20
3629.00,101.20
3628.00,101.19
3627.00,101.17
3626.00,101.16
3625.00,101.15
3624.00,101.14
3623.00,101.12
3622.00,101.10
3621.00,101.09
3620.00,101.08
3619.00,101.07
3618.00,101.07
3617.00,101.07
3616.00,101.06
3615.00,101.06
3614.00,101.06
3613.00,101.07
3612.00,101.09
3611.00,101.11
3610.00,101.13
3609.00,101.13
3608.00,101.11
3607.00,101.08
3606.00,101.06
3605.00,101.05
3604.00,101.02
3603.00,100.99
3602.00,100.95
3601.00,100.91
3600.00,100.90
3599.00,100.90
3598.00,100.91
3597.00,100.93
3596.00,100.94
3595.00,100.94
3594.00,100.94
3593.00,100.94
3592.00,100.95
3591.00,100.96
3590.00,100.97
3589.00,100.97
3588.00,100.97
3587.00,100.96
3586.00,100.94
3585.00,100.92
3584.00,100.91
3583.00,100.90
3582.00,100.89
3581.00,100.88
3580.00,100.88
3579.00,100.89
3578.00,100.88
3577.00,100.87
3576.00,100.87
3575.00,100.87
3574.00,100.87
3573.00,100.86
3572.00,100.85
3571.00,100.83
3570.00,100.82
3569.00,100.83
3568.00,100.87
3567.00,100.91
3566.00,100.95
3565.00,100.98
3564.00,100.99
3563.00,100.99
3562.00,100.96
3561.00,100.93
3560.00,100.89
3559.00,100.86
3558.00,100.84
3557.00,100.82
3556.00,100.80
3555.00,100.78
3554.00,100.76
3553.00,100.74
3552.00,100.71
3551.00,100.69
3550.00,100.66
3549.00,100.65
3548.00,100.65
3547.00,100.68
3546.00,100.72
3545.00,100.76
3544.00,100.79
3543.00,100.79
3542.00,100.75
3541.00,100.70
3540.00,100.65
3539.00,100.62
3538.00,100.60
3537.00,100.59
3536.00,100.59
3535.00,100.58
3534.00,100.58
3533.00,100.58
3532.00,100.59
3531.00,100.60
3530.00,100.61
3529.00,100.61
3528.00,100.60
3527.00,100.60
3526.00,100.60
3525.00,100.61
3524.00,100.61
3523.00,100.60
3522.00,100.58
3521.00,100.56
3520.00,100.54
3519.00,100.53
3518.00,100.52
3517.00,100.51
3516.00,100.50
3515.00,100.49
3514.00,100.48
3513.00,100.49
3512.00,100.50
3511.00,100.51
3510.00,100.52
3509.00,100.52
3508.00,100.52
3507.00,100.51
3506.00,100.51
3505.00,100.50
3504.00,100.47
3503.00,100.45
3502.00,100.42
3501.00,100.42
3500.00,100.43
3499.00,100.45
3498.00,100.45
3497.00,100.44
3496.00,100.42
3495.00,100.40
3494.00,100.40
3493.00,100.42
3492.00,100.44
3491.00,100.46
3490.00,100.45
3489.00,100.42
3488.00,100.40
3487.00,100.38
3486.00,100.37
3485.00,100.35
3484.00,100.33
3483.00,100.31
3482.00,100.31
3481.00,100.31
3480.00,100.33
3479.00,100.34
3478.00,100.35
3477.00,100.34
3476.00,100.32
3475.00,100.30
3474.00,100.29
3473.00,100.30
3472.00,100.31
3471.00,100.30
3470.00,100.29
3469.00,100.27
3468.00,100.25
3467.00,100.25
3466.00,100.26
3465.00,100.28
3464.00,100.30
3463.00,100.30
3462.00,100.29
3461.00,100.27
3460.00,100.25
3459.00,100.25
3458.00,100.25
3457.00,100.26
3456.00,100.25
3455.00,100.23
3454.00,100.23
3453.00,100.25
3452.00,100.28
3451.00,100.31
3450.00,100.32
3449.00,100.30
3448.00,100.26
3447.00,100.22
3446.00,100.20
3445.00,100.19
3444.00,100.20
3443.00,100.20
3442.00,100.20
3441.00,100.19
3440.00,100.18
3439.00,100.17
3438.00,100.16
3437.00,100.16
3436.00,100.16
3435.00,100.17
3434.00,100.18
3433.00,100.18
3432.00,100.18
3431.00,100.15
3430.00,100.13
3429.00,100.11
3428.00,100.10
3427.00,100.12
3426.00,100.14
3425.00,100.16
3424.00,100.18
3423.00,100.17
3422.00,100.15
3421.00,100.14
3420.00,100.13
3419.00,100.12
3418.00,100.10
3417.00,100.09
3416.00,100.08
3415.00,100.07
3414.00,100.08
3413.00,100.09
3412.00,100.11
3411.00,100.11
3410.00,100.12
3409.00,100.12
3408.00,100.10
3407.00,100.09
3406.00,100.07
3405.00,100.05
3404.00,100.06
3403.00,100.07
3402.00,100.07
3401.00,100.06
3400.00,100.04
3399.00,100.03
3398.00,100.02
3397.00,100.02
3396.00,100.02
3395.00,100.01
3394.00,100.01
3393.00,100.01
3392.00,100.03
3391.00,100.03
3390.00,100.02
3389.00,99.98
3388.00,99.94
3387.00,99.92
3386.00,99.91
3385.00,99.92
3384.00,99.92
3383.00,99.90
3382.00,99.87
3381.00,99.84
3380.00,99.81
3379.00,99.79
3378.00,99.78
3377.00,99.78
3376.00,99.77
3375.00,99.77
3374.00,99.75
3373.00,99.74
3372.00,99.73
3371.00,99.72
3370.00,99.71
3369.00,99.68
3368.00,99.65
3367.00,99.61
3366.00,99.56
3365.00,99.53
3364.00,99.50
3363.00,99.48
3362.00,99.46
3361.00,99.44
3360.00,99.41
3359.00,99.38
3358.00,99.33
3357.00,99.28
3356.00,99.23
3355.00,99.19
3354.00,99.15
3353.00,99.12
3352.00,99.08
3351.00,99.04
3350.00,98.98
3349.00,98.92
3348.00,98.84
3347.00,98.76
3346.00,98.68
3345.00,98.61
3344.00,98.55
3343.00,98.49
3342.00,98.43
3341.00,98.36
3340.00,98.28
3339.00,98.20
3338.00,98.12
3337.00,98.05
3336.00,97.97
3335.00,97.87
3334.00,97.77
3333.00,97.66
3332.00,97.56
3331.00,97.47
3330.00,97.36
3329.00,97.22
3328.00,97.06
3327.00,96.88
3326.00,96.71
3325.00,96.55
3324.00,96.41
3323.00,96.27
3322.00,96.13
3321.00,95.98
3320.00,95.81
3319.00,95.64
3318.00,95.46
3317.00,95.29
3316.00,95.13
3315.00,94.97
3314.00,94.81
3313.00,94.65
3312.00,94.47
3311.00,94.27
3310.00,94.06
3309.00,93.83
3308.00,93.60
3307.00,93.37
3306.00,93.15
3305.00,92.94
3304.00,92.74
3303.00,92.54
3302.00,92.37
3301.00,92.23
3300.00,92.13
3299.00,92.05
3298.00,92.00
3297.00,91.96
3296.00,91.94
3295.00,91.95
3294.00,92.00
3293.00,92.08
3292.00,92.19
3291.00,92.31
3290.00,92.44
3289.00,92.58
3288.00,92.73
3287.00,92.90
3286.00,93.08
3285.00,93.25
3284.00,93.41
3283.00,93.55
3282.00,93.68
3281.00,93.81
3280.00,93.95
3279.00,94.09
3278.00,94.23
3277.00,94.36
3276.00,94.49
3275.00,94.61
3274.00,94.73
3273.00,94.84
3272.00,94.95
3271.00,95.05
3270.00,95.15
3269.00,95.25
3268.00,95.33
3267.00,95.42
3266.00,95.52
3265.00,95.63
3264.00,95.74
3263.00,95.86
3262.00,95.97
3261.00,96.07
3260.00,96.18
3259.00,96.28
3258.00,96.36
3257.00,96.44
3256.00,96.51
3255.00,96.58
3254.00,96.66
3253.00,96.75
3252.00,96.85
3251.00,96.94
3250.00,97.03
3249.00,97.11
3248.00,97.20
3247.00,97.28
3246.00,97.37
3245.00,97.46
3244.00,97.54
3243.00,97.60
3242.00,97.65
3241.00,97.69
3240.00,97.75
3239.00,97.81
3238.00,97.88
3237.00,97.95
3236.00,98.01
3235.00,98.05
3234.00,98.09
3233.00,98.12
3232.00,98.16
3231.00,98.22
3230.00,98.29
3229.00,98.35
3228.00,98.39
3227.00,98.41
3226.00,98.43
3225.00,98.44
3224.00,98.47
3223.00,98.50
3222.00,98.54
3221.00,98.56
3220.00,98.58
3219.00,98.60
3218.00,98.61
3217.00,98.63
3216.00,98.64
3215.00,98.65
3214.00,98.66
3213.00,98.67
3212.00,98.69
3211.00,98.71
3210.00,98.73
3209.00,98.75
3208.00,98.79
3207.00,98.82
3206.00,98.85
3205.00,98.87
3204.00,98.88
3203.00,98.87
3202.00,98.87
3201.00,98.87
3200.00,98.87
3199.00,98.89
3198.00,98.91
3197.00,98.93
3196.00,98.95
3195.00,98.97
3194.00,98.98
3193.00,99.00
3192.00,99.03
3191.00,99.05
3190.00,99.07
3189.00,99.08
3188.00,99.08
3187.00,99.09
3186.00,99.11
3185.00,99.14
3184.00,99.17
3183.00,99.20
3182.00,99.22
3181.00,99.24
3180.00,99.26
3179.00,99.29
3178.00,99.31
3177.00,99.33
3176.00,99.35
3175.00,99.37
3174.00,99.40
3173.00,99.43
3172.00,99.47
3171.00,99.50
3170.00,99.53
3169.00,99.55
3168.00,99.58
3167.00,99.63
3166.00,99.67
3165.00,99.71
3164.00,99.75
3163.00,99.77
3162.00,99.78
3161.00,99.78
3160.00,99.78
3159.00,99.78
3158.00,99.78
3157.00,99.78
3156.00,99.79
3155.00,99.81
3154.00,99.83
3153.00,99.85
3152.00,99.85
3151.00,99.84
3150.00,99.85
3149.00,99.86
3148.00,99.89
3147.00,99.93
3146.00,99.96
3145.00,99.98
3144.00,99.98
3143.00,99.97
3142.00,99.95
3141.00,99.95
3140.00,99.95
3139.00,99.95
3138.00,99.96
3137.00,99.96
3136.00,99.97
3135.00,99.97
3134.00,99.96
3133.00,99.95
3132.00,99.93
3131.00,99.92
3130.00,99.92
3129.00,99.92
3128.00,99.91
3127.00,99.89
3126.00,99.88
3125.00,99.86
3124.00,99.86
3123.00,99.86
3122.00,99.88
3121.00,99.89
3120.00,99.88
3119.00,99.86
3118.00,99.85
3117.00,99.83
3116.00,99.82
3115.00,99.80
3114.00,99.77
3113.00,99.74
3112.00,99.71
3111.00,99.68
3110.00,99.66
3109.00,99.65
3108.00,99.64
3107.00,99.65
3106.00,99.64
3105.00,99.62
3104.00,99.59
3103.00,99.54
3102.00,99.49
3101.00,99.45
3100.00,99.42
3099.00,99.40
3098.00,99.39
3097.00,99.37
3096.00,99.33
3095.00,99.29
3094.00,99.26
3093.00,99.23
3092.00,99.21
3091.00,99.20
3090.00,99.19
3089.00,99.19
3088.00,99.19
3087.00,99.19
3086.00,99.17
3085.00,99.16
3084.00,99.14
3083.00,99.11
3082.00,99.10
3081.00,99.09
3080.00,99.09
3079.00,99.08
3078.00,99.08
3077.00,99.08
3076.00,99.07
3075.00,99.07
3074.00,99.08
3073.00,99.08
3072.00,99.07
3071.00,99.07
3070.00,99.06
3069.00,99.06
3068.00,99.07
3067.00,99.08
3066.00,99.10
3065.00,99.11
3064.00,99.12
3063.00,99.14
3062.00,99.15
3061.00,99.16
3060.00,99.16
3059.00,99.18
3058.00,99.21
3057.00,99.25
3056.00,99.30
3055.00,99.33
3054.00,99.34
3053.00,99.36
3052.00,99.40
3051.00,99.44
3050.00,99.48
3049.00,99.52
3048.00,99.56
3047.00,99.60
3046.00,99.64
3045.00,99.69
3044.00,99.73
3043.00,99.77
3042.00,99.80
3041.00,99.82
3040.00,99.84
3039.00,99.86
3038.00,99.88
3037.00,99.92
3036.00,99.96
3035.00,100.00
3034.00,100.04
3033.00,100.08
3032.00,100.11
3031.00,100.14
3030.00,100.15
3029.00,100.15
3028.00,100.15
3027.00,100.15
3026.00,100.15
3025.00,100.15
3024.00,100.16
3023.00,100.17
3022.00,100.17
3021.00,100.18
3020.00,100.20
3019.00,100.22
3018.00,100.24
3017.00,100.26
3016.00,100.27
3015.00,100.27
3014.00,100.28
3013.00,100.28
3012.00,100.28
3011.00,100.28
3010.00,100.27
3009.00,100.26
3008.00,100.25
3007.00,100.25
3006.00,100.26
3005.00,100.27
3004.00,100.28
3003.00,100.28
3002.00,100.28
3001.00,100.28
3000.00,100.29
2999.00,100.28
2998.00,100.27
2997.00,100.25
2996.00,100.22
2995.00,100.19
2994.00,100.18
2993.00,100.18
2992.00,100.20
2991.00,100.21
2990.00,100.21
2989.00,100.19
2988.00,100.17
2987.00,100.14
2986.00,100.12
2985.00,100.09
2984.00,100.07
2983.00,100.04
2982.00,100.00
2981.00,99.95
2980.00,99.89
2979.00,99.83
2978.00,99.78
2977.00,99.73
2976.00,99.68
2975.00,99.61
2974.00,99.52
2973.00,99.42
2972.00,99.32
2971.00,99.22
2970.00,99.12
2969.00,99.02
2968.00,98.91
2967.00,98.81
2966.00,98.71
2965.00,98.61
2964.00,98.50
2963.00,98.39
2962.00,98.27
2961.00,98.16
2960.00,98.05
2959.00,97.92
2958.00,97.77
2957.00,97.59
2956.00,97.39
2955.00,97.18
2954.00,96.96
2953.00,96.72
2952.00,96.46
2951.00,96.19
2950.00,95.92
2949.00,95.65
2948.00,95.39
2947.00,95.14
2946.00,94.91
2945.00,94.71
2944.00,94.52
2943.00,94.37
2942.00,94.24
2941.00,94.12
2940.00,94.01
2939.00,93.91
2938.00,93.81
2937.00,93.72
2936.00,93.66
2935.00,93.61
2934.00,93.59
2933.00,93.58
2932.00,93.58
2931.00,93.60
2930.00,93.64
2929.00,93.68
2928.00,93.73
2927.00,93.78
2926.00,93.83
2925.00,93.89
2924.00,93.94
2923.00,94.01
2922.00,94.09
2921.00,94.18
2920.00,94.29
2919.00,94.41
2918.00,94.55
2917.00,94.70
2916.00,94.86
2915.00,95.02
2914.00,95.19
2913.00,95.36
2912.00,95.53
2911.00,95.68
2910.00,95.80
2909.00,95.91
2908.00,96.01
2907.00,96.09
2906.00,96.17
2905.00,96.25
2904.00,96.31
2903.00,96.37
2902.00,96.41
2901.00,96.45
2900.00,96.50
2899.00,96.55
2898.00,96.61
2897.00,96.69
2896.00,96.78
2895.00,96.88
2894.00,96.98
2893.00,97.08
2892.00,97.18
2891.00,97.27
2890.00,97.34
2889.00,97.40
2888.00,97.43
2887.00,97.45
2886.00,97.44
2885.00,97.42
2884.00,97.39
2883.00,97.35
2882.00,97.29
2881.00,97.20
2880.00,97.08
2879.00,96.94
2878.00,96.78
2877.00,96.62
2876.00,96.46
2875.00,96.29
2874.00,96.13
2873.00,95.97
2872.00,95.83
2871.00,95.71
2870.00,95.61
2869.00,95.53
2868.00,95.46
2867.00,95.40
2866.00,95.35
2865.00,95.32
2864.00,95.31
2863.00,95.31
2862.00,95.32
2861.00,95.35
2860.00,95.39
2859.00,95.43
2858.00,95.46
2857.00,95.48
2856.00,95.51
2855.00,95.55
2854.00,95.61
2853.00,95.68
2852.00,95.77
2851.00,95.88
2850.00,96.05
2849.00,96.28
2848.00,96.56
2847.00,96.87
2846.00,97.19
2845.00,97.49
2844.00,97.76
2843.00,98.00
2842.00,98.20
2841.00,98.38
2840.00,98.53
2839.00,98.66
2838.00,98.77
2837.00,98.88
2836.00,98.97
2835.00,99.05
2834.00,99.11
2833.00,99.16
2832.00,99.22
2831.00,99.27
2830.00,99.32
2829.00,99.36
2828.00,99.39
2827.00,99.41
2826.00,99.42
2825.00,99.44
2824.00,99.46
2823.00,99.48
2822.00,99.51
2821.00,99.55
2820.00,99.58
2819.00,99.60
2818.00,99.62
2817.00,99.63
2816.00,99.64
2815.00,99.65
2814.00,99.66
2813.00,99.68
2812.00,99.71
2811.00,99.74
2810.00,99.77
2809.00,99.80
2808.00,99.82
2807.00,99.84
2806.00,99.85
2805.00,99.86
2804.00,99.87
2803.00,99.88
2802.00,99.89
2801.00,99.91
2800.00,99.92
2799.00,99.93
2798.00,99.95
2797.00,99.96
2796.00,99.97
2795.00,99.98
2794.00,99.99
2793.00,100.00
2792.00,100.01
2791.00,100.02
2790.00,100.03
2789.00,100.04
2788.00,100.04
2787.00,100.03
2786.00,100.04
2785.00,100.05
2784.00,100.06
2783.00,100.07
2782.00,100.07
2781.00,100.07
2780.00,100.07
2779.00,100.09
2778.00,100.11
2777.00,100.13
2776.00,100.14
2775.00,100.14
2774.00,100.14
2773.00,100.14
2772.00,100.14
2771.00,100.15
2770.00,100.17
2769.00,100.18
2768.00,100.19
2767.00,100.19
2766.00,100.19
2765.00,100.19
2764.00,100.19
2763.00,100.19
2762.00,100.19
2761.00,100.19
2760.00,100.19
2759.00,100.20
2758.00,100.21
2757.00,100.22
2756.00,100.23
2755.00,100.24
2754.00,100.25
2753.00,100.24
2752.00,100.23
2751.00,100.23
2750.00,100.23
2749.00,100.23
2748.00,100.23
2747.00,100.21
2746.00,100.20
2745.00,100.19
2744.00,100.19
2743.00,100.19
2742.00,100.19
2741.00,100.20
2740.00,100.20
2739.00,100.22
2738.00,100.24
2737.00,100.26
2736.00,100.28
2735.00,100.29
2734.00,100.29
2733.00,100.28
2732.00,100.27
2731.00,100.26
2730.00,100.27
2729.00,100.27
2728.00,100.28
2727.00,100.29
2726.00,100.29
2725.00,100.29
2724.00,100.29
2723.00,100.30
2722.00,100.32
2721.00,100.34
2720.00,100.35
2719.00,100.35
2718.00,100.34
2717.00,100.34
2716.00,100.35
2715.00,100.37
2714.00,100.37
2713.00,100.36
2712.00,100.36
2711.00,100.36
2710.00,100.38
2709.00,100.40
2708.00,100.43
2707.00,100.44
2706.00,100.44
2705.00,100.43
2704.00,100.42
2703.00,100.41
2702.00,100.40
2701.00,100.40
2700.00,100.39
2699.00,100.39
2698.00,100.40
2697.00,100.42
2696.00,100.44
2695.00,100.45
2694.00,100.45
2693.00,100.43
2692.00,100.41
2691.00,100.40
2690.00,100.41
2689.00,100.42
2688.00,100.42
2687.00,100.42
2686.00,100.42
2685.00,100.43
2684.00,100.44
2683.00,100.44
2682.00,100.44
2681.00,100.43
2680.00,100.42
2679.00,100.42
2678.00,100.43
2677.00,100.44
2676.00,100.45
2675.00,100.45
2674.00,100.45
2673.00,100.43
2672.00,100.42
2671.00,100.41
2670.00,100.41
2669.00,100.41
2668.00,100.42
2667.00,100.44
2666.00,100.45
2665.00,100.45
2664.00,100.45
2663.00,100.43
2662.00,100.41
2661.00,100.40
2660.00,100.38
2659.00,100.38
2658.00,100.38
2657.00,100.38
2656.00,100.40
2655.00,100.40
2654.00,100.40
2653.00,100.39
2652.00,100.37
2651.00,100.36
2650.00,100.35
2649.00,100.35
2648.00,100.36
2647.00,100.36
2646.00,100.36
2645.00,100.34
2644.00,100.32
2643.00,100.30
2642.00,100.29
2641.00,100.29
2640.00,100.29
2639.00,100.29
2638.00,100.29
2637.00,100.28
2636.00,100.28
2635.00,100.28
2634.00,100.27
2633.00,100.26
2632.00,100.25
2631.00,100.23
2630.00,100.22
2629.00,100.22
2628.00,100.22
2627.00,100.22
2626.00,100.22
2625.00,100.21
2624.00,100.21
2623.00,100.21
2622.00,100.22
2621.00,100.22
2620.00,100.23
2619.00,100.23
2618.00,100.23
2617.00,100.23
2616.00,100.23
2615.00,100.21
2614.00,100.18
2613.00,100.16
2612.00,100.15
2611.00,100.15
2610.00,100.16
2609.00,100.17
2608.00,100.18
2607.00,100.18
2606.00,100.17
2605.00,100.14
2604.00,100.10
2603.00,100.08
2602.00,100.07
2601.00,100.08
2600.00,100.08
2599.00,100.08
2598.00,100.08
2597.00,100.09
2596.00,100.11
2595.00,100.13
2594.00,100.14
2593.00,100.13
2592.00,100.11
2591.00,100.08
2590.00,100.06
2589.00,100.08
2588.00,100.10
2587.00,100.10
2586.00,100.07
2585.00,100.04
2584.00,100.03
2583.00,100.05
2582.00,100.09
2581.00,100.11
2580.00,100.10
2579.00,100.09
2578.00,100.07
2577.00,100.06
2576.00,100.05
2575.00,100.05
2574.00,100.05
2573.00,100.06
2572.00,100.06
2571.00,100.06
2570.00,100.05
2569.00,100.04
2568.00,100.03
2567.00,100.03
2566.00,100.03
2565.00,100.03
2564.00,100.03
2563.00,100.04
2562.00,100.04
2561.00,100.04
2560.00,100.05
2559.00,100.05
2558.00,100.06
2557.00,100.06
2556.00,100.05
2555.00,100.02
2554.00,100.00
2553.00,99.99
2552.00,99.98
2551.00,99.98
2550.00,99.99
2549.00,100.00
2548.00,100.02
2547.00,100.03
2546.00,100.04
2545.00,100.04
2544.00,100.03
2543.00,100.02
2542.00,100.01
2541.00,100.00
2540.00,99.99
2539.00,99.98
2538.00,99.97
2537.00,99.97
2536.00,99.97
2535.00,99.99
2534.00,99.99
2533.00,100.00
2532.00,100.00
2531.00,100.01
2530.00,100.01
2529.00,100.01
2528.00,100.01
2527.00,100.00
2526.00,100.00
2525.00,99.99
2524.00,99.99
2523.00,99.99
2522.00,100.00
2521.00,100.01
2520.00,100.02
2519.00,100.02
2518.00,100.01
2517.00,100.00
2516.00,100.00
2515.00,100.00
2514.00,100.02
2513.00,100.04
2512.00,100.06
2511.00,100.09
2510.00,100.10
2509.00,100.10
2508.00,100.09
2507.00,100.07
2506.00,100.07
2505.00,100.06
2504.00,100.06
2503.00,100.06
2502.00,100.05
2501.00,100.05
2500.00,100.06
2499.00,100.08
2498.00,100.08
2497.00,100.07
2496.00,100.05
2495.00,100.02
2494.00,100.01
2493.00,100.00
2492.00,100.01
2491.00,100.02
2490.00,100.03
2489.00,100.03
2488.00,100.05
2487.00,100.07
2486.00,100.10
2485.00,100.11
2484.00,100.10
2483.00,100.09
2482.00,100.07
2481.00,100.05
2480.00,100.04
2479.00,100.02
2478.00,100.00
2477.00,99.99
2476.00,99.99
2475.00,100.00
2474.00,100.02
2473.00,100.04
2472.00,100.06
2471.00,100.08
2470.00,100.08
2469.00,100.08
2468.00,100.07
2467.00,100.06
2466.00,100.05
2465.00,100.04
2464.00,100.04
2463.00,100.04
2462.00,100.04
2461.00,100.06
2460.00,100.08
2459.00,100.09
2458.00,100.09
2457.00,100.07
2456.00,100.05
2455.00,100.03
2454.00,100.01
2453.00,100.01
2452.00,100.01
2451.00,100.01
2450.00,100.02
2449.00,100.02
2448.00,100.02
2447.00,100.03
2446.00,100.05
2445.00,100.06
2444.00,100.08
2443.00,100.10
2442.00,100.11
2441.00,100.12
2440.00,100.13
2439.00,100.14
2438.00,100.14
2437.00,100.12
2436.00,100.10
2435.00,100.09
2434.00,100.11
2433.00,100.12
2432.00,100.13
2431.00,100.13
2430.00,100.12
2429.00,100.11
2428.00,100.10
2427.00,100.09
2426.00,100.09
2425.00,100.10
2424.00,100.10
2423.00,100.10
2422.00,100.09
2421.00,100.09
2420.00,100.09
2419.00,100.09
2418.00,100.11
2417.00,100.12
2416.00,100.11
2415.00,100.10
2414.00,100.08
2413.00,100.08
2412.00,100.07
2411.00,100.08
2410.00,100.08
2409.00,100.10
2408.00,100.12
2407.00,100.15
2406.00,100.16
2405.00,100.17
2404.00,100.17
2403.00,100.17
2402.00,100.16
2401.00,100.15
2400.00,100.15
2399.00,100.16
2398.00,100.18
2397.00,100.21
2396.00,100.23
2395.00,100.24
2394.00,100.23
2393.00,100.22
2392.00,100.22
2391.00,100.23
2390.00,100.24
2389.00,100.24
2388.00,100.24
2387.00,100.26
2386.00,100.27
2385.00,100.27
2384.00,100.26
2383.00,100.26
2382.00,100.25
2381.00,100.26
2380.00,100.28
2379.00,100.31
2378.00,100.34
2377.00,100.37
2376.00,100.39
2375.00,100.41
2374.00,100.42
2373.00,100.43
2372.00,100.45
2371.00,100.48
2370.00,100.50
2369.00,100.49
2368.00,100.40
2367.00,100.26
2366.00,100.11
2365.00,100.06
2364.00,100.12
2363.00,100.24
2362.00,100.34
2361.00,100.37
2360.00,100.39
2359.00,100.43
2358.00,100.47
2357.00,100.44
2356.00,100.37
2355.00,100.31
2354.00,100.28
2353.00,100.30
2352.00,100.32
2351.00,100.33
2350.00,100.34
2349.00,100.34
2348.00,100.34
2347.00,100.34
2346.00,100.34
2345.00,100.32
2344.00,100.30
2343.00,100.30
2342.00,100.30
2341.00,100.30
2340.00,100.31
2339.00,100.33
2338.00,100.33
2337.00,100.32
2336.00,100.29
2335.00,100.28
2334.00,100.29
2333.00,100.32
2332.00,100.32
2331.00,100.30
2330.00,100.25
2329.00,100.20
2328.00,100.16
2327.00,100.12
2326.00,100.08
2325.00,100.03
2324.00,100.01
2323.00,100.01
2322.00,100.02
2321.00,100.03
2320.00,100.04
2319.00,100.05
2318.00,100.08
2317.00,100.11
2316.00,100.13
2315.00,100.11
2314.00,100.09
2313.00,100.06
2312.00,100.07
2311.00,100.08
2310.00,100.09
2309.00,100.09
2308.00,100.08
2307.00,100.05
2306.00,100.02
2305.00,99.98
2304.00,99.95
2303.00,99.93
2302.00,99.92
2301.00,99.91
2300.00,99.91
2299.00,99.92
2298.00,99.91
2297.00,99.90
2296.00,99.88
2295.00,99.86
2294.00,99.86
2293.00,99.85
2292.00,99.83
2291.00,99.80
2290.00,99.75
2289.00,99.71
2288.00,99.68
2287.00,99.66
2286.00,99.64
2285.00,99.64
2284.00,99.63
2283.00,99.63
2282.00,99.62
2281.00,99.61
2280.00,99.63
2279.00,99.66
2278.00,99.68
2277.00,99.67
2276.00,99.65
2275.00,99.62
2274.00,99.59
2273.00,99.56
2272.00,99.53
2271.00,99.50
2270.00,99.47
2269.00,99.42
2268.00,99.39
2267.00,99.38
2266.00,99.38
2265.00,99.39
2264.00,99.41
2263.00,99.45
2262.00,99.47
2261.00,99.45
2260.00,99.40
2259.00,99.34
2258.00,99.31
2257.00,99.30
2256.00,99.31
2255.00,99.32
2254.00,99.33
2253.00,99.33
2252.00,99.32
2251.00,99.30
2250.00,99.29
2249.00,99.27
2248.00,99.26
2247.00,99.26
2246.00,99.27
2245.00,99.27
2244.00,99.27
2243.00,99.26
2242.00,99.23
2241.00,99.20
2240.00,99.15
2239.00,99.12
2238.00,99.11
2237.00,99.11
2236.00,99.12
2235.00,99.13
2234.00,99.12
2233.00,99.09
2232.00,99.07
2231.00,99.05
2230.00,99.05
2229.00,99.06
2228.00,99.06
2227.00,99.06
2226.00,99.05
2225.00,99.04
2224.00,99.02
2223.00,99.00
2222.00,98.97
2221.00,98.96
2220.00,98.96
2219.00,98.97
2218.00,98.99
2217.00,99.01
2216.00,99.03
2215.00,99.05
2214.00,99.06
2213.00,99.05
2212.00,99.02
2211.00,98.96
2210.00,98.89
2209.00,98.84
2208.00,98.83
2207.00,98.82
2206.00,98.81
2205.00,98.78
2204.00,98.74
2203.00,98.69
2202.00,98.66
2201.00,98.66
2200.00,98.69
2199.00,98.73
2198.00,98.74
2197.00,98.71
2196.00,98.65
2195.00,98.59
2194.00,98.56
2193.00,98.56
2192.00,98.58
2191.00,98.59
2190.00,98.55
2189.00,98.50
2188.00,98.47
2187.00,98.49
2186.00,98.51
2185.00,98.50
2184.00,98.45
2183.00,98.39
2182.00,98.33
2181.00,98.30
2180.00,98.32
2179.00,98.38
2178.00,98.43
2177.00,98.47
2176.00,98.46
2175.00,98.44
2174.00,98.41
2173.00,98.37
2172.00,98.31
2171.00,98.26
2170.00,98.21
2169.00,98.15
2168.00,98.10
2167.00,98.06
2166.00,98.04
2165.00,98.03
2164.00,98.00
2163.00,97.93
2162.00,97.87
2161.00,97.86
2160.00,97.92
2159.00,98.02
2158.00,98.13
2157.00,98.21
2156.00,98.27
2155.00,98.33
2154.00,98.42
2153.00,98.51
2152.00,98.61
2151.00,98.70
2150.00,98.77
2149.00,98.79
2148.00,98.78
2147.00,98.77
2146.00,98.79
2145.00,98.85
2144.00,98.90
2143.00,98.92
2142.00,98.90
2141.00,98.89
2140.00,98.89
2139.00,98.90
2138.00,98.93
2137.00,99.00
2136.00,99.08
2135.00,99.13
2134.00,99.15
2133.00,99.18
2132.00,99.22
2131.00,99.28
2130.00,99.32
2129.00,99.34
2128.00,99.36
2127.00,99.38
2126.00,99.40
2125.00,99.40
2124.00,99.40
2123.00,99.40
2122.00,99.39
2121.00,99.36
2120.00,99.34
2119.00,99.33
2118.00,99.33
2117.00,99.34
2116.00,99.37
2115.00,99.38
2114.00,99.38
2113.00,99.37
2112.00,99.36
2111.00,99.34
2110.00,99.33
2109.00,99.33
2108.00,99.33
2107.00,99.35
2106.00,99.35
2105.00,99.34
2104.00,99.31
2103.00,99.28
2102.00,99.26
2101.00,99.27
2100.00,99.28
2099.00,99.31
2098.00,99.34
2097.00,99.37
2096.00,99.40
2095.00,99.42
2094.00,99.43
2093.00,99.44
2092.00,99.43
2091.00,99.40
2090.00,99.36
2089.00,99.31
2088.00,99.29
2087.00,99.30
2086.00,99.31
2085.00,99.32
2084.00,99.32
2083.00,99.32
2082.00,99.32
2081.00,99.33
2080.00,99.34
2079.00,99.35
2078.00,99.36
2077.00,99.35
2076.00,99.33
2075.00,99.30
2074.00,99.25
2073.00,99.18
2072.00,99.11
2071.00,99.06
2070.00,99.04
2069.00,99.06
2068.00,99.09
2067.00,99.11
2066.00,99.12
2065.00,99.11
2064.00,99.08
2063.00,99.04
2062.00,99.01
2061.00,99.01
2060.00,99.02
2059.00,99.03
2058.00,99.01
2057.00,98.97
2056.00,98.93
2055.00,98.92
2054.00,98.90
2053.00,98.86
2052.00,98.79
2051.00,98.71
2050.00,98.66
2049.00,98.64
2048.00,98.63
2047.00,98.60
2046.00,98.57
2045.00,98.53
2044.00,98.50
2043.00,98.48
2042.00,98.47
2041.00,98.46
2040.00,98.46
2039.00,98.43
2038.00,98.39
2037.00,98.36
2036.00,98.38
2035.00,98.43
2034.00,98.46
2033.00,98.44
2032.00,98.39
2031.00,98.36
2030.00,98.36
2029.00,98.39
2028.00,98.42
2027.00,98.42
2026.00,98.38
2025.00,98.34
2024.00,98.31
2023.00,98.33
2022.00,98.38
2021.00,98.45
2020.00,98.49
2019.00,98.48
2018.00,98.43
2017.00,98.39
2016.00,98.41
2015.00,98.46
2014.00,98.49
2013.00,98.50
2012.00,98.52
2011.00,98.55
2010.00,98.58
2009.00,98.60
2008.00,98.63
2007.00,98.67
2006.00,98.71
2005.00,98.72
2004.00,98.70
2003.00,98.67
2002.00,98.65
2001.00,98.66
2000.00,98.69
1999.00,98.71
1998.00,98.69
1997.00,98.66
1996.00,98.65
1995.00,98.67
1994.00,98.69
1993.00,98.68
1992.00,98.65
1991.00,98.63
1990.00,98.64
1989.00,98.66
1988.00,98.68
1987.00,98.66
1986.00,98.61
1985.00,98.54
1984.00,98.48
1983.00,98.43
1982.00,98.37
1981.00,98.33
1980.00,98.34
1979.00,98.39
1978.00,98.44
1977.00,98.46
1976.00,98.47
1975.00,98.49
1974.00,98.51
1973.00,98.53
1972.00,98.56
1971.00,98.63
1970.00,98.72
1969.00,98.77
1968.00,98.75
1967.00,98.70
1966.00,98.66
1965.00,98.64
1964.00,98.64
1963.00,98.65
1962.00,98.70
1961.00,98.78
1960.00,98.88
1959.00,98.96
1958.00,99.01
1957.00,99.04
1956.00,99.05
1955.00,99.04
1954.00,99.03
1953.00,99.04
1952.00,99.08
1951.00,99.12
1950.00,99.12
1949.00,99.11
1948.00,99.11
1947.00,99.14
1946.00,99.19
1945.00,99.25
1944.00,99.30
1943.00,99.34
1942.00,99.36
1941.00,99.35
1940.00,99.34
1939.00,99.35
1938.00,99.38
1937.00,99.41
1936.00,99.43
1935.00,99.43
1934.00,99.43
1933.00,99.43
1932.00,99.43
1931.00,99.44
1930.00,99.45
1929.00,99.45
1928.00,99.46
1927.00,99.47
1926.00,99.46
1925.00,99.44
1924.00,99.42
1923.00,99.43
1922.00,99.47
1921.00,99.53
1920.00,99.56
1919.00,99.56
1918.00,99.55
1917.00,99.54
1916.00,99.56
1915.00,99.60
1914.00,99.63
1913.00,99.62
1912.00,99.59
1911.00,99.56
1910.00,99.53
1909.00,99.52
1908.00,99.55
1907.00,99.60
1906.00,99.64
1905.00,99.67
1904.00,99.69
1903.00,99.71
1902.00,99.74
1901.00,99.75
1900.00,99.74
1899.00,99.73
1898.00,99.72
1897.00,99.72
1896.00,99.72
1895.00,99.72
1894.00,99.73
1893.00,99.75
1892.00,99.77
1891.00,99.79
1890.00,99.80
1889.00,99.82
1888.00,99.83
1887.00,99.85
1886.00,99.85
1885.00,99.83
1884.00,99.81
1883.00,99.79
1882.00,99.78
1881.00,99.78
1880.00,99.80
1879.00,99.82
1878.00,99.83
1877.00,99.83
1876.00,99.84
1875.00,99.84
1874.00,99.85
1873.00,99.84
1872.00,99.82
1871.00,99.82
1870.00,99.83
1869.00,99.83
1868.00,99.83
1867.00,99.83
1866.00,99.85
1865.00,99.87
1864.00,99.89
1863.00,99.89
1862.00,99.88
1861.00,99.87
1860.00,99.86
1859.00,99.86
1858.00,99.87
1857.00,99.87
1856.00,99.87
1855.00,99.88
1854.00,99.90
1853.00,99.92
1852.00,99.92
1851.00,99.93
1850.00,99.94
1849.00,99.96
1848.00,99.98
1847.00,100.00
1846.00,100.00
1845.00,99.99
1844.00,99.99
1843.00,99.99
1842.00,100.00
1841.00,99.99
1840.00,99.97
1839.00,99.97
1838.00,99.97
1837.00,99.99
1836.00,100.00
1835.00,100.00
1834.00,99.98
1833.00,99.96
1832.00,99.96
1831.00,99.97
1830.00,100.00
1829.00,100.02
1828.00,100.04
1827.00,100.03
1826.00,100.01
1825.00,99.98
1824.00,99.98
1823.00,99.99
1822.00,100.01
1821.00,100.01
1820.00,100.01
1819.00,100.01
1818.00,100.03
1817.00,100.04
1816.00,100.04
1815.00,100.04
1814.00,100.03
1813.00,100.03
1812.00,100.04
1811.00,100.06
1810.00,100.08
1809.00,100.09
1808.00,100.09
1807.00,100.08
1806.00,100.08
1805.00,100.08
1804.00,100.08
1803.00,100.07
1802.00,100.05
1801.00,100.03
1800.00,100.03
1799.00,100.05
1798.00,100.06
1797.00,100.06
1796.00,100.05
1795.00,100.06
1794.00,100.08
1793.00,100.11
1792.00,100.15
1791.00,100.17
1790.00,100.17
1789.00,100.15
1788.00,100.12
1787.00,100.11
1786.00,100.10
1785.00,100.09
1784.00,100.08
1783.00,100.08
1782.00,100.09
1781.00,100.09
1780.00,100.10
1779.00,100.09
1778.00,100.09
1777.00,100.08
1776.00,100.09
1775.00,100.12
1774.00,100.16
1773.00,100.21
1772.00,100.24
1771.00,100.27
1770.00,100.24
1769.00,100.17
1768.00,100.09
1767.00,100.04
1766.00,100.00
1765.00,99.99
1764.00,99.99
1763.00,99.99
1762.00,99.99
1761.00,99.98
1760.00,99.97
1759.00,99.96
1758.00,99.95
1757.00,99.92
1756.00,99.89
1755.00,99.87
1754.00,99.86
1753.00,99.85
1752.00,99.85
1751.00,99.84
1750.00,99.83
1749.00,99.81
1748.00,99.81
1747.00,99.81
1746.00,99.79
1745.00,99.76
1744.00,99.71
1743.00,99.67
1742.00,99.65
1741.00,99.64
1740.00,99.64
1739.00,99.64
1738.00,99.65
1737.00,99.64
1736.00,99.66
1735.00,99.67
1734.00,99.78
1733.00,99.63
1732.00,99.55
1731.00,99.59
1730.00,99.58
1729.00,99.59
1728.00,99.59
1727.00,99.60
1726.00,99.60
1725.00,99.61
1724.00,99.62
1723.00,99.63
1722.00,99.64
1721.00,99.65
1720.00,99.65
1719.00,99.64
1718.00,99.63
1717.00,99.62
1716.00,99.62
1715.00,99.64
1714.00,99.64
1713.00,99.73
1712.00,99.72
1711.00,99.67
1710.00,99.68
1709.00,99.67
1708.00,99.67
1707.00,99.65
1706.00,99.62
1705.00,99.59
1704.00,99.57
1703.00,99.56
1702.00,99.57
1701.00,99.60
1700.00,99.65
1699.00,99.72
1698.00,99.79
1697.00,99.82
1696.00,99.82
1695.00,99.81
1694.00,99.76
1693.00,99.64
1692.00,99.49
1691.00,99.36
1690.00,99.27
1689.00,99.21
1688.00,99.17
1687.00,99.14
1686.00,99.14
1685.00,99.13
1684.00,99.06
1683.00,98.95
1682.00,98.75
1681.00,98.46
1680.00,98.16
1679.00,97.92
1678.00,97.75
1677.00,97.58
1676.00,97.37
1675.00,97.14
1674.00,96.92
1673.00,96.72
1672.00,96.50
1671.00,96.21
1670.00,95.85
1669.00,95.43
1668.00,95.02
1667.00,94.63
1666.00,94.28
1665.00,93.92
1664.00,93.54
1663.00,93.14
1662.00,92.77
1661.00,92.44
1660.00,92.12
1659.00,91.81
1658.00,91.54
1657.00,91.31
1656.00,91.12
1655.00,90.90
1654.00,90.47
1653.00,89.79
1652.00,89.22
1651.00,88.88
1650.00,88.51
1649.00,88.01
1648.00,87.30
1647.00,86.45
1646.00,85.65
1645.00,84.97
1644.00,84.35
1643.00,83.75
1642.00,83.15
1641.00,82.57
1640.00,82.06
1639.00,81.67
1638.00,81.37
1637.00,81.10
1636.00,80.83
1635.00,80.69
1634.00,80.74
1633.00,80.89
1632.00,81.08
1631.00,81.31
1630.00,81.59
1629.00,81.90
1628.00,82.25
1627.00,82.61
1626.00,82.99
1625.00,83.38
1624.00,83.79
1623.00,84.23
1622.00,84.69
1621.00,85.16
1620.00,85.63
1619.00,86.12
1618.00,86.67
1617.00,87.28
1616.00,87.88
1615.00,88.38
1614.00,88.74
1613.00,89.03
1612.00,89.33
1611.00,89.69
1610.00,90.07
1609.00,90.47
1608.00,90.87
1607.00,91.27
1606.00,91.64
1605.00,92.01
1604.00,92.38
1603.00,92.73
1602.00,93.04
1601.00,93.32
1600.00,93.57
1599.00,93.77
1598.00,93.94
1597.00,94.10
1596.00,94.26
1595.00,94.41
1594.00,94.54
1593.00,94.65
1592.00,94.76
1591.00,94.86
1590.00,94.93
1589.00,94.98
1588.00,95.03
1587.00,95.06
1586.00,95.05
1585.00,95.01
1584.00,94.96
1583.00,94.87
1582.00,94.77
1581.00,94.66
1580.00,94.57
1579.00,94.48
1578.00,94.37
1577.00,94.25
1576.00,94.11
1575.00,93.96
1574.00,93.75
1573.00,93.48
1572.00,93.20
1571.00,92.91
1570.00,92.58
1569.00,92.25
1568.00,91.98
1567.00,91.74
1566.00,91.47
1565.00,91.20
1564.00,90.96
1563.00,90.79
1562.00,90.68
1561.00,90.58
1560.00,90.33
1559.00,89.85
1558.00,89.45
1557.00,89.21
1556.00,88.92
1555.00,88.55
1554.00,88.16
1553.00,87.80
1552.00,87.47
1551.00,87.10
1550.00,86.66
1549.00,86.22
1548.00,85.87
1547.00,85.57
1546.00,85.26
1545.00,84.93
1544.00,84.63
1543.00,84.42
1542.00,84.28
1541.00,84.15
1540.00,84.03
1539.00,84.00
1538.00,84.01
1537.00,84.01
1536.00,84.03
1535.00,84.08
1534.00,84.20
1533.00,84.40
1532.00,84.66
1531.00,84.93
1530.00,85.21
1529.00,85.53
1528.00,85.86
1527.00,86.21
1526.00,86.56
1525.00,86.91
1524.00,87.26
1523.00,87.64
1522.00,88.07
1521.00,88.50
1520.00,88.86
1519.00,89.13
1518.00,89.38
1517.00,89.66
1516.00,89.95
1515.00,90.23
1514.00,90.50
1513.00,90.76
1512.00,91.01
1511.00,91.26
1510.00,91.49
1509.00,91.73
1508.00,92.04
1507.00,92.43
1506.00,92.86
1505.00,93.15
1504.00,93.31
1503.00,93.41
1502.00,93.50
1501.00,93.62
1500.00,93.76
1499.00,93.93
1498.00,94.12
1497.00,94.32
1496.00,94.51
1495.00,94.67
1494.00,94.78
1493.00,94.83
1492.00,94.86
1491.00,94.89
1490.00,94.93
1489.00,94.94
1488.00,94.91
1487.00,94.82
1486.00,94.67
1485.00,94.46
1484.00,94.19
1483.00,93.85
1482.00,93.47
1481.00,93.09
1480.00,92.76
1479.00,92.52
1478.00,92.35
1477.00,92.22
1476.00,92.16
1475.00,92.20
1474.00,92.33
1473.00,92.52
1472.00,92.68
1471.00,92.74
1470.00,92.68
1469.00,92.51
1468.00,92.26
1467.00,91.91
1466.00,91.48
1465.00,91.02
1464.00,90.67
1463.00,90.52
1462.00,90.57
1461.00,90.74
1460.00,90.98
1459.00,91.29
1458.00,91.62
1457.00,91.93
1456.00,92.14
1455.00,92.25
1454.00,92.30
1453.00,92.34
1452.00,92.38
1451.00,92.44
1450.00,92.53
1449.00,92.62
1448.00,92.69
1447.00,92.73
1446.00,92.77
1445.00,92.79
1444.00,92.79
1443.00,92.78
1442.00,92.75
1441.00,92.73
1440.00,92.72
1439.00,92.70
1438.00,92.67
1437.00,92.60
1436.00,92.54
1435.00,92.55
1434.00,92.63
1433.00,92.73
1432.00,92.84
1431.00,92.95
1430.00,93.06
1429.00,93.15
1428.00,93.20
1427.00,93.20
1426.00,93.15
1425.00,93.04
1424.00,92.87
1423.00,92.66
1422.00,92.45
1421.00,92.22
1420.00,91.95
1419.00,91.66
1418.00,91.47
1417.00,91.39
1416.00,91.40
1415.00,91.50
1414.00,91.67
1413.00,91.92
1412.00,92.21
1411.00,92.54
1410.00,92.86
1409.00,93.18
1408.00,93.48
1407.00,93.74
1406.00,93.98
1405.00,94.20
1404.00,94.39
1403.00,94.56
1402.00,94.71
1401.00,94.84
1400.00,94.94
1399.00,94.99
1398.00,95.02
1397.00,95.02
1396.00,95.00
1395.00,94.96
1394.00,94.90
1393.00,94.85
1392.00,94.81
1391.00,94.77
1390.00,94.72
1389.00,94.66
1388.00,94.56
1387.00,94.43
1386.00,94.29
1385.00,94.15
1384.00,94.01
1383.00,93.86
1382.00,93.70
1381.00,93.55
1380.00,93.39
1379.00,93.23
1378.00,93.07
1377.00,92.94
1376.00,92.83
1375.00,92.73
1374.00,92.66
1373.00,92.62
1372.00,92.61
1371.00,92.62
1370.00,92.65
1369.00,92.67
1368.00,92.68
1367.00,92.71
1366.00,92.74
1365.00,92.79
1364.00,92.83
1363.00,92.87
1362.00,92.92
1361.00,92.99
1360.00,93.08
1359.00,93.18
1358.00,93.30
1357.00,93.41
1356.00,93.51
1355.00,93.61
1354.00,93.68
1353.00,93.75
1352.00,93.80
1351.00,93.84
1350.00,93.88
1349.00,93.93
1348.00,93.98
1347.00,94.03
1346.00,94.08
1345.00,94.12
1344.00,94.17
1343.00,94.21
1342.00,94.25
1341.00,94.28
1340.00,94.31
1339.00,94.33
1338.00,94.36
1337.00,94.38
1336.00,94.41
1335.00,94.43
1334.00,94.47
1333.00,94.50
1332.00,94.54
1331.00,94.59
1330.00,94.65
1329.00,94.70
1328.00,94.74
1327.00,94.77
1326.00,94.80
1325.00,94.82
1324.00,94.84
1323.00,94.85
1322.00,94.86
1321.00,94.85
1320.00,94.83
1319.00,94.80
1318.00,94.77
1317.00,94.73
1316.00,94.70
1315.00,94.67
1314.00,94.64
1313.00,94.61
1312.00,94.57
1311.00,94.55
1310.00,94.53
1309.00,94.50
1308.00,94.46
1307.00,94.41
1306.00,94.36
1305.00,94.32
1304.00,94.29
1303.00,94.25
1302.00,94.23
1301.00,94.22
1300.00,94.21
1299.00,94.20
1298.00,94.18
1297.00,94.14
1296.00,94.09
1295.00,94.03
1294.00,93.98
1293.00,93.94
1292.00,93.90
1291.00,93.88
1290.00,93.87
1289.00,93.87
1288.00,93.87
1287.00,93.84
1286.00,93.80
1285.00,93.74
1284.00,93.67
1283.00,93.60
1282.00,93.53
1281.00,93.47
1280.00,93.43
1279.00,93.39
1278.00,93.37
1277.00,93.35
1276.00,93.32
1275.00,93.28
1274.00,93.22
1273.00,93.15
1272.00,93.04
1271.00,92.88
1270.00,92.67
1269.00,92.40
1268.00,92.10
1267.00,91.79
1266.00,91.50
1265.00,91.27
1264.00,91.09
1263.00,90.98
1262.00,90.94
1261.00,90.94
1260.00,91.00
1259.00,91.09
1258.00,91.22
1257.00,91.37
1256.00,91.55
1255.00,91.72
1254.00,91.90
1253.00,92.06
1252.00,92.21
1251.00,92.34
1250.00,92.45
1249.00,92.54
1248.00,92.63
1247.00,92.70
1246.00,92.76
1245.00,92.81
1244.00,92.83
1243.00,92.84
1242.00,92.83
1241.00,92.83
1240.00,92.83
1239.00,92.85
1238.00,92.88
1237.00,92.93
1236.00,93.02
1235.00,93.14
1234.00,93.29
1233.00,93.44
1232.00,93.59
1231.00,93.75
1230.00,93.92
1229.00,94.11
1228.00,94.31
1227.00,94.48
1226.00,94.63
1225.00,94.75
1224.00,94.83
1223.00,94.87
1222.00,94.87
1221.00,94.82
1220.00,94.71
1219.00,94.56
1218.00,94.38
1217.00,94.19
1216.00,94.02
1215.00,93.90
1214.00,93.82
1213.00,93.76
1212.00,93.73
1211.00,93.71
1210.00,93.70
1209.00,93.68
1208.00,93.62
1207.00,93.53
1206.00,93.37
1205.00,93.13
1204.00,92.85
1203.00,92.55
1202.00,92.28
1201.00,92.11
1200.00,92.05
1199.00,92.13
1198.00,92.31
1197.00,92.55
1196.00,92.82
1195.00,93.08
1194.00,93.33
1193.00,93.56
1192.00,93.78
1191.00,93.99
1190.00,94.18
1189.00,94.37
1188.00,94.52
1187.00,94.64
1186.00,94.73
1185.00,94.78
1184.00,94.81
1183.00,94.82
1182.00,94.80
1181.00,94.75
1180.00,94.67
1179.00,94.53
1178.00,94.36
1177.00,94.15
1176.00,93.93
1175.00,93.72
1174.00,93.54
1173.00,93.38
1172.00,93.24
1171.00,93.12
1170.00,93.05
1169.00,93.03
1168.00,93.09
1167.00,93.22
1166.00,93.41
1165.00,93.62
1164.00,93.84
1163.00,94.05
1162.00,94.24
1161.00,94.42
1160.00,94.58
1159.00,94.74
1158.00,94.89
1157.00,95.03
1156.00,95.15
1155.00,95.26
1154.00,95.36
1153.00,95.45
1152.00,95.54
1151.00,95.61
1150.00,95.68
1149.00,95.74
1148.00,95.78
1147.00,95.83
1146.00,95.89
1145.00,95.94
1144.00,95.98
1143.00,96.00
1142.00,96.00
1141.00,96.01
1140.00,96.02
1139.00,96.04
1138.00,96.08
1137.00,96.11
1136.00,96.13
1135.00,96.12
1134.00,96.10
1133.00,96.07
1132.00,96.03
1131.00,95.96
1130.00,95.86
1129.00,95.73
1128.00,95.58
1127.00,95.42
1126.00,95.27
1125.00,95.15
1124.00,95.06
1123.00,95.02
1122.00,94.99
1121.00,94.96
1120.00,94.93
1119.00,94.89
1118.00,94.84
1117.00,94.79
1116.00,94.77
1115.00,94.79
1114.00,94.84
1113.00,94.90
1112.00,94.94
1111.00,94.96
1110.00,94.98
1109.00,95.01
1108.00,95.07
1107.00,95.14
1106.00,95.21
1105.00,95.28
1104.00,95.34
1103.00,95.41
1102.00,95.49
1101.00,95.56
1100.00,95.61
1099.00,95.65
1098.00,95.68
1097.00,95.70
1096.00,95.74
1095.00,95.78
1094.00,95.84
1093.00,95.87
1092.00,95.88
1091.00,95.88
1090.00,95.90
1089.00,95.91
1088.00,95.92
1087.00,95.91
1086.00,95.89
1085.00,95.88
1084.00,95.87
1083.00,95.85
1082.00,95.82
1081.00,95.78
1080.00,95.75
1079.00,95.75
1078.00,95.76
1077.00,95.76
1076.00,95.76
1075.00,95.75
1074.00,95.73
1073.00,95.72
1072.00,95.71
1071.00,95.71
1070.00,95.72
1069.00,95.72
1068.00,95.74
1067.00,95.77
1066.00,95.83
1065.00,95.90
1064.00,95.96
1063.00,96.01
1062.00,96.06
1061.00,96.10
1060.00,96.15
1059.00,96.22
1058.00,96.29
1057.00,96.35
1056.00,96.38
1055.00,96.40
1054.00,96.45
1053.00,96.51
1052.00,96.57
1051.00,96.59
1050.00,96.59
1049.00,96.59
1048.00,96.61
1047.00,96.64
1046.00,96.67
1045.00,96.69
1044.00,96.69
1043.00,96.68
1042.00,96.66
1041.00,96.65
1040.00,96.63
1039.00,96.61
1038.00,96.60
1037.00,96.58
1036.00,96.57
1035.00,96.54
1034.00,96.49
1033.00,96.44
1032.00,96.37
1031.00,96.32
1030.00,96.28
1029.00,96.26
1028.00,96.27
1027.00,96.31
1026.00,96.37
1025.00,96.44
1024.00,96.49
1023.00,96.54
1022.00,96.58
1021.00,96.63
1020.00,96.68
1019.00,96.72
1018.00,96.75
1017.00,96.77
1016.00,96.77
1015.00,96.76
1014.00,96.77
1013.00,96.80
1012.00,96.84
1011.00,96.87
1010.00,96.88
1009.00,96.87
1008.00,96.87
1007.00,96.86
1006.00,96.85
1005.00,96.84
1004.00,96.83
1003.00,96.82
1002.00,96.83
1001.00,96.84
1000.00,96.85
999.00,96.86
998.00,96.87
997.00,96.87
996.00,96.85
995.00,96.83
994.00,96.79
993.00,96.75
992.00,96.71
991.00,96.67
990.00,96.65
989.00,96.63
988.00,96.60
987.00,96.55
986.00,96.50
985.00,96.45
984.00,96.41
983.00,96.40
982.00,96.38
981.00,96.36
980.00,96.33
979.00,96.30
978.00,96.27
977.00,96.24
976.00,96.22
975.00,96.20
974.00,96.19
973.00,96.18
972.00,96.17
971.00,96.16
970.00,96.13
969.00,96.10
968.00,96.07
967.00,96.05
966.00,96.02
965.00,95.98
964.00,95.91
963.00,95.81
962.00,95.70
961.00,95.61
960.00,95.55
959.00,95.53
958.00,95.55
957.00,95.61
956.00,95.67
955.00,95.73
954.00,95.78
953.00,95.81
952.00,95.82
951.00,95.85
950.00,95.90
949.00,95.96
948.00,96.02
947.00,96.10
946.00,96.18
945.00,96.26
944.00,96.35
943.00,96.43
942.00,96.51
941.00,96.58
940.00,96.62
939.00,96.61
938.00,96.57
937.00,96.51
936.00,96.45
935.00,96.42
934.00,96.39
933.00,96.35
932.00,96.27
931.00,96.18
930.00,96.12
929.00,96.08
928.00,96.07
927.00,96.09
926.00,96.15
925.00,96.23
924.00,96.34
923.00,96.45
922.00,96.54
921.00,96.61
920.00,96.65
919.00,96.66
918.00,96.65
917.00,96.66
916.00,96.67
915.00,96.69
914.00,96.71
913.00,96.75
912.00,96.79
911.00,96.85
910.00,96.89
909.00,96.90
908.00,96.90
907.00,96.90
906.00,96.89
905.00,96.90
904.00,96.91
903.00,96.93
902.00,96.94
901.00,96.95
900.00,96.97
899.00,96.99
898.00,97.00
897.00,96.99
896.00,96.98
895.00,96.97
894.00,96.98
893.00,97.00
892.00,97.02
891.00,97.03
890.00,97.04
889.00,97.03
888.00,97.02
887.00,97.01
886.00,97.00
885.00,97.00
884.00,97.00
883.00,97.00
882.00,96.98
881.00,96.97
880.00,96.97
879.00,96.99
878.00,97.03
877.00,97.05
876.00,97.04
875.00,97.00
874.00,96.95
873.00,96.93
872.00,96.92
871.00,96.94
870.00,96.98
869.00,97.02
868.00,97.06
867.00,97.09
866.00,97.10
865.00,97.10
864.00,97.08
863.00,97.06
862.00,97.03
861.00,97.01
860.00,97.01
859.00,97.01
858.00,97.00
857.00,97.00
856.00,97.00
855.00,96.99
854.00,96.97
853.00,96.96
852.00,96.95
851.00,96.94
850.00,96.94
849.00,96.96
848.00,96.98
847.00,97.00
846.00,97.00
845.00,96.98
844.00,96.93
843.00,96.87
842.00,96.81
841.00,96.76
840.00,96.71
839.00,96.66
838.00,96.57
837.00,96.47
836.00,96.37
835.00,96.28
834.00,96.21
833.00,96.17
832.00,96.16
831.00,96.19
830.00,96.26
829.00,96.35
828.00,96.44
827.00,96.50
826.00,96.54
825.00,96.57
824.00,96.60
823.00,96.61
822.00,96.61
821.00,96.61
820.00,96.60
819.00,96.61
818.00,96.60
817.00,96.56
816.00,96.49
815.00,96.41
814.00,96.32
813.00,96.28
812.00,96.29
811.00,96.32
810.00,96.33
809.00,96.30
808.00,96.27
807.00,96.26
806.00,96.27
805.00,96.26
804.00,96.21
803.00,96.12
802.00,96.02
801.00,95.93
800.00,95.88
799.00,95.87
798.00,95.90
797.00,95.93
796.00,95.94
795.00,95.92
794.00,95.88
793.00,95.84
792.00,95.82
791.00,95.81
790.00,95.80
789.00,95.77
788.00,95.71
787.00,95.64
786.00,95.58
785.00,95.54
784.00,95.52
783.00,95.51
782.00,95.49
781.00,95.45
780.00,95.39
779.00,95.33
778.00,95.27
777.00,95.22
776.00,95.17
775.00,95.13
774.00,95.10
773.00,95.07
772.00,95.05
771.00,95.02
770.00,94.97
769.00,94.92
768.00,94.87
767.00,94.83
766.00,94.79
765.00,94.76
764.00,94.73
763.00,94.69
762.00,94.65
761.00,94.60
760.00,94.52
759.00,94.45
758.00,94.39
757.00,94.34
756.00,94.28
755.00,94.22
754.00,94.17
753.00,94.12
752.00,94.07
751.00,94.00
750.00,93.88
749.00,93.72
748.00,93.56
747.00,93.45
746.00,93.42
745.00,93.42
744.00,93.40
743.00,93.35
742.00,93.27
741.00,93.15
740.00,93.00
739.00,92.83
738.00,92.63
737.00,92.40
736.00,92.15
735.00,91.85
734.00,91.51
733.00,91.14
732.00,90.78
731.00,90.47
730.00,90.26
729.00,90.16
728.00,90.13
727.00,90.16
726.00,90.23
725.00,90.33
724.00,90.40
723.00,90.44
722.00,90.43
721.00,90.39
720.00,90.34
719.00,90.28
718.00,90.22
717.00,90.17
716.00,90.11
715.00,90.05
714.00,89.99
713.00,89.94
712.00,89.88
711.00,89.81
710.00,89.73
709.00,89.65
708.00,89.55
707.00,89.46
706.00,89.37
705.00,89.27
704.00,89.16
703.00,89.03
702.00,88.89
701.00,88.72
700.00,88.53
699.00,88.32
698.00,88.13
697.00,87.94
696.00,87.73
695.00,87.51
694.00,87.29
693.00,87.08
692.00,86.88
691.00,86.68
690.00,86.49
689.00,86.33
688.00,86.24
687.00,86.24
686.00,86.28
685.00,86.30
684.00,86.27
683.00,86.23
682.00,86.21
681.00,86.22
680.00,86.25
679.00,86.29
678.00,86.31
677.00,86.32
676.00,86.35
675.00,86.43
674.00,86.56
673.00,86.70
672.00,86.82
671.00,86.93
670.00,87.06
669.00,87.21
668.00,87.34
667.00,87.41
666.00,87.44
665.00,87.50
664.00,87.59
663.00,87.72
662.00,87.87
661.00,87.99
660.00,88.07
659.00,88.12
658.00,88.18
657.00,88.27
656.00,88.36
655.00,88.47
654.00,88.63
653.00,88.82
652.00,88.97
651.00,89.04
650.00,89.05
649.00,89.07
648.00,89.12
647.00,89.16
646.00,89.18
645.00,89.19
644.00,89.21
643.00,89.24
642.00,89.28
641.00,89.33
640.00,89.42
639.00,89.55
638.00,89.65
637.00,89.67
636.00,89.67
635.00,89.71
634.00,89.81
633.00,89.92
632.00,90.02
631.00,90.09
630.00,90.10
629.00,90.03
628.00,89.90
627.00,89.82
626.00,89.87
625.00,90.03
624.00,90.19
623.00,90.33
622.00,90.49
621.00,90.66
620.00,90.74
619.00,90.60
618.00,90.23
617.00,89.77
616.00,89.32
615.00,88.95
614.00,88.73
613.00,88.79
612.00,89.16
611.00,89.65
610.00,89.95
609.00,89.92
608.00,89.74
607.00,89.65
606.00,89.72
605.00,89.81
604.00,89.78
603.00,89.58
602.00,89.27
601.00,88.95
600.00,88.71
599.00,88.63
598.00,88.69
597.00,88.81
596.00,88.90
595.00,88.90
594.00,88.71
593.00,88.29
592.00,87.80
591.00,87.50
590.00,87.45
589.00,87.49
588.00,87.47
587.00,87.39
586.00,87.25
585.00,86.99
584.00,86.73
583.00,86.73
582.00,87.01
581.00,87.20
580.00,87.00
579.00,86.57
578.00,86.16
577.00,85.67
576.00,84.95
575.00,84.30
574.00,84.16
573.00,84.44
572.00,84.73
571.00,84.84
570.00,84.92
569.00,85.12
568.00,85.39
567.00,85.55
566.00,85.51
565.00,85.44
564.00,85.63
563.00,86.20
562.00,86.80
561.00,86.98
560.00,86.74
559.00,86.60
558.00,86.87
557.00,87.32
556.00,87.49
555.00,87.29
554.00,86.85
553.00,86.39
552.00,85.94
551.00,85.79
550.00,86.09
