Created as New Dataset,81. Nylon Allied Signal Fibers
cm-1,%T
4000.00,99.02
3999.00,99.02
3998.00,99.02
3997.00,99.02
3996.00,99.01
3995.00,99.02
3994.00,99.03
3993.00,99.05
3992.00,99.06
3991.00,99.06
3990.00,99.05
3989.00,99.04
3988.00,99.03
3987.00,99.02
3986.00,99.02
3985.00,99.02
3984.00,99.02
3983.00,99.02
3982.00,99.03
3981.00,99.03
3980.00,99.04
3979.00,99.05
3978.00,99.06
3977.00,99.06
3976.00,99.04
3975.00,99.02
3974.00,99.00
3973.00,99.00
3972.00,99.02
3971.00,99.04
3970.00,99.06
3969.00,99.07
3968.00,99.08
3967.00,99.08
3966.00,99.09
3965.00,99.10
3964.00,99.10
3963.00,99.09
3962.00,99.08
3961.00,99.07
3960.00,99.08
3959.00,99.08
3958.00,99.07
3957.00,99.05
3956.00,99.04
3955.00,99.04
3954.00,99.06
3953.00,99.08
3952.00,99.09
3951.00,99.09
3950.00,99.07
3949.00,99.05
3948.00,99.04
3947.00,99.04
3946.00,99.05
3945.00,99.07
3944.00,99.08
3943.00,99.07
3942.00,99.06
3941.00,99.06
3940.00,99.07
3939.00,99.08
3938.00,99.09
3937.00,99.10
3936.00,99.11
3935.00,99.12
3934.00,99.13
3933.00,99.13
3932.00,99.13
3931.00,99.12
3930.00,99.12
3929.00,99.12
3928.00,99.12
3927.00,99.12
3926.00,99.12
3925.00,99.12
3924.00,99.12
3923.00,99.13
3922.00,99.14
3921.00,99.15
3920.00,99.15
3919.00,99.15
3918.00,99.14
3917.00,99.12
3916.00,99.09
3915.00,99.07
3914.00,99.06
3913.00,99.06
3912.00,99.07
3911.00,99.08
3910.00,99.09
3909.00,99.09
3908.00,99.10
3907.00,99.10
3906.00,99.09
3905.00,99.08
3904.00,99.07
3903.00,99.07
3902.00,99.08
3901.00,99.07
3900.00,99.03
3899.00,98.99
3898.00,98.96
3897.00,98.96
3896.00,98.98
3895.00,99.01
3894.00,99.03
3893.00,99.05
3892.00,99.05
3891.00,99.05
3890.00,99.07
3889.00,99.09
3888.00,99.11
3887.00,99.10
3886.00,99.07
3885.00,99.06
3884.00,99.09
3883.00,99.11
3882.00,99.12
3881.00,99.10
3880.00,99.08
3879.00,99.09
3878.00,99.10
3877.00,99.10
3876.00,99.08
3875.00,99.07
3874.00,99.08
3873.00,99.11
3872.00,99.12
3871.00,99.10
3870.00,99.05
3869.00,99.04
3868.00,99.06
3867.00,99.09
3866.00,99.09
3865.00,99.06
3864.00,99.04
3863.00,99.04
3862.00,99.06
3861.00,99.06
3860.00,99.06
3859.00,99.07
3858.00,99.10
3857.00,99.14
3856.00,99.18
3855.00,99.19
3854.00,99.18
3853.00,99.18
3852.00,99.22
3851.00,99.25
3850.00,99.21
3849.00,99.13
3848.00,99.08
3847.00,99.07
3846.00,99.09
3845.00,99.11
3844.00,99.12
3843.00,99.13
3842.00,99.15
3841.00,99.17
3840.00,99.19
3839.00,99.20
3838.00,99.19
3837.00,99.18
3836.00,99.18
3835.00,99.17
3834.00,99.15
3833.00,99.13
3832.00,99.10
3831.00,99.09
3830.00,99.08
3829.00,99.07
3828.00,99.05
3827.00,99.04
3826.00,99.04
3825.00,99.07
3824.00,99.09
3823.00,99.10
3822.00,99.09
3821.00,99.07
3820.00,99.08
3819.00,99.11
3818.00,99.12
3817.00,99.08
3816.00,99.03
3815.00,99.02
3814.00,99.03
3813.00,99.03
3812.00,98.99
3811.00,98.97
3810.00,98.98
3809.00,99.01
3808.00,99.04
3807.00,99.04
3806.00,99.05
3805.00,99.07
3804.00,99.09
3803.00,99.07
3802.00,99.04
3801.00,99.03
3800.00,99.06
3799.00,99.10
3798.00,99.10
3797.00,99.06
3796.00,99.01
3795.00,98.99
3794.00,98.99
3793.00,98.98
3792.00,98.97
3791.00,98.95
3790.00,98.94
3789.00,98.94
3788.00,98.95
3787.00,98.97
3786.00,98.99
3785.00,99.00
3784.00,99.00
3783.00,99.01
3782.00,99.01
3781.00,99.01
3780.00,99.00
3779.00,98.99
3778.00,98.99
3777.00,98.98
3776.00,98.95
3775.00,98.93
3774.00,98.93
3773.00,98.96
3772.00,98.99
3771.00,99.00
3770.00,98.99
3769.00,98.99
3768.00,99.00
3767.00,99.00
3766.00,99.00
3765.00,98.99
3764.00,99.00
3763.00,99.01
3762.00,99.00
3761.00,98.99
3760.00,98.97
3759.00,98.97
3758.00,98.98
3757.00,98.99
3756.00,99.00
3755.00,99.03
3754.00,99.06
3753.00,99.11
3752.00,99.12
3751.00,99.11
3750.00,99.08
3749.00,99.08
3748.00,99.11
3747.00,99.12
3746.00,99.10
3745.00,99.05
3744.00,99.02
3743.00,99.05
3742.00,99.09
3741.00,99.09
3740.00,99.05
3739.00,99.05
3738.00,99.09
3737.00,99.11
3736.00,99.09
3735.00,99.06
3734.00,99.04
3733.00,99.02
3732.00,99.00
3731.00,98.97
3730.00,98.96
3729.00,98.95
3728.00,98.94
3727.00,98.93
3726.00,98.96
3725.00,98.99
3724.00,99.02
3723.00,99.01
3722.00,98.99
3721.00,98.97
3720.00,98.97
3719.00,98.97
3718.00,98.97
3717.00,98.96
3716.00,98.96
3715.00,98.97
3714.00,98.99
3713.00,99.02
3712.00,99.04
3711.00,99.04
3710.00,99.02
3709.00,98.99
3708.00,98.94
3707.00,98.89
3706.00,98.86
3705.00,98.86
3704.00,98.88
3703.00,98.90
3702.00,98.92
3701.00,98.92
3700.00,98.92
3699.00,98.91
3698.00,98.90
3697.00,98.88
3696.00,98.88
3695.00,98.90
3694.00,98.92
3693.00,98.94
3692.00,98.96
3691.00,98.97
3690.00,98.96
3689.00,98.93
3688.00,98.92
3687.00,98.93
3686.00,98.93
3685.00,98.90
3684.00,98.85
3683.00,98.82
3682.00,98.82
3681.00,98.84
3680.00,98.87
3679.00,98.91
3678.00,98.94
3677.00,98.95
3676.00,98.93
3675.00,98.91
3674.00,98.94
3673.00,98.99
3672.00,99.00
3671.00,98.97
3670.00,98.94
3669.00,98.92
3668.00,98.90
3667.00,98.87
3666.00,98.82
3665.00,98.80
3664.00,98.82
3663.00,98.85
3662.00,98.86
3661.00,98.84
3660.00,98.82
3659.00,98.80
3658.00,98.80
3657.00,98.81
3656.00,98.82
3655.00,98.84
3654.00,98.86
3653.00,98.86
3652.00,98.85
3651.00,98.85
3650.00,98.87
3649.00,98.90
3648.00,98.91
3647.00,98.89
3646.00,98.84
3645.00,98.79
3644.00,98.75
3643.00,98.74
3642.00,98.74
3641.00,98.74
3640.00,98.74
3639.00,98.73
3638.00,98.74
3637.00,98.75
3636.00,98.76
3635.00,98.77
3634.00,98.78
3633.00,98.82
3632.00,98.87
3631.00,98.92
3630.00,98.94
3629.00,98.93
3628.00,98.92
3627.00,98.90
3626.00,98.87
3625.00,98.80
3624.00,98.76
3623.00,98.77
3622.00,98.78
3621.00,98.79
3620.00,98.77
3619.00,98.77
3618.00,98.79
3617.00,98.83
3616.00,98.85
3615.00,98.84
3614.00,98.81
3613.00,98.79
3612.00,98.79
3611.00,98.79
3610.00,98.77
3609.00,98.73
3608.00,98.69
3607.00,98.67
3606.00,98.66
3605.00,98.65
3604.00,98.64
3603.00,98.63
3602.00,98.63
3601.00,98.65
3600.00,98.67
3599.00,98.68
3598.00,98.69
3597.00,98.68
3596.00,98.65
3595.00,98.63
3594.00,98.61
3593.00,98.61
3592.00,98.62
3591.00,98.63
3590.00,98.64
3589.00,98.64
3588.00,98.64
3587.00,98.63
3586.00,98.61
3585.00,98.58
3584.00,98.54
3583.00,98.51
3582.00,98.50
3581.00,98.51
3580.00,98.53
3579.00,98.55
3578.00,98.56
3577.00,98.55
3576.00,98.54
3575.00,98.54
3574.00,98.54
3573.00,98.55
3572.00,98.56
3571.00,98.58
3570.00,98.59
3569.00,98.59
3568.00,98.57
3567.00,98.55
3566.00,98.53
3565.00,98.53
3564.00,98.51
3563.00,98.48
3562.00,98.44
3561.00,98.42
3560.00,98.41
3559.00,98.39
3558.00,98.37
3557.00,98.36
3556.00,98.35
3555.00,98.35
3554.00,98.34
3553.00,98.33
3552.00,98.33
3551.00,98.34
3550.00,98.34
3549.00,98.33
3548.00,98.32
3547.00,98.31
3546.00,98.31
3545.00,98.31
3544.00,98.31
3543.00,98.29
3542.00,98.24
3541.00,98.21
3540.00,98.18
3539.00,98.18
3538.00,98.19
3537.00,98.21
3536.00,98.23
3535.00,98.23
3534.00,98.22
3533.00,98.19
3532.00,98.18
3531.00,98.18
3530.00,98.20
3529.00,98.21
3528.00,98.20
3527.00,98.17
3526.00,98.13
3525.00,98.10
3524.00,98.08
3523.00,98.08
3522.00,98.08
3521.00,98.08
3520.00,98.08
3519.00,98.07
3518.00,98.05
3517.00,98.05
3516.00,98.04
3515.00,98.04
3514.00,98.03
3513.00,98.03
3512.00,98.03
3511.00,98.04
3510.00,98.05
3509.00,98.05
3508.00,98.05
3507.00,98.04
3506.00,98.03
3505.00,98.00
3504.00,97.98
3503.00,97.96
3502.00,97.94
3501.00,97.94
3500.00,97.94
3499.00,97.93
3498.00,97.92
3497.00,97.91
3496.00,97.90
3495.00,97.89
3494.00,97.88
3493.00,97.86
3492.00,97.83
3491.00,97.81
3490.00,97.80
3489.00,97.81
3488.00,97.84
3487.00,97.87
3486.00,97.88
3485.00,97.87
3484.00,97.85
3483.00,97.82
3482.00,97.81
3481.00,97.82
3480.00,97.84
3479.00,97.88
3478.00,97.90
3477.00,97.89
3476.00,97.86
3475.00,97.83
3474.00,97.83
3473.00,97.83
3472.00,97.84
3471.00,97.83
3470.00,97.81
3469.00,97.77
3468.00,97.74
3467.00,97.72
3466.00,97.72
3465.00,97.74
3464.00,97.75
3463.00,97.77
3462.00,97.78
3461.00,97.79
3460.00,97.79
3459.00,97.78
3458.00,97.77
3457.00,97.75
3456.00,97.73
3455.00,97.73
3454.00,97.73
3453.00,97.73
3452.00,97.73
3451.00,97.72
3450.00,97.72
3449.00,97.72
3448.00,97.72
3447.00,97.73
3446.00,97.73
3445.00,97.73
3444.00,97.70
3443.00,97.68
3442.00,97.66
3441.00,97.65
3440.00,97.66
3439.00,97.66
3438.00,97.65
3437.00,97.63
3436.00,97.60
3435.00,97.58
3434.00,97.57
3433.00,97.58
3432.00,97.59
3431.00,97.61
3430.00,97.63
3429.00,97.64
3428.00,97.65
3427.00,97.66
3426.00,97.66
3425.00,97.66
3424.00,97.66
3423.00,97.66
3422.00,97.66
3421.00,97.65
3420.00,97.63
3419.00,97.60
3418.00,97.58
3417.00,97.57
3416.00,97.56
3415.00,97.56
3414.00,97.56
3413.00,97.57
3412.00,97.58
3411.00,97.58
3410.00,97.56
3409.00,97.54
3408.00,97.52
3407.00,97.51
3406.00,97.49
3405.00,97.48
3404.00,97.46
3403.00,97.45
3402.00,97.45
3401.00,97.44
3400.00,97.42
3399.00,97.40
3398.00,97.39
3397.00,97.39
3396.00,97.41
3395.00,97.41
3394.00,97.41
3393.00,97.39
3392.00,97.37
3391.00,97.35
3390.00,97.33
3389.00,97.32
3388.00,97.32
3387.00,97.31
3386.00,97.29
3385.00,97.27
3384.00,97.25
3383.00,97.23
3382.00,97.22
3381.00,97.21
3380.00,97.20
3379.00,97.19
3378.00,97.17
3377.00,97.15
3376.00,97.13
3375.00,97.10
3374.00,97.07
3373.00,97.04
3372.00,97.01
3371.00,96.98
3370.00,96.97
3369.00,96.96
3368.00,96.94
3367.00,96.91
3366.00,96.87
3365.00,96.82
3364.00,96.77
3363.00,96.73
3362.00,96.70
3361.00,96.67
3360.00,96.63
3359.00,96.58
3358.00,96.52
3357.00,96.46
3356.00,96.41
3355.00,96.35
3354.00,96.29
3353.00,96.22
3352.00,96.14
3351.00,96.07
3350.00,96.01
3349.00,95.95
3348.00,95.90
3347.00,95.84
3346.00,95.77
3345.00,95.70
3344.00,95.64
3343.00,95.57
3342.00,95.49
3341.00,95.39
3340.00,95.29
3339.00,95.19
3338.00,95.10
3337.00,95.00
3336.00,94.90
3335.00,94.78
3334.00,94.67
3333.00,94.55
3332.00,94.45
3331.00,94.35
3330.00,94.25
3329.00,94.14
3328.00,94.01
3327.00,93.87
3326.00,93.71
3325.00,93.55
3324.00,93.38
3323.00,93.23
3322.00,93.07
3321.00,92.93
3320.00,92.78
3319.00,92.63
3318.00,92.47
3317.00,92.30
3316.00,92.12
3315.00,91.95
3314.00,91.78
3313.00,91.61
3312.00,91.44
3311.00,91.26
3310.00,91.08
3309.00,90.91
3308.00,90.75
3307.00,90.60
3306.00,90.44
3305.00,90.27
3304.00,90.10
3303.00,89.95
3302.00,89.84
3301.00,89.75
3300.00,89.67
3299.00,89.61
3298.00,89.56
3297.00,89.54
3296.00,89.54
3295.00,89.55
3294.00,89.57
3293.00,89.59
3292.00,89.63
3291.00,89.68
3290.00,89.75
3289.00,89.83
3288.00,89.92
3287.00,90.01
3286.00,90.08
3285.00,90.16
3284.00,90.24
3283.00,90.32
3282.00,90.41
3281.00,90.50
3280.00,90.59
3279.00,90.67
3278.00,90.74
3277.00,90.82
3276.00,90.89
3275.00,90.96
3274.00,91.04
3273.00,91.12
3272.00,91.21
3271.00,91.31
3270.00,91.42
3269.00,91.52
3268.00,91.62
3267.00,91.72
3266.00,91.80
3265.00,91.88
3264.00,91.97
3263.00,92.06
3262.00,92.17
3261.00,92.30
3260.00,92.43
3259.00,92.56
3258.00,92.68
3257.00,92.79
3256.00,92.90
3255.00,92.99
3254.00,93.07
3253.00,93.15
3252.00,93.24
3251.00,93.36
3250.00,93.51
3249.00,93.64
3248.00,93.76
3247.00,93.86
3246.00,93.95
3245.00,94.04
3244.00,94.14
3243.00,94.23
3242.00,94.31
3241.00,94.40
3240.00,94.48
3239.00,94.57
3238.00,94.64
3237.00,94.69
3236.00,94.75
3235.00,94.80
3234.00,94.87
3233.00,94.95
3232.00,95.02
3231.00,95.08
3230.00,95.13
3229.00,95.18
3228.00,95.24
3227.00,95.30
3226.00,95.35
3225.00,95.40
3224.00,95.45
3223.00,95.49
3222.00,95.53
3221.00,95.57
3220.00,95.60
3219.00,95.64
3218.00,95.67
3217.00,95.70
3216.00,95.72
3215.00,95.74
3214.00,95.75
3213.00,95.77
3212.00,95.79
3211.00,95.82
3210.00,95.86
3209.00,95.89
3208.00,95.91
3207.00,95.93
3206.00,95.94
3205.00,95.96
3204.00,95.99
3203.00,96.03
3202.00,96.06
3201.00,96.09
3200.00,96.12
3199.00,96.15
3198.00,96.16
3197.00,96.17
3196.00,96.17
3195.00,96.18
3194.00,96.21
3193.00,96.24
3192.00,96.27
3191.00,96.31
3190.00,96.33
3189.00,96.36
3188.00,96.39
3187.00,96.42
3186.00,96.46
3185.00,96.50
3184.00,96.53
3183.00,96.53
3182.00,96.53
3181.00,96.55
3180.00,96.58
3179.00,96.64
3178.00,96.69
3177.00,96.74
3176.00,96.79
3175.00,96.83
3174.00,96.86
3173.00,96.88
3172.00,96.89
3171.00,96.90
3170.00,96.91
3169.00,96.93
3168.00,96.96
3167.00,97.00
3166.00,97.05
3165.00,97.11
3164.00,97.16
3163.00,97.20
3162.00,97.21
3161.00,97.22
3160.00,97.23
3159.00,97.26
3158.00,97.28
3157.00,97.29
3156.00,97.29
3155.00,97.30
3154.00,97.32
3153.00,97.34
3152.00,97.36
3151.00,97.38
3150.00,97.38
3149.00,97.39
3148.00,97.39
3147.00,97.39
3146.00,97.39
3145.00,97.38
3144.00,97.37
3143.00,97.39
3142.00,97.41
3141.00,97.42
3140.00,97.42
3139.00,97.41
3138.00,97.39
3137.00,97.37
3136.00,97.36
3135.00,97.36
3134.00,97.36
3133.00,97.37
3132.00,97.38
3131.00,97.39
3130.00,97.38
3129.00,97.38
3128.00,97.38
3127.00,97.38
3126.00,97.37
3125.00,97.36
3124.00,97.35
3123.00,97.33
3122.00,97.31
3121.00,97.30
3120.00,97.28
3119.00,97.26
3118.00,97.23
3117.00,97.22
3116.00,97.20
3115.00,97.18
3114.00,97.15
3113.00,97.12
3112.00,97.09
3111.00,97.06
3110.00,97.01
3109.00,96.96
3108.00,96.90
3107.00,96.86
3106.00,96.84
3105.00,96.81
3104.00,96.79
3103.00,96.76
3102.00,96.71
3101.00,96.66
3100.00,96.62
3099.00,96.58
3098.00,96.54
3097.00,96.50
3096.00,96.46
3095.00,96.41
3094.00,96.37
3093.00,96.35
3092.00,96.34
3091.00,96.34
3090.00,96.35
3089.00,96.33
3088.00,96.30
3087.00,96.28
3086.00,96.26
3085.00,96.25
3084.00,96.24
3083.00,96.23
3082.00,96.21
3081.00,96.20
3080.00,96.19
3079.00,96.19
3078.00,96.19
3077.00,96.19
3076.00,96.20
3075.00,96.22
3074.00,96.23
3073.00,96.24
3072.00,96.26
3071.00,96.28
3070.00,96.31
3069.00,96.35
3068.00,96.39
3067.00,96.44
3066.00,96.48
3065.00,96.51
3064.00,96.54
3063.00,96.56
3062.00,96.57
3061.00,96.59
3060.00,96.62
3059.00,96.66
3058.00,96.71
3057.00,96.76
3056.00,96.82
3055.00,96.87
3054.00,96.92
3053.00,96.95
3052.00,96.98
3051.00,97.01
3050.00,97.05
3049.00,97.09
3048.00,97.14
3047.00,97.19
3046.00,97.24
3045.00,97.30
3044.00,97.35
3043.00,97.40
3042.00,97.43
3041.00,97.44
3040.00,97.45
3039.00,97.47
3038.00,97.51
3037.00,97.55
3036.00,97.61
3035.00,97.65
3034.00,97.68
3033.00,97.70
3032.00,97.72
3031.00,97.72
3030.00,97.73
3029.00,97.73
3028.00,97.74
3027.00,97.75
3026.00,97.77
3025.00,97.79
3024.00,97.82
3023.00,97.84
3022.00,97.86
3021.00,97.86
3020.00,97.87
3019.00,97.87
3018.00,97.87
3017.00,97.88
3016.00,97.89
3015.00,97.89
3014.00,97.89
3013.00,97.89
3012.00,97.89
3011.00,97.89
3010.00,97.89
3009.00,97.89
3008.00,97.90
3007.00,97.91
3006.00,97.92
3005.00,97.92
3004.00,97.91
3003.00,97.90
3002.00,97.90
3001.00,97.90
3000.00,97.91
2999.00,97.92
2998.00,97.93
2997.00,97.93
2996.00,97.91
2995.00,97.89
2994.00,97.86
2993.00,97.85
2992.00,97.82
2991.00,97.79
2990.00,97.74
2989.00,97.70
2988.00,97.67
2987.00,97.65
2986.00,97.63
2985.00,97.61
2984.00,97.57
2983.00,97.51
2982.00,97.44
2981.00,97.37
2980.00,97.31
2979.00,97.25
2978.00,97.18
2977.00,97.11
2976.00,97.03
2975.00,96.94
2974.00,96.84
2973.00,96.73
2972.00,96.63
2971.00,96.53
2970.00,96.42
2969.00,96.31
2968.00,96.19
2967.00,96.06
2966.00,95.92
2965.00,95.77
2964.00,95.62
2963.00,95.47
2962.00,95.32
2961.00,95.15
2960.00,94.98
2959.00,94.81
2958.00,94.62
2957.00,94.43
2956.00,94.23
2955.00,94.02
2954.00,93.81
2953.00,93.59
2952.00,93.35
2951.00,93.09
2950.00,92.82
2949.00,92.56
2948.00,92.31
2947.00,92.08
2946.00,91.86
2945.00,91.66
2944.00,91.46
2943.00,91.29
2942.00,91.12
2941.00,90.95
2940.00,90.79
2939.00,90.65
2938.00,90.53
2937.00,90.45
2936.00,90.38
2935.00,90.33
2934.00,90.30
2933.00,90.29
2932.00,90.30
2931.00,90.33
2930.00,90.36
2929.00,90.40
2928.00,90.44
2927.00,90.49
2926.00,90.56
2925.00,90.66
2924.00,90.78
2923.00,90.93
2922.00,91.09
2921.00,91.26
2920.00,91.43
2919.00,91.59
2918.00,91.76
2917.00,91.93
2916.00,92.09
2915.00,92.24
2914.00,92.40
2913.00,92.56
2912.00,92.72
2911.00,92.87
2910.00,92.99
2909.00,93.10
2908.00,93.21
2907.00,93.31
2906.00,93.42
2905.00,93.52
2904.00,93.62
2903.00,93.71
2902.00,93.79
2901.00,93.86
2900.00,93.92
2899.00,93.98
2898.00,94.05
2897.00,94.13
2896.00,94.22
2895.00,94.32
2894.00,94.42
2893.00,94.52
2892.00,94.60
2891.00,94.68
2890.00,94.75
2889.00,94.80
2888.00,94.84
2887.00,94.87
2886.00,94.89
2885.00,94.90
2884.00,94.88
2883.00,94.83
2882.00,94.75
2881.00,94.65
2880.00,94.53
2879.00,94.41
2878.00,94.28
2877.00,94.14
2876.00,93.97
2875.00,93.79
2874.00,93.60
2873.00,93.43
2872.00,93.27
2871.00,93.13
2870.00,93.01
2869.00,92.89
2868.00,92.77
2867.00,92.67
2866.00,92.58
2865.00,92.50
2864.00,92.42
2863.00,92.36
2862.00,92.32
2861.00,92.31
2860.00,92.32
2859.00,92.36
2858.00,92.42
2857.00,92.50
2856.00,92.61
2855.00,92.74
2854.00,92.89
2853.00,93.07
2852.00,93.28
2851.00,93.52
2850.00,93.78
2849.00,94.07
2848.00,94.36
2847.00,94.66
2846.00,94.95
2845.00,95.23
2844.00,95.50
2843.00,95.74
2842.00,95.96
2841.00,96.15
2840.00,96.31
2839.00,96.45
2838.00,96.57
2837.00,96.68
2836.00,96.78
2835.00,96.86
2834.00,96.91
2833.00,96.96
2832.00,97.01
2831.00,97.06
2830.00,97.11
2829.00,97.16
2828.00,97.19
2827.00,97.21
2826.00,97.23
2825.00,97.26
2824.00,97.28
2823.00,97.31
2822.00,97.33
2821.00,97.35
2820.00,97.37
2819.00,97.40
2818.00,97.42
2817.00,97.43
2816.00,97.45
2815.00,97.47
2814.00,97.50
2813.00,97.53
2812.00,97.57
2811.00,97.60
2810.00,97.63
2809.00,97.64
2808.00,97.65
2807.00,97.65
2806.00,97.65
2805.00,97.66
2804.00,97.68
2803.00,97.71
2802.00,97.73
2801.00,97.75
2800.00,97.77
2799.00,97.78
2798.00,97.80
2797.00,97.81
2796.00,97.82
2795.00,97.83
2794.00,97.85
2793.00,97.86
2792.00,97.87
2791.00,97.86
2790.00,97.86
2789.00,97.86
2788.00,97.88
2787.00,97.89
2786.00,97.91
2785.00,97.93
2784.00,97.95
2783.00,97.97
2782.00,97.98
2781.00,97.99
2780.00,98.00
2779.00,98.01
2778.00,98.01
2777.00,98.02
2776.00,98.02
2775.00,98.03
2774.00,98.04
2773.00,98.06
2772.00,98.08
2771.00,98.10
2770.00,98.11
2769.00,98.11
2768.00,98.10
2767.00,98.08
2766.00,98.07
2765.00,98.06
2764.00,98.06
2763.00,98.07
2762.00,98.08
2761.00,98.10
2760.00,98.11
2759.00,98.12
2758.00,98.12
2757.00,98.11
2756.00,98.10
2755.00,98.09
2754.00,98.10
2753.00,98.11
2752.00,98.12
2751.00,98.12
2750.00,98.13
2749.00,98.14
2748.00,98.15
2747.00,98.15
2746.00,98.15
2745.00,98.14
2744.00,98.14
2743.00,98.14
2742.00,98.15
2741.00,98.16
2740.00,98.17
2739.00,98.18
2738.00,98.17
2737.00,98.17
2736.00,98.16
2735.00,98.16
2734.00,98.16
2733.00,98.18
2732.00,98.19
2731.00,98.20
2730.00,98.19
2729.00,98.19
2728.00,98.20
2727.00,98.21
2726.00,98.22
2725.00,98.23
2724.00,98.24
2723.00,98.24
2722.00,98.25
2721.00,98.24
2720.00,98.23
2719.00,98.22
2718.00,98.23
2717.00,98.24
2716.00,98.25
2715.00,98.25
2714.00,98.25
2713.00,98.24
2712.00,98.24
2711.00,98.25
2710.00,98.27
2709.00,98.29
2708.00,98.31
2707.00,98.32
2706.00,98.33
2705.00,98.32
2704.00,98.32
2703.00,98.31
2702.00,98.30
2701.00,98.29
2700.00,98.29
2699.00,98.29
2698.00,98.30
2697.00,98.31
2696.00,98.31
2695.00,98.32
2694.00,98.31
2693.00,98.31
2692.00,98.32
2691.00,98.34
2690.00,98.35
2689.00,98.35
2688.00,98.35
2687.00,98.35
2686.00,98.36
2685.00,98.38
2684.00,98.39
2683.00,98.39
2682.00,98.40
2681.00,98.39
2680.00,98.39
2679.00,98.38
2678.00,98.37
2677.00,98.37
2676.00,98.38
2675.00,98.39
2674.00,98.39
2673.00,98.38
2672.00,98.38
2671.00,98.37
2670.00,98.37
2669.00,98.38
2668.00,98.38
2667.00,98.38
2666.00,98.36
2665.00,98.35
2664.00,98.35
2663.00,98.36
2662.00,98.37
2661.00,98.37
2660.00,98.35
2659.00,98.34
2658.00,98.32
2657.00,98.32
2656.00,98.32
2655.00,98.33
2654.00,98.34
2653.00,98.34
2652.00,98.34
2651.00,98.33
2650.00,98.33
2649.00,98.32
2648.00,98.31
2647.00,98.31
2646.00,98.30
2645.00,98.29
2644.00,98.27
2643.00,98.25
2642.00,98.25
2641.00,98.25
2640.00,98.26
2639.00,98.27
2638.00,98.27
2637.00,98.27
2636.00,98.26
2635.00,98.26
2634.00,98.25
2633.00,98.26
2632.00,98.27
2631.00,98.28
2630.00,98.28
2629.00,98.28
2628.00,98.26
2627.00,98.25
2626.00,98.24
2625.00,98.24
2624.00,98.23
2623.00,98.22
2622.00,98.21
2621.00,98.19
2620.00,98.19
2619.00,98.19
2618.00,98.19
2617.00,98.20
2616.00,98.21
2615.00,98.21
2614.00,98.23
2613.00,98.23
2612.00,98.24
2611.00,98.24
2610.00,98.24
2609.00,98.23
2608.00,98.21
2607.00,98.20
2606.00,98.19
2605.00,98.19
2604.00,98.19
2603.00,98.19
2602.00,98.18
2601.00,98.18
2600.00,98.18
2599.00,98.20
2598.00,98.22
2597.00,98.22
2596.00,98.21
2595.00,98.20
2594.00,98.20
2593.00,98.21
2592.00,98.20
2591.00,98.19
2590.00,98.16
2589.00,98.16
2588.00,98.17
2587.00,98.18
2586.00,98.20
2585.00,98.21
2584.00,98.20
2583.00,98.19
2582.00,98.17
2581.00,98.14
2580.00,98.12
2579.00,98.11
2578.00,98.11
2577.00,98.13
2576.00,98.15
2575.00,98.16
2574.00,98.17
2573.00,98.17
2572.00,98.18
2571.00,98.19
2570.00,98.18
2569.00,98.15
2568.00,98.12
2567.00,98.11
2566.00,98.12
2565.00,98.12
2564.00,98.12
2563.00,98.12
2562.00,98.12
2561.00,98.14
2560.00,98.15
2559.00,98.15
2558.00,98.14
2557.00,98.12
2556.00,98.11
2555.00,98.11
2554.00,98.12
2553.00,98.13
2552.00,98.14
2551.00,98.16
2550.00,98.18
2549.00,98.19
2548.00,98.19
2547.00,98.18
2546.00,98.17
2545.00,98.17
2544.00,98.17
2543.00,98.16
2542.00,98.15
2541.00,98.14
2540.00,98.14
2539.00,98.13
2538.00,98.12
2537.00,98.10
2536.00,98.07
2535.00,98.07
2534.00,98.09
2533.00,98.11
2532.00,98.13
2531.00,98.12
2530.00,98.11
2529.00,98.10
2528.00,98.11
2527.00,98.12
2526.00,98.14
2525.00,98.15
2524.00,98.15
2523.00,98.15
2522.00,98.15
2521.00,98.15
2520.00,98.15
2519.00,98.15
2518.00,98.16
2517.00,98.16
2516.00,98.18
2515.00,98.19
2514.00,98.20
2513.00,98.22
2512.00,98.23
2511.00,98.23
2510.00,98.21
2509.00,98.19
2508.00,98.17
2507.00,98.17
2506.00,98.18
2505.00,98.19
2504.00,98.20
2503.00,98.22
2502.00,98.23
2501.00,98.25
2500.00,98.25
2499.00,98.24
2498.00,98.21
2497.00,98.17
2496.00,98.14
2495.00,98.14
2494.00,98.14
2493.00,98.16
2492.00,98.17
2491.00,98.17
2490.00,98.17
2489.00,98.17
2488.00,98.18
2487.00,98.20
2486.00,98.22
2485.00,98.22
2484.00,98.22
2483.00,98.21
2482.00,98.20
2481.00,98.19
2480.00,98.18
2479.00,98.17
2478.00,98.15
2477.00,98.14
2476.00,98.14
2475.00,98.15
2474.00,98.16
2473.00,98.16
2472.00,98.16
2471.00,98.16
2470.00,98.16
2469.00,98.17
2468.00,98.17
2467.00,98.16
2466.00,98.16
2465.00,98.17
2464.00,98.18
2463.00,98.19
2462.00,98.19
2461.00,98.19
2460.00,98.19
2459.00,98.18
2458.00,98.17
2457.00,98.15
2456.00,98.14
2455.00,98.14
2454.00,98.14
2453.00,98.13
2452.00,98.12
2451.00,98.11
2450.00,98.12
2449.00,98.14
2448.00,98.17
2447.00,98.18
2446.00,98.19
2445.00,98.19
2444.00,98.18
2443.00,98.18
2442.00,98.18
2441.00,98.19
2440.00,98.20
2439.00,98.20
2438.00,98.20
2437.00,98.20
2436.00,98.20
2435.00,98.19
2434.00,98.19
2433.00,98.18
2432.00,98.19
2431.00,98.20
2430.00,98.22
2429.00,98.23
2428.00,98.23
2427.00,98.22
2426.00,98.20
2425.00,98.20
2424.00,98.22
2423.00,98.24
2422.00,98.26
2421.00,98.26
2420.00,98.24
2419.00,98.23
2418.00,98.22
2417.00,98.22
2416.00,98.21
2415.00,98.21
2414.00,98.20
2413.00,98.21
2412.00,98.23
2411.00,98.25
2410.00,98.25
2409.00,98.26
2408.00,98.27
2407.00,98.28
2406.00,98.28
2405.00,98.27
2404.00,98.26
2403.00,98.26
2402.00,98.27
2401.00,98.28
2400.00,98.30
2399.00,98.31
2398.00,98.30
2397.00,98.30
2396.00,98.31
2395.00,98.33
2394.00,98.37
2393.00,98.38
2392.00,98.37
2391.00,98.34
2390.00,98.31
2389.00,98.29
2388.00,98.29
2387.00,98.30
2386.00,98.32
2385.00,98.34
2384.00,98.34
2383.00,98.36
2382.00,98.39
2381.00,98.43
2380.00,98.47
2379.00,98.51
2378.00,98.55
2377.00,98.59
2376.00,98.63
2375.00,98.66
2374.00,98.68
2373.00,98.69
2372.00,98.68
2371.00,98.65
2370.00,98.60
2369.00,98.58
2368.00,98.61
2367.00,98.74
2366.00,98.90
2365.00,99.01
2364.00,99.03
2363.00,98.95
2362.00,98.83
2361.00,98.71
2360.00,98.66
2359.00,98.68
2358.00,98.72
2357.00,98.70
2356.00,98.63
2355.00,98.58
2354.00,98.59
2353.00,98.63
2352.00,98.66
2351.00,98.68
2350.00,98.71
2349.00,98.72
2348.00,98.71
2347.00,98.70
2346.00,98.71
2345.00,98.76
2344.00,98.82
2343.00,98.87
2342.00,98.88
2341.00,98.88
2340.00,98.87
2339.00,98.85
2338.00,98.80
2337.00,98.76
2336.00,98.73
2335.00,98.71
2334.00,98.67
2333.00,98.63
2332.00,98.59
2331.00,98.57
2330.00,98.56
2329.00,98.54
2328.00,98.51
2327.00,98.49
2326.00,98.50
2325.00,98.50
2324.00,98.48
2323.00,98.44
2322.00,98.40
2321.00,98.38
2320.00,98.39
2319.00,98.39
2318.00,98.39
2317.00,98.38
2316.00,98.37
2315.00,98.36
2314.00,98.37
2313.00,98.38
2312.00,98.39
2311.00,98.40
2310.00,98.39
2309.00,98.37
2308.00,98.34
2307.00,98.31
2306.00,98.30
2305.00,98.31
2304.00,98.33
2303.00,98.33
2302.00,98.32
2301.00,98.31
2300.00,98.31
2299.00,98.30
2298.00,98.29
2297.00,98.26
2296.00,98.23
2295.00,98.21
2294.00,98.20
2293.00,98.19
2292.00,98.19
2291.00,98.18
2290.00,98.16
2289.00,98.12
2288.00,98.07
2287.00,98.03
2286.00,98.00
2285.00,97.96
2284.00,97.94
2283.00,97.92
2282.00,97.92
2281.00,97.92
2280.00,97.92
2279.00,97.94
2278.00,97.95
2277.00,97.94
2276.00,97.92
2275.00,97.90
2274.00,97.89
2273.00,97.88
2272.00,97.89
2271.00,97.90
2270.00,97.90
2269.00,97.89
2268.00,97.87
2267.00,97.85
2266.00,97.83
2265.00,97.82
2264.00,97.82
2263.00,97.81
2262.00,97.78
2261.00,97.74
2260.00,97.70
2259.00,97.68
2258.00,97.69
2257.00,97.70
2256.00,97.73
2255.00,97.75
2254.00,97.78
2253.00,97.79
2252.00,97.78
2251.00,97.76
2250.00,97.74
2249.00,97.73
2248.00,97.72
2247.00,97.72
2246.00,97.73
2245.00,97.75
2244.00,97.79
2243.00,97.80
2242.00,97.79
2241.00,97.76
2240.00,97.72
2239.00,97.70
2238.00,97.69
2237.00,97.70
2236.00,97.70
2235.00,97.70
2234.00,97.69
2233.00,97.66
2232.00,97.61
2231.00,97.56
2230.00,97.51
2229.00,97.49
2228.00,97.47
2227.00,97.44
2226.00,97.41
2225.00,97.37
2224.00,97.37
2223.00,97.38
2222.00,97.40
2221.00,97.41
2220.00,97.39
2219.00,97.38
2218.00,97.40
2217.00,97.45
2216.00,97.49
2215.00,97.50
2214.00,97.49
2213.00,97.47
2212.00,97.43
2211.00,97.38
2210.00,97.33
2209.00,97.31
2208.00,97.32
2207.00,97.36
2206.00,97.36
2205.00,97.35
2204.00,97.34
2203.00,97.36
2202.00,97.41
2201.00,97.45
2200.00,97.45
2199.00,97.42
2198.00,97.38
2197.00,97.34
2196.00,97.29
2195.00,97.25
2194.00,97.23
2193.00,97.21
2192.00,97.20
2191.00,97.19
2190.00,97.18
2189.00,97.16
2188.00,97.16
2187.00,97.16
2186.00,97.16
2185.00,97.16
2184.00,97.16
2183.00,97.16
2182.00,97.15
2181.00,97.12
2180.00,97.07
2179.00,97.04
2178.00,97.05
2177.00,97.10
2176.00,97.18
2175.00,97.24
2174.00,97.26
2173.00,97.23
2172.00,97.17
2171.00,97.11
2170.00,97.05
2169.00,97.01
2168.00,96.99
2167.00,97.01
2166.00,97.03
2165.00,97.02
2164.00,96.95
2163.00,96.84
2162.00,96.77
2161.00,96.80
2160.00,96.93
2159.00,97.08
2158.00,97.15
2157.00,97.08
2156.00,96.98
2155.00,96.94
2154.00,97.01
2153.00,97.14
2152.00,97.26
2151.00,97.32
2150.00,97.33
2149.00,97.35
2148.00,97.40
2147.00,97.46
2146.00,97.49
2145.00,97.49
2144.00,97.49
2143.00,97.48
2142.00,97.48
2141.00,97.49
2140.00,97.50
2139.00,97.52
2138.00,97.55
2137.00,97.59
2136.00,97.65
2135.00,97.69
2134.00,97.70
2133.00,97.67
2132.00,97.63
2131.00,97.61
2130.00,97.61
2129.00,97.65
2128.00,97.72
2127.00,97.78
2126.00,97.82
2125.00,97.82
2124.00,97.79
2123.00,97.76
2122.00,97.75
2121.00,97.75
2120.00,97.76
2119.00,97.76
2118.00,97.74
2117.00,97.72
2116.00,97.71
2115.00,97.72
2114.00,97.74
2113.00,97.75
2112.00,97.76
2111.00,97.78
2110.00,97.79
2109.00,97.80
2108.00,97.80
2107.00,97.79
2106.00,97.78
2105.00,97.77
2104.00,97.76
2103.00,97.76
2102.00,97.77
2101.00,97.78
2100.00,97.78
2099.00,97.78
2098.00,97.77
2097.00,97.77
2096.00,97.79
2095.00,97.81
2094.00,97.83
2093.00,97.81
2092.00,97.78
2091.00,97.74
2090.00,97.72
2089.00,97.71
2088.00,97.73
2087.00,97.75
2086.00,97.78
2085.00,97.80
2084.00,97.80
2083.00,97.79
2082.00,97.76
2081.00,97.73
2080.00,97.71
2079.00,97.71
2078.00,97.72
2077.00,97.70
2076.00,97.68
2075.00,97.66
2074.00,97.67
2073.00,97.68
2072.00,97.68
2071.00,97.67
2070.00,97.65
2069.00,97.66
2068.00,97.69
2067.00,97.71
2066.00,97.68
2065.00,97.61
2064.00,97.53
2063.00,97.50
2062.00,97.53
2061.00,97.58
2060.00,97.61
2059.00,97.62
2058.00,97.62
2057.00,97.63
2056.00,97.63
2055.00,97.61
2054.00,97.57
2053.00,97.51
2052.00,97.44
2051.00,97.38
2050.00,97.32
2049.00,97.27
2048.00,97.24
2047.00,97.25
2046.00,97.28
2045.00,97.31
2044.00,97.28
2043.00,97.22
2042.00,97.16
2041.00,97.14
2040.00,97.17
2039.00,97.20
2038.00,97.19
2037.00,97.13
2036.00,97.07
2035.00,97.04
2034.00,97.06
2033.00,97.11
2032.00,97.15
2031.00,97.18
2030.00,97.18
2029.00,97.16
2028.00,97.12
2027.00,97.11
2026.00,97.11
2025.00,97.12
2024.00,97.14
2023.00,97.18
2022.00,97.24
2021.00,97.30
2020.00,97.34
2019.00,97.34
2018.00,97.29
2017.00,97.23
2016.00,97.20
2015.00,97.22
2014.00,97.25
2013.00,97.24
2012.00,97.20
2011.00,97.17
2010.00,97.17
2009.00,97.22
2008.00,97.30
2007.00,97.39
2006.00,97.48
2005.00,97.54
2004.00,97.57
2003.00,97.56
2002.00,97.52
2001.00,97.46
2000.00,97.40
1999.00,97.38
1998.00,97.40
1997.00,97.43
1996.00,97.46
1995.00,97.46
1994.00,97.44
1993.00,97.42
1992.00,97.43
1991.00,97.47
1990.00,97.49
1989.00,97.47
1988.00,97.42
1987.00,97.34
1986.00,97.27
1985.00,97.24
1984.00,97.23
1983.00,97.24
1982.00,97.25
1981.00,97.26
1980.00,97.26
1979.00,97.28
1978.00,97.29
1977.00,97.29
1976.00,97.27
1975.00,97.26
1974.00,97.25
1973.00,97.25
1972.00,97.25
1971.00,97.26
1970.00,97.30
1969.00,97.34
1968.00,97.36
1967.00,97.38
1966.00,97.38
1965.00,97.39
1964.00,97.40
1963.00,97.43
1962.00,97.49
1961.00,97.57
1960.00,97.64
1959.00,97.68
1958.00,97.69
1957.00,97.70
1956.00,97.71
1955.00,97.72
1954.00,97.70
1953.00,97.67
1952.00,97.66
1951.00,97.67
1950.00,97.70
1949.00,97.73
1948.00,97.75
1947.00,97.77
1946.00,97.80
1945.00,97.81
1944.00,97.80
1943.00,97.79
1942.00,97.78
1941.00,97.80
1940.00,97.82
1939.00,97.86
1938.00,97.89
1937.00,97.89
1936.00,97.87
1935.00,97.85
1934.00,97.84
1933.00,97.85
1932.00,97.88
1931.00,97.92
1930.00,97.94
1929.00,97.95
1928.00,97.95
1927.00,97.94
1926.00,97.93
1925.00,97.93
1924.00,97.94
1923.00,97.97
1922.00,98.01
1921.00,98.03
1920.00,98.02
1919.00,97.99
1918.00,97.97
1917.00,97.98
1916.00,98.00
1915.00,98.02
1914.00,98.02
1913.00,98.01
1912.00,97.99
1911.00,97.99
1910.00,97.99
1909.00,97.99
1908.00,98.00
1907.00,98.02
1906.00,98.04
1905.00,98.06
1904.00,98.06
1903.00,98.05
1902.00,98.05
1901.00,98.06
1900.00,98.09
1899.00,98.12
1898.00,98.13
1897.00,98.13
1896.00,98.11
1895.00,98.10
1894.00,98.09
1893.00,98.09
1892.00,98.11
1891.00,98.11
1890.00,98.10
1889.00,98.08
1888.00,98.09
1887.00,98.12
1886.00,98.15
1885.00,98.17
1884.00,98.16
1883.00,98.14
1882.00,98.13
1881.00,98.13
1880.00,98.12
1879.00,98.13
1878.00,98.15
1877.00,98.17
1876.00,98.20
1875.00,98.21
1874.00,98.21
1873.00,98.20
1872.00,98.19
1871.00,98.19
1870.00,98.19
1869.00,98.18
1868.00,98.19
1867.00,98.19
1866.00,98.19
1865.00,98.19
1864.00,98.20
1863.00,98.20
1862.00,98.21
1861.00,98.22
1860.00,98.22
1859.00,98.22
1858.00,98.20
1857.00,98.18
1856.00,98.18
1855.00,98.19
1854.00,98.21
1853.00,98.22
1852.00,98.22
1851.00,98.23
1850.00,98.24
1849.00,98.25
1848.00,98.26
1847.00,98.27
1846.00,98.27
1845.00,98.28
1844.00,98.28
1843.00,98.29
1842.00,98.28
1841.00,98.26
1840.00,98.26
1839.00,98.27
1838.00,98.29
1837.00,98.31
1836.00,98.32
1835.00,98.33
1834.00,98.34
1833.00,98.34
1832.00,98.34
1831.00,98.31
1830.00,98.28
1829.00,98.27
1828.00,98.27
1827.00,98.28
1826.00,98.27
1825.00,98.27
1824.00,98.27
1823.00,98.28
1822.00,98.30
1821.00,98.33
1820.00,98.35
1819.00,98.36
1818.00,98.38
1817.00,98.38
1816.00,98.38
1815.00,98.38
1814.00,98.39
1813.00,98.38
1812.00,98.38
1811.00,98.38
1810.00,98.38
1809.00,98.38
1808.00,98.38
1807.00,98.37
1806.00,98.36
1805.00,98.37
1804.00,98.37
1803.00,98.37
1802.00,98.35
1801.00,98.33
1800.00,98.32
1799.00,98.33
1798.00,98.35
1797.00,98.37
1796.00,98.38
1795.00,98.40
1794.00,98.42
1793.00,98.43
1792.00,98.43
1791.00,98.42
1790.00,98.42
1789.00,98.41
1788.00,98.40
1787.00,98.39
1786.00,98.38
1785.00,98.36
1784.00,98.34
1783.00,98.33
1782.00,98.32
1781.00,98.31
1780.00,98.31
1779.00,98.32
1778.00,98.33
1777.00,98.34
1776.00,98.35
1775.00,98.37
1774.00,98.40
1773.00,98.44
1772.00,98.49
1771.00,98.52
1770.00,98.49
1769.00,98.44
1768.00,98.37
1767.00,98.33
1766.00,98.32
1765.00,98.31
1764.00,98.31
1763.00,98.31
1762.00,98.31
1761.00,98.31
1760.00,98.30
1759.00,98.30
1758.00,98.29
1757.00,98.27
1756.00,98.26
1755.00,98.25
1754.00,98.25
1753.00,98.25
1752.00,98.24
1751.00,98.23
1750.00,98.22
1749.00,98.22
1748.00,98.22
1747.00,98.22
1746.00,98.21
1745.00,98.20
1744.00,98.19
1743.00,98.19
1742.00,98.19
1741.00,98.19
1740.00,98.18
1739.00,98.17
1738.00,98.15
1737.00,98.12
1736.00,98.10
1735.00,98.09
1734.00,98.11
1733.00,98.14
1732.00,98.14
1731.00,98.10
1730.00,98.05
1729.00,98.02
1728.00,98.01
1727.00,98.02
1726.00,98.02
1725.00,98.01
1724.00,97.99
1723.00,97.99
1722.00,98.00
1721.00,98.02
1720.00,98.04
1719.00,98.08
1718.00,98.12
1717.00,98.13
1716.00,98.11
1715.00,98.07
1714.00,98.02
1713.00,97.99
1712.00,97.97
1711.00,97.96
1710.00,97.95
1709.00,97.94
1708.00,97.93
1707.00,97.92
1706.00,97.92
1705.00,97.92
1704.00,97.92
1703.00,97.92
1702.00,97.93
1701.00,97.93
1700.00,97.91
1699.00,97.90
1698.00,97.90
1697.00,97.88
1696.00,97.85
1695.00,97.81
1694.00,97.75
1693.00,97.64
1692.00,97.51
1691.00,97.41
1690.00,97.32
1689.00,97.23
1688.00,97.13
1687.00,97.05
1686.00,96.98
1685.00,96.84
1684.00,96.61
1683.00,96.35
1682.00,96.09
1681.00,95.81
1680.00,95.55
1679.00,95.33
1678.00,95.13
1677.00,94.91
1676.00,94.63
1675.00,94.33
1674.00,94.06
1673.00,93.82
1672.00,93.56
1671.00,93.26
1670.00,92.88
1669.00,92.44
1668.00,91.99
1667.00,91.59
1666.00,91.24
1665.00,90.89
1664.00,90.48
1663.00,90.03
1662.00,89.59
1661.00,89.21
1660.00,88.85
1659.00,88.50
1658.00,88.16
1657.00,87.86
1656.00,87.57
1655.00,87.27
1654.00,86.78
1653.00,86.06
1652.00,85.43
1651.00,84.96
1650.00,84.51
1649.00,83.98
1648.00,83.31
1647.00,82.52
1646.00,81.75
1645.00,81.09
1644.00,80.49
1643.00,79.91
1642.00,79.32
1641.00,78.74
1640.00,78.19
1639.00,77.72
1638.00,77.35
1637.00,77.05
1636.00,76.81
1635.00,76.70
1634.00,76.73
1633.00,76.85
1632.00,77.02
1631.00,77.24
1630.00,77.51
1629.00,77.82
1628.00,78.14
1627.00,78.46
1626.00,78.78
1625.00,79.12
1624.00,79.52
1623.00,79.97
1622.00,80.46
1621.00,80.92
1620.00,81.37
1619.00,81.87
1618.00,82.47
1617.00,83.20
1616.00,83.93
1615.00,84.53
1614.00,84.98
1613.00,85.39
1612.00,85.83
1611.00,86.32
1610.00,86.82
1609.00,87.31
1608.00,87.81
1607.00,88.28
1606.00,88.72
1605.00,89.15
1604.00,89.56
1603.00,89.95
1602.00,90.31
1601.00,90.64
1600.00,90.96
1599.00,91.24
1598.00,91.47
1597.00,91.67
1596.00,91.86
1595.00,92.03
1594.00,92.17
1593.00,92.28
1592.00,92.37
1591.00,92.43
1590.00,92.46
1589.00,92.45
1588.00,92.44
1587.00,92.40
1586.00,92.33
1585.00,92.24
1584.00,92.14
1583.00,92.02
1582.00,91.86
1581.00,91.69
1580.00,91.53
1579.00,91.36
1578.00,91.17
1577.00,90.92
1576.00,90.64
1575.00,90.33
1574.00,90.00
1573.00,89.67
1572.00,89.35
1571.00,88.99
1570.00,88.55
1569.00,88.10
1568.00,87.71
1567.00,87.36
1566.00,87.01
1565.00,86.64
1564.00,86.31
1563.00,86.04
1562.00,85.82
1561.00,85.62
1560.00,85.29
1559.00,84.77
1558.00,84.31
1557.00,83.99
1556.00,83.71
1555.00,83.41
1554.00,83.09
1553.00,82.79
1552.00,82.50
1551.00,82.20
1550.00,81.87
1549.00,81.56
1548.00,81.29
1547.00,81.05
1546.00,80.79
1545.00,80.51
1544.00,80.27
1543.00,80.09
1542.00,79.98
1541.00,79.90
1540.00,79.85
1539.00,79.84
1538.00,79.84
1537.00,79.84
1536.00,79.86
1535.00,79.96
1534.00,80.15
1533.00,80.40
1532.00,80.66
1531.00,80.91
1530.00,81.17
1529.00,81.46
1528.00,81.77
1527.00,82.12
1526.00,82.49
1525.00,82.85
1524.00,83.20
1523.00,83.58
1522.00,84.03
1521.00,84.50
1520.00,84.88
1519.00,85.17
1518.00,85.46
1517.00,85.80
1516.00,86.16
1515.00,86.49
1514.00,86.81
1513.00,87.12
1512.00,87.43
1511.00,87.73
1510.00,88.02
1509.00,88.30
1508.00,88.63
1507.00,89.06
1506.00,89.50
1505.00,89.83
1504.00,90.04
1503.00,90.19
1502.00,90.35
1501.00,90.55
1500.00,90.77
1499.00,91.00
1498.00,91.24
1497.00,91.47
1496.00,91.67
1495.00,91.84
1494.00,91.99
1493.00,92.12
1492.00,92.22
1491.00,92.32
1490.00,92.41
1489.00,92.47
1488.00,92.47
1487.00,92.42
1486.00,92.33
1485.00,92.17
1484.00,91.95
1483.00,91.67
1482.00,91.35
1481.00,91.01
1480.00,90.70
1479.00,90.44
1478.00,90.23
1477.00,90.08
1476.00,89.98
1475.00,89.96
1474.00,90.02
1473.00,90.11
1472.00,90.14
1471.00,90.09
1470.00,89.95
1469.00,89.75
1468.00,89.47
1467.00,89.12
1466.00,88.71
1465.00,88.29
1464.00,87.96
1463.00,87.80
1462.00,87.81
1461.00,87.91
1460.00,88.09
1459.00,88.33
1458.00,88.63
1457.00,88.92
1456.00,89.13
1455.00,89.25
1454.00,89.32
1453.00,89.38
1452.00,89.44
1451.00,89.51
1450.00,89.59
1449.00,89.66
1448.00,89.71
1447.00,89.74
1446.00,89.75
1445.00,89.74
1444.00,89.70
1443.00,89.64
1442.00,89.56
1441.00,89.47
1440.00,89.39
1439.00,89.31
1438.00,89.23
1437.00,89.15
1436.00,89.10
1435.00,89.10
1434.00,89.16
1433.00,89.26
1432.00,89.39
1431.00,89.56
1430.00,89.75
1429.00,89.92
1428.00,90.06
1427.00,90.14
1426.00,90.17
1425.00,90.14
1424.00,90.04
1423.00,89.91
1422.00,89.77
1421.00,89.64
1420.00,89.49
1419.00,89.35
1418.00,89.28
1417.00,89.30
1416.00,89.39
1415.00,89.56
1414.00,89.79
1413.00,90.06
1412.00,90.36
1411.00,90.68
1410.00,90.99
1409.00,91.31
1408.00,91.60
1407.00,91.88
1406.00,92.13
1405.00,92.35
1404.00,92.54
1403.00,92.70
1402.00,92.84
1401.00,92.96
1400.00,93.06
1399.00,93.13
1398.00,93.17
1397.00,93.18
1396.00,93.17
1395.00,93.12
1394.00,93.07
1393.00,93.02
1392.00,92.97
1391.00,92.90
1390.00,92.81
1389.00,92.69
1388.00,92.55
1387.00,92.38
1386.00,92.23
1385.00,92.09
1384.00,91.95
1383.00,91.79
1382.00,91.60
1381.00,91.41
1380.00,91.22
1379.00,91.03
1378.00,90.86
1377.00,90.71
1376.00,90.57
1375.00,90.45
1374.00,90.34
1373.00,90.28
1372.00,90.26
1371.00,90.27
1370.00,90.30
1369.00,90.36
1368.00,90.42
1367.00,90.49
1366.00,90.56
1365.00,90.61
1364.00,90.65
1363.00,90.69
1362.00,90.75
1361.00,90.84
1360.00,90.94
1359.00,91.05
1358.00,91.17
1357.00,91.28
1356.00,91.38
1355.00,91.47
1354.00,91.56
1353.00,91.65
1352.00,91.74
1351.00,91.82
1350.00,91.89
1349.00,91.95
1348.00,92.00
1347.00,92.03
1346.00,92.06
1345.00,92.09
1344.00,92.13
1343.00,92.17
1342.00,92.23
1341.00,92.29
1340.00,92.34
1339.00,92.37
1338.00,92.39
1337.00,92.42
1336.00,92.47
1335.00,92.52
1334.00,92.56
1333.00,92.60
1332.00,92.63
1331.00,92.66
1330.00,92.71
1329.00,92.77
1328.00,92.83
1327.00,92.87
1326.00,92.90
1325.00,92.92
1324.00,92.91
1323.00,92.90
1322.00,92.87
1321.00,92.84
1320.00,92.80
1319.00,92.75
1318.00,92.71
1317.00,92.69
1316.00,92.66
1315.00,92.62
1314.00,92.57
1313.00,92.52
1312.00,92.47
1311.00,92.42
1310.00,92.37
1309.00,92.33
1308.00,92.29
1307.00,92.25
1306.00,92.22
1305.00,92.19
1304.00,92.15
1303.00,92.10
1302.00,92.06
1301.00,92.02
1300.00,91.99
1299.00,91.96
1298.00,91.95
1297.00,91.94
1296.00,91.93
1295.00,91.93
1294.00,91.91
1293.00,91.89
1292.00,91.85
1291.00,91.81
1290.00,91.76
1289.00,91.70
1288.00,91.62
1287.00,91.52
1286.00,91.41
1285.00,91.27
1284.00,91.13
1283.00,90.99
1282.00,90.88
1281.00,90.80
1280.00,90.75
1279.00,90.73
1278.00,90.73
1277.00,90.76
1276.00,90.81
1275.00,90.85
1274.00,90.86
1273.00,90.85
1272.00,90.79
1271.00,90.68
1270.00,90.51
1269.00,90.30
1268.00,90.05
1267.00,89.79
1266.00,89.55
1265.00,89.34
1264.00,89.16
1263.00,89.02
1262.00,88.93
1261.00,88.89
1260.00,88.91
1259.00,88.98
1258.00,89.09
1257.00,89.20
1256.00,89.32
1255.00,89.45
1254.00,89.59
1253.00,89.73
1252.00,89.87
1251.00,90.00
1250.00,90.13
1249.00,90.24
1248.00,90.34
1247.00,90.43
1246.00,90.49
1245.00,90.52
1244.00,90.52
1243.00,90.50
1242.00,90.47
1241.00,90.43
1240.00,90.41
1239.00,90.40
1238.00,90.43
1237.00,90.49
1236.00,90.59
1235.00,90.72
1234.00,90.89
1233.00,91.10
1232.00,91.33
1231.00,91.57
1230.00,91.82
1229.00,92.06
1228.00,92.30
1227.00,92.53
1226.00,92.73
1225.00,92.90
1224.00,93.02
1223.00,93.09
1222.00,93.09
1221.00,93.04
1220.00,92.94
1219.00,92.81
1218.00,92.66
1217.00,92.51
1216.00,92.36
1215.00,92.23
1214.00,92.10
1213.00,91.98
1212.00,91.87
1211.00,91.80
1210.00,91.75
1209.00,91.72
1208.00,91.68
1207.00,91.59
1206.00,91.47
1205.00,91.31
1204.00,91.11
1203.00,90.92
1202.00,90.76
1201.00,90.69
1200.00,90.69
1199.00,90.77
1198.00,90.91
1197.00,91.09
1196.00,91.31
1195.00,91.54
1194.00,91.79
1193.00,92.03
1192.00,92.26
1191.00,92.47
1190.00,92.66
1189.00,92.84
1188.00,93.00
1187.00,93.14
1186.00,93.25
1185.00,93.33
1184.00,93.35
1183.00,93.32
1182.00,93.25
1181.00,93.14
1180.00,92.98
1179.00,92.77
1178.00,92.50
1177.00,92.20
1176.00,91.87
1175.00,91.53
1174.00,91.19
1173.00,90.87
1172.00,90.60
1171.00,90.39
1170.00,90.30
1169.00,90.34
1168.00,90.49
1167.00,90.73
1166.00,91.02
1165.00,91.34
1164.00,91.68
1163.00,92.03
1162.00,92.37
1161.00,92.66
1160.00,92.90
1159.00,93.10
1158.00,93.29
1157.00,93.48
1156.00,93.65
1155.00,93.80
1154.00,93.94
1153.00,94.08
1152.00,94.20
1151.00,94.31
1150.00,94.40
1149.00,94.51
1148.00,94.63
1147.00,94.76
1146.00,94.89
1145.00,94.99
1144.00,95.06
1143.00,95.11
1142.00,95.16
1141.00,95.21
1140.00,95.24
1139.00,95.27
1138.00,95.30
1137.00,95.33
1136.00,95.34
1135.00,95.33
1134.00,95.29
1133.00,95.23
1132.00,95.15
1131.00,95.05
1130.00,94.93
1129.00,94.80
1128.00,94.66
1127.00,94.50
1126.00,94.32
1125.00,94.15
1124.00,93.97
1123.00,93.79
1122.00,93.63
1121.00,93.51
1120.00,93.44
1119.00,93.41
1118.00,93.41
1117.00,93.43
1116.00,93.46
1115.00,93.48
1114.00,93.49
1113.00,93.50
1112.00,93.53
1111.00,93.58
1110.00,93.65
1109.00,93.75
1108.00,93.84
1107.00,93.93
1106.00,94.00
1105.00,94.08
1104.00,94.19
1103.00,94.30
1102.00,94.42
1101.00,94.53
1100.00,94.63
1099.00,94.72
1098.00,94.79
1097.00,94.84
1096.00,94.89
1095.00,94.91
1094.00,94.92
1093.00,94.91
1092.00,94.92
1091.00,94.94
1090.00,94.96
1089.00,94.97
1088.00,94.97
1087.00,94.96
1086.00,94.91
1085.00,94.84
1084.00,94.78
1083.00,94.74
1082.00,94.72
1081.00,94.71
1080.00,94.70
1079.00,94.67
1078.00,94.66
1077.00,94.65
1076.00,94.64
1075.00,94.62
1074.00,94.59
1073.00,94.57
1072.00,94.56
1071.00,94.57
1070.00,94.59
1069.00,94.62
1068.00,94.66
1067.00,94.72
1066.00,94.79
1065.00,94.88
1064.00,95.00
1063.00,95.11
1062.00,95.18
1061.00,95.21
1060.00,95.23
1059.00,95.27
1058.00,95.34
1057.00,95.43
1056.00,95.52
1055.00,95.59
1054.00,95.63
1053.00,95.66
1052.00,95.69
1051.00,95.72
1050.00,95.76
1049.00,95.82
1048.00,95.88
1047.00,95.95
1046.00,96.00
1045.00,96.04
1044.00,96.06
1043.00,96.05
1042.00,96.04
1041.00,96.02
1040.00,96.02
1039.00,96.02
1038.00,96.00
1037.00,95.97
1036.00,95.92
1035.00,95.89
1034.00,95.87
1033.00,95.86
1032.00,95.85
1031.00,95.82
1030.00,95.81
1029.00,95.79
1028.00,95.79
1027.00,95.79
1026.00,95.81
1025.00,95.84
1024.00,95.90
1023.00,95.97
1022.00,96.03
1021.00,96.09
1020.00,96.13
1019.00,96.15
1018.00,96.17
1017.00,96.18
1016.00,96.18
1015.00,96.18
1014.00,96.18
1013.00,96.18
1012.00,96.18
1011.00,96.18
1010.00,96.17
1009.00,96.16
1008.00,96.14
1007.00,96.12
1006.00,96.12
1005.00,96.13
1004.00,96.14
1003.00,96.14
1002.00,96.14
1001.00,96.14
1000.00,96.13
999.00,96.12
998.00,96.10
997.00,96.07
996.00,96.05
995.00,96.02
994.00,95.99
993.00,95.95
992.00,95.90
991.00,95.86
990.00,95.82
989.00,95.80
988.00,95.77
987.00,95.75
986.00,95.73
985.00,95.69
984.00,95.64
983.00,95.58
982.00,95.52
981.00,95.46
980.00,95.42
979.00,95.41
978.00,95.41
977.00,95.41
976.00,95.40
975.00,95.38
974.00,95.37
973.00,95.36
972.00,95.35
971.00,95.35
970.00,95.35
969.00,95.35
968.00,95.36
967.00,95.36
966.00,95.35
965.00,95.31
964.00,95.26
963.00,95.21
962.00,95.16
961.00,95.12
960.00,95.09
959.00,95.09
958.00,95.13
957.00,95.20
956.00,95.27
955.00,95.35
954.00,95.41
953.00,95.45
952.00,95.47
951.00,95.50
950.00,95.54
949.00,95.61
948.00,95.69
947.00,95.76
946.00,95.84
945.00,95.91
944.00,95.98
943.00,96.03
942.00,96.07
941.00,96.11
940.00,96.14
939.00,96.16
938.00,96.17
937.00,96.15
936.00,96.11
935.00,96.05
934.00,95.99
933.00,95.95
932.00,95.91
931.00,95.86
930.00,95.82
929.00,95.79
928.00,95.79
927.00,95.82
926.00,95.85
925.00,95.90
924.00,95.97
923.00,96.04
922.00,96.11
921.00,96.17
920.00,96.22
919.00,96.25
918.00,96.28
917.00,96.30
916.00,96.32
915.00,96.34
914.00,96.35
913.00,96.38
912.00,96.40
911.00,96.43
910.00,96.47
909.00,96.50
908.00,96.52
907.00,96.54
906.00,96.56
905.00,96.58
904.00,96.59
903.00,96.61
902.00,96.62
901.00,96.64
900.00,96.67
899.00,96.68
898.00,96.70
897.00,96.71
896.00,96.71
895.00,96.70
894.00,96.71
893.00,96.72
892.00,96.72
891.00,96.70
890.00,96.67
889.00,96.65
888.00,96.66
887.00,96.68
886.00,96.71
885.00,96.74
884.00,96.76
883.00,96.77
882.00,96.77
881.00,96.78
880.00,96.80
879.00,96.83
878.00,96.84
877.00,96.83
876.00,96.82
875.00,96.82
874.00,96.84
873.00,96.87
872.00,96.90
871.00,96.91
870.00,96.91
869.00,96.90
868.00,96.90
867.00,96.89
866.00,96.88
865.00,96.86
864.00,96.84
863.00,96.82
862.00,96.82
861.00,96.83
860.00,96.85
859.00,96.87
858.00,96.86
857.00,96.84
856.00,96.83
855.00,96.83
854.00,96.84
853.00,96.84
852.00,96.82
851.00,96.81
850.00,96.79
849.00,96.75
848.00,96.70
847.00,96.64
846.00,96.60
845.00,96.57
844.00,96.53
843.00,96.49
842.00,96.46
841.00,96.44
840.00,96.40
839.00,96.34
838.00,96.28
837.00,96.21
836.00,96.14
835.00,96.06
834.00,96.00
833.00,95.97
832.00,95.98
831.00,96.02
830.00,96.07
829.00,96.11
828.00,96.16
827.00,96.22
826.00,96.26
825.00,96.29
824.00,96.30
823.00,96.29
822.00,96.29
821.00,96.29
820.00,96.30
819.00,96.31
818.00,96.30
817.00,96.26
816.00,96.21
815.00,96.16
814.00,96.12
813.00,96.08
812.00,96.07
811.00,96.06
810.00,96.05
809.00,96.02
808.00,95.97
807.00,95.91
806.00,95.86
805.00,95.80
804.00,95.75
803.00,95.70
802.00,95.65
801.00,95.59
800.00,95.54
799.00,95.49
798.00,95.46
797.00,95.43
796.00,95.39
795.00,95.34
794.00,95.30
793.00,95.27
792.00,95.23
791.00,95.17
790.00,95.11
789.00,95.05
788.00,94.99
787.00,94.96
786.00,94.94
785.00,94.92
784.00,94.87
783.00,94.78
782.00,94.68
781.00,94.61
780.00,94.56
779.00,94.51
778.00,94.46
777.00,94.39
776.00,94.32
775.00,94.26
774.00,94.20
773.00,94.15
772.00,94.12
771.00,94.11
770.00,94.11
769.00,94.07
768.00,94.00
767.00,93.92
766.00,93.86
765.00,93.81
764.00,93.77
763.00,93.73
762.00,93.69
761.00,93.64
760.00,93.58
759.00,93.50
758.00,93.42
757.00,93.35
756.00,93.30
755.00,93.25
754.00,93.17
753.00,93.06
752.00,92.94
751.00,92.83
750.00,92.74
749.00,92.65
748.00,92.55
747.00,92.43
746.00,92.30
745.00,92.15
744.00,92.02
743.00,91.90
742.00,91.79
741.00,91.66
740.00,91.49
739.00,91.32
738.00,91.14
737.00,90.93
736.00,90.68
735.00,90.40
734.00,90.09
733.00,89.77
732.00,89.46
731.00,89.20
730.00,89.00
729.00,88.85
728.00,88.77
727.00,88.75
726.00,88.80
725.00,88.87
724.00,88.93
723.00,88.97
722.00,89.00
721.00,89.01
720.00,89.02
719.00,89.00
718.00,88.96
717.00,88.90
716.00,88.82
715.00,88.74
714.00,88.66
713.00,88.59
712.00,88.52
711.00,88.47
710.00,88.45
709.00,88.42
708.00,88.38
707.00,88.32
706.00,88.27
705.00,88.20
704.00,88.11
703.00,87.99
702.00,87.85
701.00,87.71
700.00,87.57
699.00,87.46
698.00,87.35
697.00,87.23
696.00,87.07
695.00,86.90
694.00,86.75
693.00,86.62
692.00,86.51
691.00,86.41
690.00,86.32
689.00,86.25
688.00,86.18
687.00,86.11
686.00,86.04
685.00,85.97
684.00,85.91
683.00,85.88
682.00,85.88
681.00,85.91
680.00,85.95
679.00,86.00
678.00,86.06
677.00,86.11
676.00,86.14
675.00,86.18
674.00,86.28
673.00,86.41
672.00,86.54
671.00,86.67
670.00,86.80
669.00,86.95
668.00,87.09
667.00,87.11
666.00,87.10
665.00,87.13
664.00,87.17
663.00,87.18
662.00,87.22
661.00,87.32
660.00,87.47
659.00,87.64
658.00,87.79
657.00,87.90
656.00,87.96
655.00,87.99
654.00,88.06
653.00,88.16
652.00,88.27
651.00,88.34
650.00,88.39
649.00,88.46
648.00,88.54
647.00,88.61
646.00,88.69
645.00,88.77
644.00,88.86
643.00,88.90
642.00,88.89
641.00,88.83
640.00,88.80
639.00,88.84
638.00,88.94
637.00,89.03
636.00,89.06
635.00,89.08
634.00,89.15
633.00,89.29
632.00,89.41
631.00,89.45
630.00,89.43
629.00,89.43
628.00,89.46
627.00,89.46
626.00,89.34
625.00,89.13
624.00,88.93
623.00,88.86
622.00,88.93
621.00,89.09
620.00,89.26
619.00,89.39
618.00,89.41
617.00,89.25
616.00,88.94
615.00,88.62
614.00,88.44
613.00,88.42
612.00,88.49
611.00,88.61
610.00,88.77
609.00,88.94
608.00,89.08
607.00,89.16
606.00,89.13
605.00,88.91
604.00,88.49
603.00,87.99
602.00,87.65
601.00,87.60
600.00,87.80
599.00,88.09
598.00,88.28
597.00,88.29
596.00,88.19
595.00,88.09
594.00,88.02
593.00,87.93
592.00,87.84
591.00,87.87
590.00,87.99
589.00,87.96
588.00,87.66
587.00,87.32
586.00,87.26
585.00,87.48
584.00,87.62
583.00,87.46
582.00,87.14
581.00,86.87
580.00,86.59
579.00,86.18
578.00,85.66
577.00,85.19
576.00,84.87
575.00,84.71
574.00,84.64
573.00,84.51
572.00,84.28
571.00,84.08
570.00,84.14
569.00,84.46
568.00,84.87
567.00,85.25
566.00,85.53
565.00,85.67
564.00,85.79
563.00,86.08
562.00,86.62
561.00,87.25
560.00,87.81
559.00,88.27
558.00,88.59
557.00,88.59
556.00,88.07
555.00,87.15
554.00,86.35
553.00,86.08
552.00,86.31
551.00,86.71
550.00,87.03
