Created as New Dataset,103. Du Pont (Red thread)
cm-1,%T
4000.00,99.22
3999.00,99.24
3998.00,99.24
3997.00,99.23
3996.00,99.19
3995.00,99.16
3994.00,99.14
3993.00,99.13
3992.00,99.15
3991.00,99.17
3990.00,99.19
3989.00,99.20
3988.00,99.20
3987.00,99.19
3986.00,99.17
3985.00,99.14
3984.00,99.12
3983.00,99.11
3982.00,99.12
3981.00,99.14
3980.00,99.15
3979.00,99.16
3978.00,99.16
3977.00,99.15
3976.00,99.14
3975.00,99.13
3974.00,99.13
3973.00,99.13
3972.00,99.14
3971.00,99.15
3970.00,99.18
3969.00,99.19
3968.00,99.20
3967.00,99.20
3966.00,99.19
3965.00,99.19
3964.00,99.20
3963.00,99.21
3962.00,99.22
3961.00,99.21
3960.00,99.20
3959.00,99.19
3958.00,99.18
3957.00,99.19
3956.00,99.19
3955.00,99.19
3954.00,99.18
3953.00,99.17
3952.00,99.17
3951.00,99.18
3950.00,99.19
3949.00,99.19
3948.00,99.19
3947.00,99.19
3946.00,99.19
3945.00,99.19
3944.00,99.20
3943.00,99.20
3942.00,99.20
3941.00,99.19
3940.00,99.18
3939.00,99.17
3938.00,99.17
3937.00,99.17
3936.00,99.17
3935.00,99.16
3934.00,99.15
3933.00,99.14
3932.00,99.13
3931.00,99.13
3930.00,99.15
3929.00,99.17
3928.00,99.19
3927.00,99.19
3926.00,99.19
3925.00,99.19
3924.00,99.19
3923.00,99.18
3922.00,99.16
3921.00,99.15
3920.00,99.15
3919.00,99.15
3918.00,99.16
3917.00,99.16
3916.00,99.16
3915.00,99.16
3914.00,99.17
3913.00,99.18
3912.00,99.18
3911.00,99.18
3910.00,99.18
3909.00,99.18
3908.00,99.17
3907.00,99.16
3906.00,99.15
3905.00,99.15
3904.00,99.14
3903.00,99.12
3902.00,99.08
3901.00,99.05
3900.00,99.04
3899.00,99.05
3898.00,99.08
3897.00,99.11
3896.00,99.11
3895.00,99.10
3894.00,99.09
3893.00,99.09
3892.00,99.10
3891.00,99.13
3890.00,99.14
3889.00,99.13
3888.00,99.11
3887.00,99.10
3886.00,99.11
3885.00,99.15
3884.00,99.17
3883.00,99.17
3882.00,99.16
3881.00,99.16
3880.00,99.17
3879.00,99.18
3878.00,99.18
3877.00,99.17
3876.00,99.15
3875.00,99.13
3874.00,99.12
3873.00,99.12
3872.00,99.12
3871.00,99.11
3870.00,99.11
3869.00,99.11
3868.00,99.10
3867.00,99.08
3866.00,99.06
3865.00,99.06
3864.00,99.07
3863.00,99.09
3862.00,99.10
3861.00,99.11
3860.00,99.12
3859.00,99.12
3858.00,99.12
3857.00,99.11
3856.00,99.10
3855.00,99.09
3854.00,99.09
3853.00,99.09
3852.00,99.07
3851.00,99.05
3850.00,99.05
3849.00,99.05
3848.00,99.07
3847.00,99.09
3846.00,99.09
3845.00,99.09
3844.00,99.10
3843.00,99.11
3842.00,99.10
3841.00,99.08
3840.00,99.04
3839.00,99.02
3838.00,99.02
3837.00,99.03
3836.00,99.04
3835.00,99.05
3834.00,99.04
3833.00,99.05
3832.00,99.06
3831.00,99.08
3830.00,99.09
3829.00,99.09
3828.00,99.10
3827.00,99.10
3826.00,99.10
3825.00,99.09
3824.00,99.06
3823.00,99.05
3822.00,99.07
3821.00,99.11
3820.00,99.14
3819.00,99.12
3818.00,99.08
3817.00,99.05
3816.00,99.04
3815.00,99.06
3814.00,99.08
3813.00,99.09
3812.00,99.09
3811.00,99.09
3810.00,99.07
3809.00,99.04
3808.00,99.01
3807.00,99.02
3806.00,99.04
3805.00,99.06
3804.00,99.06
3803.00,99.07
3802.00,99.08
3801.00,99.08
3800.00,99.06
3799.00,99.02
3798.00,98.99
3797.00,99.00
3796.00,99.03
3795.00,99.08
3794.00,99.10
3793.00,99.11
3792.00,99.10
3791.00,99.09
3790.00,99.07
3789.00,99.06
3788.00,99.05
3787.00,99.04
3786.00,99.05
3785.00,99.06
3784.00,99.08
3783.00,99.09
3782.00,99.07
3781.00,99.03
3780.00,99.00
3779.00,98.99
3778.00,99.00
3777.00,99.02
3776.00,99.04
3775.00,99.06
3774.00,99.08
3773.00,99.07
3772.00,99.06
3771.00,99.03
3770.00,99.01
3769.00,98.98
3768.00,98.97
3767.00,98.97
3766.00,98.97
3765.00,98.99
3764.00,98.99
3763.00,98.99
3762.00,98.99
3761.00,98.99
3760.00,98.99
3759.00,99.00
3758.00,99.00
3757.00,99.00
3756.00,99.01
3755.00,99.01
3754.00,99.02
3753.00,99.02
3752.00,99.02
3751.00,99.00
3750.00,98.96
3749.00,98.94
3748.00,98.92
3747.00,98.91
3746.00,98.91
3745.00,98.94
3744.00,98.96
3743.00,98.97
3742.00,98.95
3741.00,98.93
3740.00,98.94
3739.00,98.95
3738.00,98.96
3737.00,98.96
3736.00,98.96
3735.00,98.96
3734.00,98.95
3733.00,98.94
3732.00,98.93
3731.00,98.92
3730.00,98.91
3729.00,98.90
3728.00,98.90
3727.00,98.90
3726.00,98.89
3725.00,98.86
3724.00,98.84
3723.00,98.85
3722.00,98.88
3721.00,98.90
3720.00,98.89
3719.00,98.88
3718.00,98.88
3717.00,98.89
3716.00,98.90
3715.00,98.91
3714.00,98.90
3713.00,98.89
3712.00,98.87
3711.00,98.84
3710.00,98.82
3709.00,98.80
3708.00,98.79
3707.00,98.78
3706.00,98.76
3705.00,98.74
3704.00,98.71
3703.00,98.68
3702.00,98.64
3701.00,98.61
3700.00,98.57
3699.00,98.54
3698.00,98.52
3697.00,98.50
3696.00,98.50
3695.00,98.49
3694.00,98.49
3693.00,98.48
3692.00,98.47
3691.00,98.46
3690.00,98.48
3689.00,98.51
3688.00,98.56
3687.00,98.61
3686.00,98.64
3685.00,98.66
3684.00,98.66
3683.00,98.66
3682.00,98.64
3681.00,98.61
3680.00,98.59
3679.00,98.58
3678.00,98.57
3677.00,98.56
3676.00,98.55
3675.00,98.56
3674.00,98.59
3673.00,98.61
3672.00,98.62
3671.00,98.64
3670.00,98.65
3669.00,98.64
3668.00,98.61
3667.00,98.59
3666.00,98.58
3665.00,98.60
3664.00,98.63
3663.00,98.67
3662.00,98.69
3661.00,98.70
3660.00,98.69
3659.00,98.68
3658.00,98.66
3657.00,98.64
3656.00,98.62
3655.00,98.61
3654.00,98.59
3653.00,98.58
3652.00,98.58
3651.00,98.59
3650.00,98.59
3649.00,98.56
3648.00,98.53
3647.00,98.52
3646.00,98.53
3645.00,98.56
3644.00,98.59
3643.00,98.62
3642.00,98.64
3641.00,98.65
3640.00,98.64
3639.00,98.65
3638.00,98.66
3637.00,98.67
3636.00,98.67
3635.00,98.65
3634.00,98.64
3633.00,98.63
3632.00,98.63
3631.00,98.62
3630.00,98.62
3629.00,98.61
3628.00,98.61
3627.00,98.61
3626.00,98.61
3625.00,98.61
3624.00,98.61
3623.00,98.59
3622.00,98.55
3621.00,98.50
3620.00,98.45
3619.00,98.41
3618.00,98.39
3617.00,98.40
3616.00,98.43
3615.00,98.48
3614.00,98.52
3613.00,98.54
3612.00,98.53
3611.00,98.50
3610.00,98.48
3609.00,98.47
3608.00,98.49
3607.00,98.53
3606.00,98.56
3605.00,98.59
3604.00,98.59
3603.00,98.58
3602.00,98.55
3601.00,98.53
3600.00,98.52
3599.00,98.52
3598.00,98.52
3597.00,98.52
3596.00,98.52
3595.00,98.52
3594.00,98.51
3593.00,98.51
3592.00,98.51
3591.00,98.50
3590.00,98.48
3589.00,98.45
3588.00,98.42
3587.00,98.41
3586.00,98.43
3585.00,98.45
3584.00,98.46
3583.00,98.46
3582.00,98.46
3581.00,98.44
3580.00,98.43
3579.00,98.42
3578.00,98.40
3577.00,98.39
3576.00,98.38
3575.00,98.39
3574.00,98.40
3573.00,98.41
3572.00,98.42
3571.00,98.43
3570.00,98.42
3569.00,98.40
3568.00,98.38
3567.00,98.37
3566.00,98.36
3565.00,98.35
3564.00,98.33
3563.00,98.31
3562.00,98.30
3561.00,98.30
3560.00,98.31
3559.00,98.32
3558.00,98.32
3557.00,98.32
3556.00,98.33
3555.00,98.33
3554.00,98.34
3553.00,98.34
3552.00,98.34
3551.00,98.33
3550.00,98.31
3549.00,98.28
3548.00,98.26
3547.00,98.25
3546.00,98.25
3545.00,98.25
3544.00,98.25
3543.00,98.25
3542.00,98.24
3541.00,98.23
3540.00,98.23
3539.00,98.23
3538.00,98.23
3537.00,98.23
3536.00,98.22
3535.00,98.20
3534.00,98.18
3533.00,98.16
3532.00,98.15
3531.00,98.13
3530.00,98.11
3529.00,98.10
3528.00,98.09
3527.00,98.08
3526.00,98.08
3525.00,98.07
3524.00,98.06
3523.00,98.06
3522.00,98.07
3521.00,98.08
3520.00,98.08
3519.00,98.06
3518.00,98.04
3517.00,98.02
3516.00,98.03
3515.00,98.04
3514.00,98.06
3513.00,98.05
3512.00,98.03
3511.00,98.00
3510.00,97.98
3509.00,97.97
3508.00,97.98
3507.00,98.00
3506.00,98.02
3505.00,98.04
3504.00,98.04
3503.00,98.03
3502.00,98.01
3501.00,97.99
3500.00,97.98
3499.00,97.98
3498.00,98.00
3497.00,98.01
3496.00,98.00
3495.00,97.99
3494.00,97.98
3493.00,97.98
3492.00,97.99
3491.00,97.98
3490.00,97.97
3489.00,97.95
3488.00,97.92
3487.00,97.91
3486.00,97.90
3485.00,97.90
3484.00,97.88
3483.00,97.86
3482.00,97.86
3481.00,97.86
3480.00,97.88
3479.00,97.89
3478.00,97.88
3477.00,97.86
3476.00,97.85
3475.00,97.85
3474.00,97.86
3473.00,97.88
3472.00,97.88
3471.00,97.88
3470.00,97.88
3469.00,97.87
3468.00,97.88
3467.00,97.89
3466.00,97.91
3465.00,97.92
3464.00,97.91
3463.00,97.88
3462.00,97.85
3461.00,97.82
3460.00,97.81
3459.00,97.80
3458.00,97.80
3457.00,97.81
3456.00,97.82
3455.00,97.81
3454.00,97.79
3453.00,97.75
3452.00,97.72
3451.00,97.69
3450.00,97.67
3449.00,97.65
3448.00,97.64
3447.00,97.64
3446.00,97.63
3445.00,97.63
3444.00,97.63
3443.00,97.64
3442.00,97.64
3441.00,97.63
3440.00,97.62
3439.00,97.60
3438.00,97.57
3437.00,97.56
3436.00,97.55
3435.00,97.56
3434.00,97.57
3433.00,97.57
3432.00,97.59
3431.00,97.61
3430.00,97.65
3429.00,97.67
3428.00,97.68
3427.00,97.68
3426.00,97.68
3425.00,97.67
3424.00,97.67
3423.00,97.67
3422.00,97.68
3421.00,97.68
3420.00,97.67
3419.00,97.66
3418.00,97.65
3417.00,97.66
3416.00,97.67
3415.00,97.68
3414.00,97.68
3413.00,97.66
3412.00,97.65
3411.00,97.63
3410.00,97.62
3409.00,97.61
3408.00,97.61
3407.00,97.60
3406.00,97.61
3405.00,97.62
3404.00,97.64
3403.00,97.65
3402.00,97.65
3401.00,97.63
3400.00,97.59
3399.00,97.55
3398.00,97.52
3397.00,97.51
3396.00,97.50
3395.00,97.51
3394.00,97.51
3393.00,97.51
3392.00,97.51
3391.00,97.51
3390.00,97.50
3389.00,97.48
3388.00,97.47
3387.00,97.47
3386.00,97.47
3385.00,97.46
3384.00,97.43
3383.00,97.39
3382.00,97.36
3381.00,97.34
3380.00,97.33
3379.00,97.33
3378.00,97.31
3377.00,97.29
3376.00,97.27
3375.00,97.26
3374.00,97.25
3373.00,97.25
3372.00,97.24
3371.00,97.22
3370.00,97.19
3369.00,97.15
3368.00,97.11
3367.00,97.08
3366.00,97.05
3365.00,97.03
3364.00,96.99
3363.00,96.96
3362.00,96.92
3361.00,96.88
3360.00,96.84
3359.00,96.81
3358.00,96.79
3357.00,96.78
3356.00,96.78
3355.00,96.77
3354.00,96.73
3353.00,96.67
3352.00,96.61
3351.00,96.54
3350.00,96.48
3349.00,96.42
3348.00,96.36
3347.00,96.30
3346.00,96.25
3345.00,96.20
3344.00,96.14
3343.00,96.08
3342.00,96.01
3341.00,95.94
3340.00,95.88
3339.00,95.82
3338.00,95.78
3337.00,95.74
3336.00,95.72
3335.00,95.69
3334.00,95.66
3333.00,95.62
3332.00,95.56
3331.00,95.49
3330.00,95.43
3329.00,95.36
3328.00,95.27
3327.00,95.18
3326.00,95.08
3325.00,94.98
3324.00,94.89
3323.00,94.82
3322.00,94.76
3321.00,94.71
3320.00,94.65
3319.00,94.59
3318.00,94.54
3317.00,94.49
3316.00,94.45
3315.00,94.40
3314.00,94.34
3313.00,94.28
3312.00,94.22
3311.00,94.17
3310.00,94.12
3309.00,94.06
3308.00,93.99
3307.00,93.93
3306.00,93.87
3305.00,93.82
3304.00,93.77
3303.00,93.72
3302.00,93.67
3301.00,93.60
3300.00,93.53
3299.00,93.47
3298.00,93.42
3297.00,93.40
3296.00,93.39
3295.00,93.38
3294.00,93.37
3293.00,93.37
3292.00,93.37
3291.00,93.35
3290.00,93.31
3289.00,93.26
3288.00,93.21
3287.00,93.18
3286.00,93.15
3285.00,93.14
3284.00,93.13
3283.00,93.12
3282.00,93.13
3281.00,93.14
3280.00,93.15
3279.00,93.15
3278.00,93.14
3277.00,93.12
3276.00,93.12
3275.00,93.13
3274.00,93.16
3273.00,93.19
3272.00,93.23
3271.00,93.25
3270.00,93.27
3269.00,93.29
3268.00,93.31
3267.00,93.33
3266.00,93.35
3265.00,93.36
3264.00,93.38
3263.00,93.40
3262.00,93.44
3261.00,93.49
3260.00,93.55
3259.00,93.61
3258.00,93.64
3257.00,93.67
3256.00,93.71
3255.00,93.75
3254.00,93.81
3253.00,93.88
3252.00,93.94
3251.00,94.00
3250.00,94.07
3249.00,94.15
3248.00,94.24
3247.00,94.32
3246.00,94.39
3245.00,94.46
3244.00,94.52
3243.00,94.59
3242.00,94.65
3241.00,94.72
3240.00,94.79
3239.00,94.87
3238.00,94.95
3237.00,95.03
3236.00,95.09
3235.00,95.16
3234.00,95.23
3233.00,95.31
3232.00,95.37
3231.00,95.41
3230.00,95.45
3229.00,95.49
3228.00,95.54
3227.00,95.60
3226.00,95.66
3225.00,95.71
3224.00,95.75
3223.00,95.78
3222.00,95.81
3221.00,95.84
3220.00,95.88
3219.00,95.92
3218.00,95.98
3217.00,96.04
3216.00,96.09
3215.00,96.13
3214.00,96.16
3213.00,96.18
3212.00,96.20
3211.00,96.21
3210.00,96.22
3209.00,96.23
3208.00,96.24
3207.00,96.26
3206.00,96.28
3205.00,96.31
3204.00,96.34
3203.00,96.35
3202.00,96.35
3201.00,96.35
3200.00,96.34
3199.00,96.34
3198.00,96.35
3197.00,96.36
3196.00,96.39
3195.00,96.43
3194.00,96.46
3193.00,96.48
3192.00,96.49
3191.00,96.50
3190.00,96.51
3189.00,96.50
3188.00,96.50
3187.00,96.50
3186.00,96.53
3185.00,96.57
3184.00,96.62
3183.00,96.67
3182.00,96.71
3181.00,96.75
3180.00,96.77
3179.00,96.78
3178.00,96.79
3177.00,96.80
3176.00,96.81
3175.00,96.83
3174.00,96.86
3173.00,96.90
3172.00,96.94
3171.00,96.97
3170.00,96.99
3169.00,97.00
3168.00,97.00
3167.00,97.02
3166.00,97.05
3165.00,97.08
3164.00,97.12
3163.00,97.15
3162.00,97.16
3161.00,97.18
3160.00,97.21
3159.00,97.24
3158.00,97.27
3157.00,97.30
3156.00,97.33
3155.00,97.35
3154.00,97.37
3153.00,97.38
3152.00,97.40
3151.00,97.43
3150.00,97.45
3149.00,97.47
3148.00,97.47
3147.00,97.46
3146.00,97.46
3145.00,97.47
3144.00,97.49
3143.00,97.50
3142.00,97.50
3141.00,97.51
3140.00,97.52
3139.00,97.54
3138.00,97.56
3137.00,97.57
3136.00,97.58
3135.00,97.59
3134.00,97.60
3133.00,97.60
3132.00,97.58
3131.00,97.56
3130.00,97.53
3129.00,97.53
3128.00,97.54
3127.00,97.56
3126.00,97.56
3125.00,97.55
3124.00,97.55
3123.00,97.55
3122.00,97.56
3121.00,97.57
3120.00,97.57
3119.00,97.57
3118.00,97.56
3117.00,97.54
3116.00,97.52
3115.00,97.50
3114.00,97.48
3113.00,97.46
3112.00,97.45
3111.00,97.43
3110.00,97.42
3109.00,97.41
3108.00,97.40
3107.00,97.39
3106.00,97.38
3105.00,97.36
3104.00,97.33
3103.00,97.31
3102.00,97.28
3101.00,97.26
3100.00,97.23
3099.00,97.20
3098.00,97.17
3097.00,97.15
3096.00,97.13
3095.00,97.12
3094.00,97.11
3093.00,97.10
3092.00,97.09
3091.00,97.06
3090.00,97.02
3089.00,96.97
3088.00,96.93
3087.00,96.89
3086.00,96.85
3085.00,96.82
3084.00,96.79
3083.00,96.78
3082.00,96.77
3081.00,96.75
3080.00,96.74
3079.00,96.73
3078.00,96.71
3077.00,96.69
3076.00,96.67
3075.00,96.65
3074.00,96.63
3073.00,96.62
3072.00,96.61
3071.00,96.61
3070.00,96.61
3069.00,96.63
3068.00,96.65
3067.00,96.67
3066.00,96.69
3065.00,96.71
3064.00,96.73
3063.00,96.76
3062.00,96.79
3061.00,96.82
3060.00,96.84
3059.00,96.87
3058.00,96.90
3057.00,96.93
3056.00,96.97
3055.00,96.99
3054.00,97.01
3053.00,97.04
3052.00,97.07
3051.00,97.11
3050.00,97.17
3049.00,97.22
3048.00,97.27
3047.00,97.31
3046.00,97.35
3045.00,97.38
3044.00,97.42
3043.00,97.46
3042.00,97.49
3041.00,97.51
3040.00,97.53
3039.00,97.54
3038.00,97.55
3037.00,97.57
3036.00,97.59
3035.00,97.64
3034.00,97.69
3033.00,97.73
3032.00,97.76
3031.00,97.78
3030.00,97.78
3029.00,97.79
3028.00,97.79
3027.00,97.80
3026.00,97.80
3025.00,97.80
3024.00,97.81
3023.00,97.82
3022.00,97.83
3021.00,97.86
3020.00,97.88
3019.00,97.90
3018.00,97.92
3017.00,97.94
3016.00,97.98
3015.00,98.01
3014.00,98.02
3013.00,98.02
3012.00,98.01
3011.00,98.01
3010.00,98.02
3009.00,98.03
3008.00,98.04
3007.00,98.04
3006.00,98.05
3005.00,98.05
3004.00,98.06
3003.00,98.07
3002.00,98.06
3001.00,98.05
3000.00,98.04
2999.00,98.03
2998.00,98.03
2997.00,98.04
2996.00,98.05
2995.00,98.07
2994.00,98.07
2993.00,98.05
2992.00,98.03
2991.00,98.01
2990.00,97.98
2989.00,97.95
2988.00,97.94
2987.00,97.93
2986.00,97.93
2985.00,97.92
2984.00,97.90
2983.00,97.87
2982.00,97.83
2981.00,97.80
2980.00,97.76
2979.00,97.73
2978.00,97.69
2977.00,97.65
2976.00,97.59
2975.00,97.51
2974.00,97.42
2973.00,97.33
2972.00,97.25
2971.00,97.16
2970.00,97.06
2969.00,96.95
2968.00,96.83
2967.00,96.70
2966.00,96.58
2965.00,96.45
2964.00,96.31
2963.00,96.16
2962.00,96.00
2961.00,95.83
2960.00,95.65
2959.00,95.46
2958.00,95.26
2957.00,95.07
2956.00,94.87
2955.00,94.67
2954.00,94.45
2953.00,94.21
2952.00,93.96
2951.00,93.69
2950.00,93.41
2949.00,93.12
2948.00,92.82
2947.00,92.50
2946.00,92.16
2945.00,91.79
2944.00,91.41
2943.00,90.99
2942.00,90.55
2941.00,90.09
2940.00,89.62
2939.00,89.14
2938.00,88.63
2937.00,88.10
2936.00,87.57
2935.00,87.04
2934.00,86.51
2933.00,85.97
2932.00,85.46
2931.00,84.96
2930.00,84.50
2929.00,84.06
2928.00,83.66
2927.00,83.30
2926.00,82.97
2925.00,82.69
2924.00,82.46
2923.00,82.28
2922.00,82.16
2921.00,82.09
2920.00,82.08
2919.00,82.12
2918.00,82.21
2917.00,82.36
2916.00,82.56
2915.00,82.82
2914.00,83.13
2913.00,83.49
2912.00,83.86
2911.00,84.23
2910.00,84.59
2909.00,84.92
2908.00,85.24
2907.00,85.54
2906.00,85.83
2905.00,86.10
2904.00,86.35
2903.00,86.57
2902.00,86.78
2901.00,86.98
2900.00,87.17
2899.00,87.36
2898.00,87.55
2897.00,87.75
2896.00,87.95
2895.00,88.17
2894.00,88.39
2893.00,88.62
2892.00,88.85
2891.00,89.09
2890.00,89.33
2889.00,89.58
2888.00,89.83
2887.00,90.09
2886.00,90.35
2885.00,90.62
2884.00,90.88
2883.00,91.14
2882.00,91.38
2881.00,91.60
2880.00,91.80
2879.00,91.98
2878.00,92.13
2877.00,92.26
2876.00,92.36
2875.00,92.42
2874.00,92.45
2873.00,92.46
2872.00,92.43
2871.00,92.38
2870.00,92.28
2869.00,92.13
2868.00,91.94
2867.00,91.71
2866.00,91.43
2865.00,91.11
2864.00,90.74
2863.00,90.32
2862.00,89.87
2861.00,89.40
2860.00,88.92
2859.00,88.45
2858.00,87.98
2857.00,87.53
2856.00,87.10
2855.00,86.69
2854.00,86.32
2853.00,86.01
2852.00,85.81
2851.00,85.71
2850.00,85.73
2849.00,85.87
2848.00,86.10
2847.00,86.43
2846.00,86.82
2845.00,87.26
2844.00,87.76
2843.00,88.29
2842.00,88.85
2841.00,89.42
2840.00,89.99
2839.00,90.54
2838.00,91.06
2837.00,91.53
2836.00,91.96
2835.00,92.36
2834.00,92.72
2833.00,93.05
2832.00,93.37
2831.00,93.68
2830.00,93.98
2829.00,94.25
2828.00,94.49
2827.00,94.70
2826.00,94.88
2825.00,95.03
2824.00,95.17
2823.00,95.29
2822.00,95.39
2821.00,95.48
2820.00,95.56
2819.00,95.63
2818.00,95.69
2817.00,95.75
2816.00,95.81
2815.00,95.87
2814.00,95.93
2813.00,95.99
2812.00,96.04
2811.00,96.09
2810.00,96.13
2809.00,96.16
2808.00,96.19
2807.00,96.22
2806.00,96.25
2805.00,96.28
2804.00,96.31
2803.00,96.34
2802.00,96.37
2801.00,96.40
2800.00,96.44
2799.00,96.47
2798.00,96.52
2797.00,96.56
2796.00,96.60
2795.00,96.62
2794.00,96.64
2793.00,96.66
2792.00,96.69
2791.00,96.73
2790.00,96.77
2789.00,96.81
2788.00,96.84
2787.00,96.86
2786.00,96.88
2785.00,96.89
2784.00,96.90
2783.00,96.91
2782.00,96.93
2781.00,96.96
2780.00,97.00
2779.00,97.03
2778.00,97.05
2777.00,97.06
2776.00,97.08
2775.00,97.11
2774.00,97.13
2773.00,97.15
2772.00,97.16
2771.00,97.16
2770.00,97.17
2769.00,97.19
2768.00,97.21
2767.00,97.23
2766.00,97.24
2765.00,97.24
2764.00,97.24
2763.00,97.25
2762.00,97.27
2761.00,97.29
2760.00,97.30
2759.00,97.32
2758.00,97.33
2757.00,97.34
2756.00,97.35
2755.00,97.36
2754.00,97.36
2753.00,97.36
2752.00,97.35
2751.00,97.35
2750.00,97.35
2749.00,97.36
2748.00,97.37
2747.00,97.39
2746.00,97.41
2745.00,97.43
2744.00,97.44
2743.00,97.44
2742.00,97.43
2741.00,97.43
2740.00,97.44
2739.00,97.45
2738.00,97.46
2737.00,97.46
2736.00,97.46
2735.00,97.46
2734.00,97.46
2733.00,97.47
2732.00,97.47
2731.00,97.46
2730.00,97.45
2729.00,97.44
2728.00,97.43
2727.00,97.44
2726.00,97.45
2725.00,97.47
2724.00,97.49
2723.00,97.51
2722.00,97.53
2721.00,97.54
2720.00,97.54
2719.00,97.53
2718.00,97.52
2717.00,97.52
2716.00,97.52
2715.00,97.53
2714.00,97.54
2713.00,97.56
2712.00,97.58
2711.00,97.58
2710.00,97.58
2709.00,97.57
2708.00,97.55
2707.00,97.54
2706.00,97.54
2705.00,97.54
2704.00,97.55
2703.00,97.57
2702.00,97.57
2701.00,97.57
2700.00,97.57
2699.00,97.57
2698.00,97.58
2697.00,97.59
2696.00,97.59
2695.00,97.59
2694.00,97.58
2693.00,97.59
2692.00,97.59
2691.00,97.59
2690.00,97.59
2689.00,97.59
2688.00,97.59
2687.00,97.60
2686.00,97.59
2685.00,97.59
2684.00,97.59
2683.00,97.60
2682.00,97.60
2681.00,97.60
2680.00,97.59
2679.00,97.59
2678.00,97.59
2677.00,97.59
2676.00,97.59
2675.00,97.59
2674.00,97.59
2673.00,97.58
2672.00,97.57
2671.00,97.58
2670.00,97.60
2669.00,97.62
2668.00,97.64
2667.00,97.65
2666.00,97.65
2665.00,97.66
2664.00,97.66
2663.00,97.66
2662.00,97.65
2661.00,97.64
2660.00,97.62
2659.00,97.60
2658.00,97.59
2657.00,97.60
2656.00,97.61
2655.00,97.62
2654.00,97.62
2653.00,97.62
2652.00,97.61
2651.00,97.60
2650.00,97.59
2649.00,97.58
2648.00,97.57
2647.00,97.57
2646.00,97.57
2645.00,97.58
2644.00,97.59
2643.00,97.59
2642.00,97.59
2641.00,97.58
2640.00,97.56
2639.00,97.54
2638.00,97.53
2637.00,97.53
2636.00,97.53
2635.00,97.54
2634.00,97.54
2633.00,97.55
2632.00,97.53
2631.00,97.51
2630.00,97.49
2629.00,97.47
2628.00,97.46
2627.00,97.47
2626.00,97.49
2625.00,97.51
2624.00,97.53
2623.00,97.55
2622.00,97.56
2621.00,97.56
2620.00,97.55
2619.00,97.54
2618.00,97.53
2617.00,97.54
2616.00,97.54
2615.00,97.55
2614.00,97.55
2613.00,97.56
2612.00,97.58
2611.00,97.58
2610.00,97.56
2609.00,97.53
2608.00,97.51
2607.00,97.51
2606.00,97.52
2605.00,97.54
2604.00,97.55
2603.00,97.54
2602.00,97.53
2601.00,97.52
2600.00,97.52
2599.00,97.53
2598.00,97.53
2597.00,97.53
2596.00,97.52
2595.00,97.51
2594.00,97.50
2593.00,97.50
2592.00,97.50
2591.00,97.51
2590.00,97.53
2589.00,97.54
2588.00,97.55
2587.00,97.54
2586.00,97.52
2585.00,97.50
2584.00,97.50
2583.00,97.50
2582.00,97.51
2581.00,97.52
2580.00,97.53
2579.00,97.53
2578.00,97.54
2577.00,97.54
2576.00,97.54
2575.00,97.53
2574.00,97.52
2573.00,97.51
2572.00,97.49
2571.00,97.49
2570.00,97.50
2569.00,97.52
2568.00,97.53
2567.00,97.51
2566.00,97.48
2565.00,97.45
2564.00,97.44
2563.00,97.45
2562.00,97.47
2561.00,97.50
2560.00,97.51
2559.00,97.51
2558.00,97.51
2557.00,97.51
2556.00,97.52
2555.00,97.53
2554.00,97.53
2553.00,97.51
2552.00,97.50
2551.00,97.49
2550.00,97.50
2549.00,97.52
2548.00,97.53
2547.00,97.53
2546.00,97.52
2545.00,97.51
2544.00,97.52
2543.00,97.53
2542.00,97.53
2541.00,97.53
2540.00,97.52
2539.00,97.52
2538.00,97.53
2537.00,97.54
2536.00,97.56
2535.00,97.57
2534.00,97.58
2533.00,97.59
2532.00,97.58
2531.00,97.56
2530.00,97.55
2529.00,97.54
2528.00,97.54
2527.00,97.56
2526.00,97.58
2525.00,97.60
2524.00,97.61
2523.00,97.61
2522.00,97.61
2521.00,97.61
2520.00,97.59
2519.00,97.57
2518.00,97.55
2517.00,97.54
2516.00,97.54
2515.00,97.56
2514.00,97.58
2513.00,97.61
2512.00,97.64
2511.00,97.65
2510.00,97.65
2509.00,97.63
2508.00,97.61
2507.00,97.58
2506.00,97.57
2505.00,97.56
2504.00,97.57
2503.00,97.57
2502.00,97.57
2501.00,97.57
2500.00,97.58
2499.00,97.58
2498.00,97.59
2497.00,97.59
2496.00,97.59
2495.00,97.59
2494.00,97.59
2493.00,97.60
2492.00,97.61
2491.00,97.62
2490.00,97.61
2489.00,97.60
2488.00,97.59
2487.00,97.60
2486.00,97.61
2485.00,97.62
2484.00,97.61
2483.00,97.60
2482.00,97.59
2481.00,97.59
2480.00,97.60
2479.00,97.61
2478.00,97.63
2477.00,97.65
2476.00,97.67
2475.00,97.67
2474.00,97.66
2473.00,97.65
2472.00,97.65
2471.00,97.68
2470.00,97.70
2469.00,97.72
2468.00,97.71
2467.00,97.69
2466.00,97.66
2465.00,97.64
2464.00,97.64
2463.00,97.65
2462.00,97.66
2461.00,97.66
2460.00,97.66
2459.00,97.66
2458.00,97.67
2457.00,97.68
2456.00,97.69
2455.00,97.69
2454.00,97.68
2453.00,97.67
2452.00,97.67
2451.00,97.67
2450.00,97.66
2449.00,97.66
2448.00,97.67
2447.00,97.68
2446.00,97.68
2445.00,97.68
2444.00,97.68
2443.00,97.69
2442.00,97.68
2441.00,97.69
2440.00,97.70
2439.00,97.72
2438.00,97.74
2437.00,97.74
2436.00,97.74
2435.00,97.72
2434.00,97.71
2433.00,97.70
2432.00,97.69
2431.00,97.70
2430.00,97.72
2429.00,97.74
2428.00,97.76
2427.00,97.77
2426.00,97.76
2425.00,97.74
2424.00,97.72
2423.00,97.72
2422.00,97.73
2421.00,97.74
2420.00,97.74
2419.00,97.73
2418.00,97.72
2417.00,97.72
2416.00,97.73
2415.00,97.75
2414.00,97.77
2413.00,97.78
2412.00,97.80
2411.00,97.81
2410.00,97.82
2409.00,97.82
2408.00,97.82
2407.00,97.81
2406.00,97.80
2405.00,97.79
2404.00,97.78
2403.00,97.79
2402.00,97.80
2401.00,97.82
2400.00,97.84
2399.00,97.86
2398.00,97.87
2397.00,97.88
2396.00,97.89
2395.00,97.89
2394.00,97.89
2393.00,97.88
2392.00,97.88
2391.00,97.88
2390.00,97.88
2389.00,97.89
2388.00,97.90
2387.00,97.92
2386.00,97.94
2385.00,97.94
2384.00,97.93
2383.00,97.92
2382.00,97.93
2381.00,97.94
2380.00,97.95
2379.00,97.95
2378.00,97.96
2377.00,97.97
2376.00,97.98
2375.00,97.99
2374.00,98.00
2373.00,98.00
2372.00,97.99
2371.00,97.97
2370.00,97.96
2369.00,97.95
2368.00,97.95
2367.00,97.96
2366.00,97.97
2365.00,97.98
2364.00,98.00
2363.00,98.02
2362.00,98.01
2361.00,97.98
2360.00,97.94
2359.00,97.90
2358.00,97.87
2357.00,97.85
2356.00,97.85
2355.00,97.87
2354.00,97.89
2353.00,97.91
2352.00,97.94
2351.00,97.97
2350.00,97.99
2349.00,98.01
2348.00,98.04
2347.00,98.06
2346.00,98.07
2345.00,98.05
2344.00,98.01
2343.00,97.98
2342.00,97.97
2341.00,97.95
2340.00,97.94
2339.00,97.93
2338.00,97.93
2337.00,97.93
2336.00,97.94
2335.00,97.96
2334.00,97.99
2333.00,98.01
2332.00,98.02
2331.00,98.02
2330.00,98.01
2329.00,97.98
2328.00,97.94
2327.00,97.90
2326.00,97.88
2325.00,97.86
2324.00,97.85
2323.00,97.84
2322.00,97.83
2321.00,97.82
2320.00,97.81
2319.00,97.82
2318.00,97.83
2317.00,97.83
2316.00,97.84
2315.00,97.85
2314.00,97.86
2313.00,97.86
2312.00,97.84
2311.00,97.82
2310.00,97.81
2309.00,97.81
2308.00,97.81
2307.00,97.79
2306.00,97.77
2305.00,97.76
2304.00,97.76
2303.00,97.78
2302.00,97.79
2301.00,97.80
2300.00,97.80
2299.00,97.80
2298.00,97.79
2297.00,97.76
2296.00,97.73
2295.00,97.71
2294.00,97.69
2293.00,97.67
2292.00,97.64
2291.00,97.62
2290.00,97.59
2289.00,97.56
2288.00,97.55
2287.00,97.53
2286.00,97.52
2285.00,97.51
2284.00,97.50
2283.00,97.49
2282.00,97.48
2281.00,97.47
2280.00,97.46
2279.00,97.46
2278.00,97.45
2277.00,97.44
2276.00,97.43
2275.00,97.43
2274.00,97.43
2273.00,97.41
2272.00,97.38
2271.00,97.33
2270.00,97.29
2269.00,97.28
2268.00,97.29
2267.00,97.33
2266.00,97.37
2265.00,97.40
2264.00,97.38
2263.00,97.33
2262.00,97.29
2261.00,97.27
2260.00,97.28
2259.00,97.28
2258.00,97.28
2257.00,97.27
2256.00,97.26
2255.00,97.27
2254.00,97.29
2253.00,97.31
2252.00,97.31
2251.00,97.30
2250.00,97.29
2249.00,97.28
2248.00,97.28
2247.00,97.28
2246.00,97.28
2245.00,97.28
2244.00,97.27
2243.00,97.24
2242.00,97.20
2241.00,97.16
2240.00,97.13
2239.00,97.12
2238.00,97.12
2237.00,97.12
2236.00,97.12
2235.00,97.11
2234.00,97.09
2233.00,97.07
2232.00,97.08
2231.00,97.12
2230.00,97.17
2229.00,97.17
2228.00,97.15
2227.00,97.11
2226.00,97.09
2225.00,97.07
2224.00,97.05
2223.00,97.06
2222.00,97.11
2221.00,97.17
2220.00,97.19
2219.00,97.16
2218.00,97.12
2217.00,97.08
2216.00,97.06
2215.00,97.03
2214.00,96.99
2213.00,96.94
2212.00,96.90
2211.00,96.89
2210.00,96.91
2209.00,96.95
2208.00,96.97
2207.00,96.97
2206.00,96.96
2205.00,96.96
2204.00,96.94
2203.00,96.88
2202.00,96.79
2201.00,96.72
2200.00,96.69
2199.00,96.70
2198.00,96.72
2197.00,96.73
2196.00,96.73
2195.00,96.76
2194.00,96.82
2193.00,96.90
2192.00,96.95
2191.00,96.94
2190.00,96.90
2189.00,96.84
2188.00,96.77
2187.00,96.71
2186.00,96.67
2185.00,96.66
2184.00,96.67
2183.00,96.69
2182.00,96.71
2181.00,96.71
2180.00,96.68
2179.00,96.64
2178.00,96.60
2177.00,96.61
2176.00,96.65
2175.00,96.70
2174.00,96.72
2173.00,96.72
2172.00,96.70
2171.00,96.64
2170.00,96.56
2169.00,96.49
2168.00,96.46
2167.00,96.47
2166.00,96.47
2165.00,96.44
2164.00,96.39
2163.00,96.33
2162.00,96.29
2161.00,96.29
2160.00,96.38
2159.00,96.51
2158.00,96.62
2157.00,96.70
2156.00,96.75
2155.00,96.81
2154.00,96.86
2153.00,96.87
2152.00,96.84
2151.00,96.78
2150.00,96.73
2149.00,96.72
2148.00,96.73
2147.00,96.77
2146.00,96.82
2145.00,96.91
2144.00,97.00
2143.00,97.07
2142.00,97.10
2141.00,97.10
2140.00,97.08
2139.00,97.06
2138.00,97.04
2137.00,97.05
2136.00,97.10
2135.00,97.15
2134.00,97.19
2133.00,97.21
2132.00,97.23
2131.00,97.26
2130.00,97.28
2129.00,97.31
2128.00,97.33
2127.00,97.34
2126.00,97.34
2125.00,97.33
2124.00,97.32
2123.00,97.32
2122.00,97.33
2121.00,97.36
2120.00,97.39
2119.00,97.39
2118.00,97.36
2117.00,97.33
2116.00,97.31
2115.00,97.31
2114.00,97.35
2113.00,97.38
2112.00,97.39
2111.00,97.39
2110.00,97.40
2109.00,97.42
2108.00,97.45
2107.00,97.46
2106.00,97.45
2105.00,97.45
2104.00,97.45
2103.00,97.45
2102.00,97.41
2101.00,97.37
2100.00,97.34
2099.00,97.33
2098.00,97.34
2097.00,97.35
2096.00,97.39
2095.00,97.44
2094.00,97.48
2093.00,97.51
2092.00,97.51
2091.00,97.46
2090.00,97.37
2089.00,97.29
2088.00,97.25
2087.00,97.28
2086.00,97.35
2085.00,97.41
2084.00,97.44
2083.00,97.42
2082.00,97.38
2081.00,97.35
2080.00,97.35
2079.00,97.36
2078.00,97.38
2077.00,97.39
2076.00,97.38
2075.00,97.34
2074.00,97.27
2073.00,97.21
2072.00,97.21
2071.00,97.28
2070.00,97.35
2069.00,97.39
2068.00,97.37
2067.00,97.33
2066.00,97.30
2065.00,97.30
2064.00,97.32
2063.00,97.34
2062.00,97.31
2061.00,97.27
2060.00,97.24
2059.00,97.24
2058.00,97.23
2057.00,97.20
2056.00,97.16
2055.00,97.15
2054.00,97.15
2053.00,97.13
2052.00,97.07
2051.00,96.98
2050.00,96.91
2049.00,96.88
2048.00,96.87
2047.00,96.87
2046.00,96.87
2045.00,96.86
2044.00,96.87
2043.00,96.89
2042.00,96.92
2041.00,96.95
2040.00,96.94
2039.00,96.89
2038.00,96.83
2037.00,96.78
2036.00,96.75
2035.00,96.75
2034.00,96.77
2033.00,96.79
2032.00,96.81
2031.00,96.79
2030.00,96.77
2029.00,96.75
2028.00,96.74
2027.00,96.73
2026.00,96.72
2025.00,96.70
2024.00,96.68
2023.00,96.68
2022.00,96.70
2021.00,96.76
2020.00,96.83
2019.00,96.89
2018.00,96.93
2017.00,96.95
2016.00,96.96
2015.00,96.95
2014.00,96.91
2013.00,96.89
2012.00,96.91
2011.00,96.95
2010.00,97.00
2009.00,97.01
2008.00,96.98
2007.00,96.96
2006.00,96.97
2005.00,97.02
2004.00,97.08
2003.00,97.11
2002.00,97.12
2001.00,97.13
2000.00,97.16
1999.00,97.19
1998.00,97.18
1997.00,97.14
1996.00,97.07
1995.00,97.00
1994.00,96.93
1993.00,96.90
1992.00,96.93
1991.00,97.00
1990.00,97.07
1989.00,97.09
1988.00,97.05
1987.00,96.96
1986.00,96.87
1985.00,96.82
1984.00,96.84
1983.00,96.88
1982.00,96.90
1981.00,96.89
1980.00,96.86
1979.00,96.83
1978.00,96.82
1977.00,96.86
1976.00,96.94
1975.00,97.01
1974.00,97.01
1973.00,96.96
1972.00,96.91
1971.00,96.90
1970.00,96.93
1969.00,96.97
1968.00,97.00
1967.00,97.04
1966.00,97.06
1965.00,97.09
1964.00,97.13
1963.00,97.17
1962.00,97.19
1961.00,97.20
1960.00,97.20
1959.00,97.20
1958.00,97.22
1957.00,97.23
1956.00,97.27
1955.00,97.33
1954.00,97.40
1953.00,97.43
1952.00,97.42
1951.00,97.38
1950.00,97.34
1949.00,97.34
1948.00,97.39
1947.00,97.45
1946.00,97.50
1945.00,97.50
1944.00,97.50
1943.00,97.50
1942.00,97.53
1941.00,97.56
1940.00,97.58
1939.00,97.59
1938.00,97.59
1937.00,97.60
1936.00,97.60
1935.00,97.61
1934.00,97.63
1933.00,97.66
1932.00,97.70
1931.00,97.74
1930.00,97.76
1929.00,97.76
1928.00,97.76
1927.00,97.75
1926.00,97.74
1925.00,97.75
1924.00,97.77
1923.00,97.80
1922.00,97.82
1921.00,97.84
1920.00,97.85
1919.00,97.85
1918.00,97.82
1917.00,97.79
1916.00,97.78
1915.00,97.81
1914.00,97.85
1913.00,97.88
1912.00,97.88
1911.00,97.89
1910.00,97.90
1909.00,97.92
1908.00,97.94
1907.00,97.95
1906.00,97.95
1905.00,97.94
1904.00,97.94
1903.00,97.95
1902.00,97.96
1901.00,97.96
1900.00,97.96
1899.00,97.97
1898.00,97.98
1897.00,97.98
1896.00,98.00
1895.00,98.02
1894.00,98.05
1893.00,98.07
1892.00,98.09
1891.00,98.09
1890.00,98.07
1889.00,98.06
1888.00,98.05
1887.00,98.04
1886.00,98.03
1885.00,98.01
1884.00,98.01
1883.00,98.03
1882.00,98.06
1881.00,98.10
1880.00,98.12
1879.00,98.12
1878.00,98.12
1877.00,98.10
1876.00,98.08
1875.00,98.07
1874.00,98.07
1873.00,98.08
1872.00,98.08
1871.00,98.09
1870.00,98.10
1869.00,98.12
1868.00,98.15
1867.00,98.18
1866.00,98.20
1865.00,98.20
1864.00,98.20
1863.00,98.19
1862.00,98.18
1861.00,98.18
1860.00,98.20
1859.00,98.22
1858.00,98.23
1857.00,98.24
1856.00,98.24
1855.00,98.23
1854.00,98.22
1853.00,98.22
1852.00,98.22
1851.00,98.23
1850.00,98.24
1849.00,98.24
1848.00,98.24
1847.00,98.24
1846.00,98.25
1845.00,98.27
1844.00,98.28
1843.00,98.29
1842.00,98.28
1841.00,98.27
1840.00,98.28
1839.00,98.31
1838.00,98.33
1837.00,98.34
1836.00,98.33
1835.00,98.33
1834.00,98.34
1833.00,98.36
1832.00,98.37
1831.00,98.38
1830.00,98.38
1829.00,98.38
1828.00,98.38
1827.00,98.38
1826.00,98.39
1825.00,98.41
1824.00,98.42
1823.00,98.43
1822.00,98.45
1821.00,98.46
1820.00,98.47
1819.00,98.47
1818.00,98.47
1817.00,98.46
1816.00,98.46
1815.00,98.46
1814.00,98.47
1813.00,98.47
1812.00,98.47
1811.00,98.46
1810.00,98.46
1809.00,98.47
1808.00,98.49
1807.00,98.51
1806.00,98.53
1805.00,98.53
1804.00,98.53
1803.00,98.54
1802.00,98.54
1801.00,98.53
1800.00,98.53
1799.00,98.54
1798.00,98.54
1797.00,98.56
1796.00,98.56
1795.00,98.57
1794.00,98.57
1793.00,98.56
1792.00,98.55
1791.00,98.55
1790.00,98.55
1789.00,98.56
1788.00,98.57
1787.00,98.59
1786.00,98.61
1785.00,98.61
1784.00,98.60
1783.00,98.58
1782.00,98.57
1781.00,98.56
1780.00,98.56
1779.00,98.57
1778.00,98.57
1777.00,98.56
1776.00,98.56
1775.00,98.58
1774.00,98.60
1773.00,98.62
1772.00,98.61
1771.00,98.60
1770.00,98.59
1769.00,98.59
1768.00,98.59
1767.00,98.57
1766.00,98.55
1765.00,98.53
1764.00,98.52
1763.00,98.52
1762.00,98.53
1761.00,98.54
1760.00,98.54
1759.00,98.53
1758.00,98.51
1757.00,98.49
1756.00,98.48
1755.00,98.47
1754.00,98.47
1753.00,98.46
1752.00,98.44
1751.00,98.40
1750.00,98.36
1749.00,98.32
1748.00,98.28
1747.00,98.26
1746.00,98.25
1745.00,98.25
1744.00,98.24
1743.00,98.24
1742.00,98.24
1741.00,98.23
1740.00,98.21
1739.00,98.16
1738.00,98.12
1737.00,98.10
1736.00,98.11
1735.00,98.14
1734.00,98.16
1733.00,98.12
1732.00,98.04
1731.00,97.99
1730.00,97.99
1729.00,98.01
1728.00,98.03
1727.00,98.03
1726.00,98.01
1725.00,97.99
1724.00,97.98
1723.00,97.97
1722.00,97.95
1721.00,97.92
1720.00,97.90
1719.00,97.88
1718.00,97.89
1717.00,97.88
1716.00,97.86
1715.00,97.83
1714.00,97.80
1713.00,97.79
1712.00,97.79
1711.00,97.82
1710.00,97.84
1709.00,97.86
1708.00,97.87
1707.00,97.88
1706.00,97.91
1705.00,97.95
1704.00,97.99
1703.00,98.03
1702.00,98.09
1701.00,98.16
1700.00,98.20
1699.00,98.21
1698.00,98.20
1697.00,98.21
1696.00,98.20
1695.00,98.17
1694.00,98.10
1693.00,98.03
1692.00,97.95
1691.00,97.87
1690.00,97.78
1689.00,97.68
1688.00,97.60
1687.00,97.53
1686.00,97.42
1685.00,97.21
1684.00,96.91
1683.00,96.61
1682.00,96.37
1681.00,96.14
1680.00,95.90
1679.00,95.67
1678.00,95.46
1677.00,95.22
1676.00,94.92
1675.00,94.58
1674.00,94.27
1673.00,94.01
1672.00,93.75
1671.00,93.47
1670.00,93.14
1669.00,92.79
1668.00,92.44
1667.00,92.12
1666.00,91.82
1665.00,91.47
1664.00,91.03
1663.00,90.52
1662.00,90.01
1661.00,89.54
1660.00,89.08
1659.00,88.62
1658.00,88.18
1657.00,87.79
1656.00,87.43
1655.00,87.02
1654.00,86.38
1653.00,85.48
1652.00,84.71
1651.00,84.18
1650.00,83.75
1649.00,83.28
1648.00,82.65
1647.00,81.90
1646.00,81.18
1645.00,80.58
1644.00,80.02
1643.00,79.48
1642.00,78.96
1641.00,78.47
1640.00,78.02
1639.00,77.64
1638.00,77.35
1637.00,77.15
1636.00,77.09
1635.00,77.18
1634.00,77.36
1633.00,77.53
1632.00,77.72
1631.00,77.94
1630.00,78.22
1629.00,78.55
1628.00,78.91
1627.00,79.26
1626.00,79.58
1625.00,79.93
1624.00,80.37
1623.00,80.90
1622.00,81.45
1621.00,81.94
1620.00,82.40
1619.00,82.88
1618.00,83.49
1617.00,84.26
1616.00,85.04
1615.00,85.67
1614.00,86.16
1613.00,86.64
1612.00,87.14
1611.00,87.65
1610.00,88.13
1609.00,88.60
1608.00,89.06
1607.00,89.50
1606.00,89.89
1605.00,90.25
1604.00,90.61
1603.00,90.95
1602.00,91.26
1601.00,91.55
1600.00,91.85
1599.00,92.12
1598.00,92.34
1597.00,92.54
1596.00,92.75
1595.00,92.94
1594.00,93.09
1593.00,93.20
1592.00,93.31
1591.00,93.41
1590.00,93.48
1589.00,93.53
1588.00,93.57
1587.00,93.58
1586.00,93.56
1585.00,93.51
1584.00,93.47
1583.00,93.41
1582.00,93.32
1581.00,93.21
1580.00,93.13
1579.00,93.06
1578.00,92.96
1577.00,92.81
1576.00,92.61
1575.00,92.37
1574.00,92.12
1573.00,91.88
1572.00,91.65
1571.00,91.35
1570.00,90.93
1569.00,90.46
1568.00,90.05
1567.00,89.65
1566.00,89.21
1565.00,88.71
1564.00,88.22
1563.00,87.82
1562.00,87.46
1561.00,87.06
1560.00,86.42
1559.00,85.48
1558.00,84.64
1557.00,84.10
1556.00,83.66
1555.00,83.18
1554.00,82.65
1553.00,82.13
1552.00,81.65
1551.00,81.18
1550.00,80.70
1549.00,80.25
1548.00,79.86
1547.00,79.51
1546.00,79.17
1545.00,78.84
1544.00,78.57
1543.00,78.37
1542.00,78.20
1541.00,78.06
1540.00,77.97
1539.00,77.93
1538.00,77.91
1537.00,77.88
1536.00,77.88
1535.00,77.95
1534.00,78.11
1533.00,78.38
1532.00,78.65
1531.00,78.89
1530.00,79.11
1529.00,79.35
1528.00,79.64
1527.00,79.99
1526.00,80.37
1525.00,80.73
1524.00,81.06
1523.00,81.42
1522.00,81.87
1521.00,82.36
1520.00,82.75
1519.00,83.02
1518.00,83.30
1517.00,83.64
1516.00,83.99
1515.00,84.30
1514.00,84.56
1513.00,84.80
1512.00,85.04
1511.00,85.25
1510.00,85.46
1509.00,85.68
1508.00,85.97
1507.00,86.42
1506.00,86.88
1505.00,87.16
1504.00,87.31
1503.00,87.46
1502.00,87.65
1501.00,87.89
1500.00,88.15
1499.00,88.43
1498.00,88.76
1497.00,89.12
1496.00,89.46
1495.00,89.75
1494.00,89.98
1493.00,90.18
1492.00,90.37
1491.00,90.59
1490.00,90.87
1489.00,91.14
1488.00,91.37
1487.00,91.56
1486.00,91.74
1485.00,91.90
1484.00,92.02
1483.00,92.12
1482.00,92.21
1481.00,92.30
1480.00,92.37
1479.00,92.43
1478.00,92.49
1477.00,92.53
1476.00,92.53
1475.00,92.49
1474.00,92.37
1473.00,92.10
1472.00,91.68
1471.00,91.22
1470.00,90.77
1469.00,90.36
1468.00,90.01
1467.00,89.75
1466.00,89.61
1465.00,89.55
1464.00,89.53
1463.00,89.53
1462.00,89.53
1461.00,89.53
1460.00,89.51
1459.00,89.49
1458.00,89.41
1457.00,89.22
1456.00,88.90
1455.00,88.53
1454.00,88.15
1453.00,87.71
1452.00,87.24
1451.00,86.78
1450.00,86.37
1449.00,86.04
1448.00,85.83
1447.00,85.79
1446.00,85.91
1445.00,86.16
1444.00,86.49
1443.00,86.88
1442.00,87.28
1441.00,87.65
1440.00,87.96
1439.00,88.23
1438.00,88.49
1437.00,88.77
1436.00,89.07
1435.00,89.33
1434.00,89.54
1433.00,89.76
1432.00,90.01
1431.00,90.29
1430.00,90.58
1429.00,90.83
1428.00,91.02
1427.00,91.14
1426.00,91.21
1425.00,91.26
1424.00,91.28
1423.00,91.29
1422.00,91.27
1421.00,91.26
1420.00,91.28
1419.00,91.35
1418.00,91.48
1417.00,91.63
1416.00,91.79
1415.00,91.96
1414.00,92.15
1413.00,92.36
1412.00,92.57
1411.00,92.77
1410.00,92.94
1409.00,93.09
1408.00,93.21
1407.00,93.31
1406.00,93.41
1405.00,93.51
1404.00,93.60
1403.00,93.66
1402.00,93.70
1401.00,93.72
1400.00,93.75
1399.00,93.77
1398.00,93.79
1397.00,93.80
1396.00,93.80
1395.00,93.79
1394.00,93.78
1393.00,93.76
1392.00,93.72
1391.00,93.65
1390.00,93.57
1389.00,93.47
1388.00,93.36
1387.00,93.23
1386.00,93.08
1385.00,92.94
1384.00,92.80
1383.00,92.66
1382.00,92.53
1381.00,92.42
1380.00,92.31
1379.00,92.21
1378.00,92.13
1377.00,92.06
1376.00,92.00
1375.00,91.95
1374.00,91.91
1373.00,91.87
1372.00,91.84
1371.00,91.78
1370.00,91.72
1369.00,91.64
1368.00,91.54
1367.00,91.43
1366.00,91.32
1365.00,91.22
1364.00,91.12
1363.00,91.03
1362.00,90.97
1361.00,90.94
1360.00,90.91
1359.00,90.89
1358.00,90.88
1357.00,90.88
1356.00,90.89
1355.00,90.92
1354.00,90.96
1353.00,91.01
1352.00,91.06
1351.00,91.11
1350.00,91.17
1349.00,91.23
1348.00,91.29
1347.00,91.35
1346.00,91.40
1345.00,91.44
1344.00,91.45
1343.00,91.44
1342.00,91.42
1341.00,91.38
1340.00,91.35
1339.00,91.31
1338.00,91.28
1337.00,91.27
1336.00,91.29
1335.00,91.33
1334.00,91.40
1333.00,91.48
1332.00,91.57
1331.00,91.69
1330.00,91.81
1329.00,91.94
1328.00,92.05
1327.00,92.15
1326.00,92.24
1325.00,92.32
1324.00,92.38
1323.00,92.43
1322.00,92.47
1321.00,92.51
1320.00,92.54
1319.00,92.57
1318.00,92.59
1317.00,92.61
1316.00,92.62
1315.00,92.62
1314.00,92.62
1313.00,92.62
1312.00,92.61
1311.00,92.60
1310.00,92.57
1309.00,92.55
1308.00,92.51
1307.00,92.47
1306.00,92.43
1305.00,92.40
1304.00,92.37
1303.00,92.37
1302.00,92.39
1301.00,92.44
1300.00,92.52
1299.00,92.63
1298.00,92.76
1297.00,92.91
1296.00,93.05
1295.00,93.17
1294.00,93.25
1293.00,93.30
1292.00,93.32
1291.00,93.32
1290.00,93.30
1289.00,93.25
1288.00,93.18
1287.00,93.09
1286.00,92.99
1285.00,92.89
1284.00,92.78
1283.00,92.66
1282.00,92.54
1281.00,92.44
1280.00,92.35
1279.00,92.27
1278.00,92.21
1277.00,92.17
1276.00,92.15
1275.00,92.14
1274.00,92.14
1273.00,92.13
1272.00,92.10
1271.00,92.05
1270.00,91.99
1269.00,91.92
1268.00,91.86
1267.00,91.80
1266.00,91.74
1265.00,91.67
1264.00,91.59
1263.00,91.51
1262.00,91.44
1261.00,91.39
1260.00,91.34
1259.00,91.31
1258.00,91.28
1257.00,91.25
1256.00,91.22
1255.00,91.18
1254.00,91.14
1253.00,91.10
1252.00,91.06
1251.00,91.02
1250.00,90.99
1249.00,90.98
1248.00,90.98
1247.00,91.01
1246.00,91.04
1245.00,91.10
1244.00,91.16
1243.00,91.22
1242.00,91.27
1241.00,91.29
1240.00,91.29
1239.00,91.29
1238.00,91.31
1237.00,91.35
1236.00,91.41
1235.00,91.49
1234.00,91.56
1233.00,91.63
1232.00,91.68
1231.00,91.71
1230.00,91.72
1229.00,91.69
1228.00,91.62
1227.00,91.50
1226.00,91.39
1225.00,91.30
1224.00,91.26
1223.00,91.28
1222.00,91.35
1221.00,91.48
1220.00,91.62
1219.00,91.77
1218.00,91.91
1217.00,92.03
1216.00,92.15
1215.00,92.26
1214.00,92.35
1213.00,92.43
1212.00,92.49
1211.00,92.54
1210.00,92.58
1209.00,92.63
1208.00,92.68
1207.00,92.73
1206.00,92.78
1205.00,92.83
1204.00,92.88
1203.00,92.93
1202.00,92.97
1201.00,93.00
1200.00,93.02
1199.00,93.05
1198.00,93.08
1197.00,93.13
1196.00,93.17
1195.00,93.23
1194.00,93.29
1193.00,93.37
1192.00,93.45
1191.00,93.53
1190.00,93.60
1189.00,93.68
1188.00,93.74
1187.00,93.79
1186.00,93.85
1185.00,93.90
1184.00,93.94
1183.00,93.97
1182.00,94.00
1181.00,94.02
1180.00,94.03
1179.00,94.04
1178.00,94.06
1177.00,94.09
1176.00,94.12
1175.00,94.15
1174.00,94.18
1173.00,94.20
1172.00,94.24
1171.00,94.26
1170.00,94.27
1169.00,94.26
1168.00,94.23
1167.00,94.17
1166.00,94.08
1165.00,93.97
1164.00,93.85
1163.00,93.73
1162.00,93.63
1161.00,93.54
1160.00,93.45
1159.00,93.36
1158.00,93.27
1157.00,93.19
1156.00,93.14
1155.00,93.14
1154.00,93.21
1153.00,93.34
1152.00,93.50
1151.00,93.68
1150.00,93.85
1149.00,94.02
1148.00,94.15
1147.00,94.25
1146.00,94.33
1145.00,94.39
1144.00,94.42
1143.00,94.40
1142.00,94.33
1141.00,94.21
1140.00,94.06
1139.00,93.88
1138.00,93.66
1137.00,93.39
1136.00,93.07
1135.00,92.75
1134.00,92.45
1133.00,92.18
1132.00,91.94
1131.00,91.74
1130.00,91.58
1129.00,91.46
1128.00,91.40
1127.00,91.38
1126.00,91.39
1125.00,91.42
1124.00,91.48
1123.00,91.55
1122.00,91.61
1121.00,91.65
1120.00,91.66
1119.00,91.67
1118.00,91.68
1117.00,91.70
1116.00,91.73
1115.00,91.76
1114.00,91.81
1113.00,91.89
1112.00,92.00
1111.00,92.11
1110.00,92.18
1109.00,92.21
1108.00,92.22
1107.00,92.25
1106.00,92.29
1105.00,92.32
1104.00,92.33
1103.00,92.31
1102.00,92.29
1101.00,92.29
1100.00,92.32
1099.00,92.37
1098.00,92.45
1097.00,92.53
1096.00,92.61
1095.00,92.70
1094.00,92.80
1093.00,92.91
1092.00,93.02
1091.00,93.12
1090.00,93.22
1089.00,93.33
1088.00,93.46
1087.00,93.60
1086.00,93.74
1085.00,93.86
1084.00,93.95
1083.00,94.01
1082.00,94.04
1081.00,94.05
1080.00,94.08
1079.00,94.13
1078.00,94.21
1077.00,94.29
1076.00,94.36
1075.00,94.42
1074.00,94.48
1073.00,94.55
1072.00,94.60
1071.00,94.62
1070.00,94.62
1069.00,94.61
1068.00,94.62
1067.00,94.65
1066.00,94.70
1065.00,94.76
1064.00,94.83
1063.00,94.86
1062.00,94.85
1061.00,94.81
1060.00,94.78
1059.00,94.77
1058.00,94.78
1057.00,94.78
1056.00,94.77
1055.00,94.74
1054.00,94.71
1053.00,94.68
1052.00,94.66
1051.00,94.65
1050.00,94.65
1049.00,94.64
1048.00,94.60
1047.00,94.53
1046.00,94.45
1045.00,94.38
1044.00,94.30
1043.00,94.22
1042.00,94.13
1041.00,94.03
1040.00,93.92
1039.00,93.78
1038.00,93.62
1037.00,93.44
1036.00,93.25
1035.00,93.07
1034.00,92.92
1033.00,92.82
1032.00,92.77
1031.00,92.75
1030.00,92.77
1029.00,92.83
1028.00,92.93
1027.00,93.09
1026.00,93.29
1025.00,93.48
1024.00,93.64
1023.00,93.78
1022.00,93.90
1021.00,94.01
1020.00,94.10
1019.00,94.16
1018.00,94.19
1017.00,94.18
1016.00,94.15
1015.00,94.09
1014.00,94.01
1013.00,93.89
1012.00,93.74
1011.00,93.58
1010.00,93.45
1009.00,93.36
1008.00,93.34
1007.00,93.38
1006.00,93.47
1005.00,93.60
1004.00,93.75
1003.00,93.93
1002.00,94.11
1001.00,94.28
1000.00,94.44
999.00,94.59
998.00,94.74
997.00,94.88
996.00,95.01
995.00,95.12
994.00,95.21
993.00,95.27
992.00,95.32
991.00,95.35
990.00,95.38
989.00,95.39
988.00,95.39
987.00,95.38
986.00,95.37
985.00,95.38
984.00,95.38
983.00,95.38
982.00,95.39
981.00,95.38
980.00,95.37
979.00,95.35
978.00,95.32
977.00,95.31
976.00,95.29
975.00,95.27
974.00,95.23
973.00,95.18
972.00,95.11
971.00,95.02
970.00,94.93
969.00,94.83
968.00,94.72
967.00,94.60
966.00,94.48
965.00,94.34
964.00,94.20
963.00,94.05
962.00,93.91
961.00,93.79
960.00,93.69
959.00,93.62
958.00,93.61
957.00,93.67
956.00,93.81
955.00,93.99
954.00,94.18
953.00,94.35
952.00,94.50
951.00,94.61
950.00,94.69
949.00,94.76
948.00,94.83
947.00,94.87
946.00,94.90
945.00,94.92
944.00,94.92
943.00,94.91
942.00,94.90
941.00,94.90
940.00,94.92
939.00,94.97
938.00,95.04
937.00,95.10
936.00,95.14
935.00,95.18
934.00,95.22
933.00,95.27
932.00,95.30
931.00,95.33
930.00,95.37
929.00,95.41
928.00,95.46
927.00,95.50
926.00,95.53
925.00,95.55
924.00,95.57
923.00,95.58
922.00,95.57
921.00,95.53
920.00,95.45
919.00,95.34
918.00,95.22
917.00,95.11
916.00,94.98
915.00,94.84
914.00,94.68
913.00,94.54
912.00,94.44
911.00,94.40
910.00,94.42
909.00,94.45
908.00,94.48
907.00,94.49
906.00,94.48
905.00,94.41
904.00,94.26
903.00,94.02
902.00,93.73
901.00,93.45
900.00,93.21
899.00,93.05
898.00,93.01
897.00,93.12
896.00,93.40
895.00,93.79
894.00,94.22
893.00,94.61
892.00,94.93
891.00,95.19
890.00,95.41
889.00,95.60
888.00,95.75
887.00,95.87
886.00,95.98
885.00,96.07
884.00,96.15
883.00,96.20
882.00,96.24
881.00,96.30
880.00,96.37
879.00,96.42
878.00,96.45
877.00,96.46
876.00,96.46
875.00,96.48
874.00,96.51
873.00,96.56
872.00,96.62
871.00,96.68
870.00,96.73
869.00,96.77
868.00,96.79
867.00,96.81
866.00,96.84
865.00,96.89
864.00,96.94
863.00,96.96
862.00,96.96
861.00,96.97
860.00,97.01
859.00,97.06
858.00,97.09
857.00,97.11
856.00,97.11
855.00,97.10
854.00,97.10
853.00,97.10
852.00,97.10
851.00,97.10
850.00,97.11
849.00,97.13
848.00,97.15
847.00,97.15
846.00,97.14
845.00,97.13
844.00,97.14
843.00,97.15
842.00,97.16
841.00,97.14
840.00,97.13
839.00,97.12
838.00,97.11
837.00,97.10
836.00,97.08
835.00,97.06
834.00,97.05
833.00,97.05
832.00,97.08
831.00,97.10
830.00,97.09
829.00,97.07
828.00,97.04
827.00,97.03
826.00,97.02
825.00,97.01
824.00,97.00
823.00,96.98
822.00,96.95
821.00,96.94
820.00,96.94
819.00,96.94
818.00,96.94
817.00,96.94
816.00,96.96
815.00,97.00
814.00,97.02
813.00,97.03
812.00,97.03
811.00,97.04
810.00,97.05
809.00,97.05
808.00,97.03
807.00,97.03
806.00,97.04
805.00,97.04
804.00,96.99
803.00,96.91
802.00,96.82
801.00,96.77
800.00,96.77
799.00,96.77
798.00,96.75
797.00,96.69
796.00,96.61
795.00,96.53
794.00,96.48
793.00,96.43
792.00,96.40
791.00,96.39
790.00,96.39
789.00,96.41
788.00,96.43
787.00,96.43
786.00,96.40
785.00,96.35
784.00,96.31
783.00,96.30
782.00,96.31
781.00,96.32
780.00,96.29
779.00,96.24
778.00,96.19
777.00,96.17
776.00,96.18
775.00,96.20
774.00,96.20
773.00,96.18
772.00,96.11
771.00,96.00
770.00,95.90
769.00,95.85
768.00,95.83
767.00,95.82
766.00,95.78
765.00,95.71
764.00,95.63
763.00,95.56
762.00,95.49
761.00,95.42
760.00,95.34
759.00,95.26
758.00,95.20
757.00,95.12
756.00,95.02
755.00,94.93
754.00,94.89
753.00,94.90
752.00,94.92
751.00,94.92
750.00,94.88
749.00,94.80
748.00,94.70
747.00,94.62
746.00,94.57
745.00,94.56
744.00,94.53
743.00,94.46
742.00,94.36
741.00,94.25
740.00,94.15
739.00,94.05
738.00,93.95
737.00,93.85
736.00,93.72
735.00,93.57
734.00,93.46
733.00,93.38
732.00,93.31
731.00,93.20
730.00,93.01
729.00,92.78
728.00,92.54
727.00,92.31
726.00,92.07
725.00,91.80
724.00,91.51
723.00,91.25
722.00,91.07
721.00,90.98
720.00,90.99
719.00,91.04
718.00,91.09
717.00,91.13
716.00,91.17
715.00,91.21
714.00,91.25
713.00,91.30
712.00,91.32
711.00,91.31
710.00,91.28
709.00,91.23
708.00,91.17
707.00,91.11
706.00,91.05
705.00,90.97
704.00,90.90
703.00,90.85
702.00,90.82
701.00,90.78
700.00,90.74
699.00,90.68
698.00,90.63
697.00,90.58
696.00,90.54
695.00,90.50
694.00,90.47
693.00,90.45
692.00,90.45
691.00,90.48
690.00,90.52
689.00,90.57
688.00,90.63
687.00,90.70
686.00,90.79
685.00,90.89
684.00,90.97
683.00,91.05
682.00,91.13
681.00,91.22
680.00,91.32
679.00,91.42
678.00,91.51
677.00,91.58
676.00,91.62
675.00,91.67
674.00,91.73
673.00,91.78
672.00,91.79
671.00,91.74
670.00,91.67
669.00,91.65
668.00,91.79
667.00,92.00
666.00,92.12
665.00,92.12
664.00,92.09
663.00,92.11
662.00,92.19
661.00,92.27
660.00,92.30
659.00,92.26
658.00,92.20
657.00,92.17
656.00,92.17
655.00,92.19
654.00,92.21
653.00,92.21
652.00,92.18
651.00,92.12
650.00,92.02
649.00,91.90
648.00,91.81
647.00,91.78
646.00,91.82
645.00,91.86
644.00,91.85
643.00,91.79
642.00,91.71
641.00,91.64
640.00,91.60
639.00,91.61
638.00,91.66
637.00,91.67
636.00,91.59
635.00,91.46
634.00,91.40
633.00,91.48
632.00,91.67
631.00,91.84
630.00,91.92
629.00,91.88
628.00,91.85
627.00,91.92
626.00,92.10
625.00,92.32
624.00,92.54
623.00,92.74
622.00,92.89
621.00,92.88
620.00,92.67
619.00,92.38
618.00,92.17
617.00,92.16
616.00,92.37
615.00,92.76
614.00,93.13
613.00,93.17
612.00,92.81
611.00,92.30
610.00,91.98
609.00,91.96
608.00,92.11
607.00,92.29
606.00,92.43
605.00,92.47
604.00,92.44
603.00,92.52
602.00,92.83
601.00,93.24
600.00,93.37
599.00,93.08
598.00,92.64
597.00,92.35
596.00,92.17
595.00,91.91
594.00,91.58
593.00,91.37
592.00,91.40
591.00,91.58
590.00,91.75
589.00,91.87
588.00,91.98
587.00,92.03
586.00,91.90
585.00,91.54
584.00,91.09
583.00,90.80
582.00,90.81
581.00,91.00
580.00,91.23
579.00,91.47
578.00,91.82
577.00,92.23
576.00,92.55
575.00,92.67
574.00,92.58
573.00,92.28
572.00,91.82
571.00,91.41
570.00,91.31
569.00,91.52
568.00,91.83
567.00,92.17
566.00,92.57
565.00,92.89
564.00,92.79
563.00,92.22
562.00,91.61
561.00,91.40
560.00,91.50
559.00,91.42
558.00,90.90
557.00,90.21
556.00,89.87
555.00,90.23
554.00,91.07
553.00,91.85
552.00,92.19
551.00,92.06
550.00,91.67
