Created as New Dataset,93 Du Pont
cm-1,%T
4000.00,98.71
3999.00,98.71
3998.00,98.71
3997.00,98.72
3996.00,98.71
3995.00,98.71
3994.00,98.70
3993.00,98.69
3992.00,98.70
3991.00,98.72
3990.00,98.73
3989.00,98.73
3988.00,98.72
3987.00,98.71
3986.00,98.69
3985.00,98.69
3984.00,98.68
3983.00,98.68
3982.00,98.68
3981.00,98.68
3980.00,98.69
3979.00,98.71
3978.00,98.72
3977.00,98.74
3976.00,98.75
3975.00,98.76
3974.00,98.76
3973.00,98.75
3972.00,98.74
3971.00,98.73
3970.00,98.73
3969.00,98.73
3968.00,98.73
3967.00,98.73
3966.00,98.73
3965.00,98.72
3964.00,98.71
3963.00,98.69
3962.00,98.68
3961.00,98.68
3960.00,98.68
3959.00,98.68
3958.00,98.70
3957.00,98.71
3956.00,98.71
3955.00,98.71
3954.00,98.72
3953.00,98.73
3952.00,98.75
3951.00,98.78
3950.00,98.79
3949.00,98.79
3948.00,98.78
3947.00,98.77
3946.00,98.77
3945.00,98.77
3944.00,98.76
3943.00,98.74
3942.00,98.72
3941.00,98.71
3940.00,98.71
3939.00,98.71
3938.00,98.73
3937.00,98.75
3936.00,98.77
3935.00,98.78
3934.00,98.79
3933.00,98.78
3932.00,98.76
3931.00,98.74
3930.00,98.73
3929.00,98.73
3928.00,98.73
3927.00,98.73
3926.00,98.73
3925.00,98.74
3924.00,98.76
3923.00,98.78
3922.00,98.81
3921.00,98.81
3920.00,98.79
3919.00,98.76
3918.00,98.74
3917.00,98.74
3916.00,98.75
3915.00,98.75
3914.00,98.75
3913.00,98.74
3912.00,98.73
3911.00,98.73
3910.00,98.74
3909.00,98.75
3908.00,98.76
3907.00,98.76
3906.00,98.76
3905.00,98.75
3904.00,98.75
3903.00,98.76
3902.00,98.77
3901.00,98.77
3900.00,98.78
3899.00,98.78
3898.00,98.78
3897.00,98.79
3896.00,98.80
3895.00,98.80
3894.00,98.79
3893.00,98.77
3892.00,98.76
3891.00,98.77
3890.00,98.79
3889.00,98.80
3888.00,98.80
3887.00,98.78
3886.00,98.75
3885.00,98.73
3884.00,98.73
3883.00,98.74
3882.00,98.75
3881.00,98.75
3880.00,98.73
3879.00,98.72
3878.00,98.72
3877.00,98.74
3876.00,98.75
3875.00,98.77
3874.00,98.79
3873.00,98.80
3872.00,98.81
3871.00,98.81
3870.00,98.81
3869.00,98.82
3868.00,98.82
3867.00,98.83
3866.00,98.83
3865.00,98.82
3864.00,98.81
3863.00,98.81
3862.00,98.82
3861.00,98.82
3860.00,98.81
3859.00,98.80
3858.00,98.79
3857.00,98.79
3856.00,98.80
3855.00,98.81
3854.00,98.79
3853.00,98.78
3852.00,98.79
3851.00,98.81
3850.00,98.81
3849.00,98.80
3848.00,98.77
3847.00,98.74
3846.00,98.73
3845.00,98.73
3844.00,98.74
3843.00,98.75
3842.00,98.76
3841.00,98.77
3840.00,98.76
3839.00,98.75
3838.00,98.74
3837.00,98.74
3836.00,98.76
3835.00,98.78
3834.00,98.79
3833.00,98.78
3832.00,98.77
3831.00,98.76
3830.00,98.75
3829.00,98.75
3828.00,98.74
3827.00,98.73
3826.00,98.71
3825.00,98.71
3824.00,98.71
3823.00,98.73
3822.00,98.76
3821.00,98.77
3820.00,98.79
3819.00,98.81
3818.00,98.81
3817.00,98.78
3816.00,98.72
3815.00,98.67
3814.00,98.63
3813.00,98.62
3812.00,98.62
3811.00,98.61
3810.00,98.60
3809.00,98.61
3808.00,98.63
3807.00,98.65
3806.00,98.67
3805.00,98.67
3804.00,98.67
3803.00,98.67
3802.00,98.66
3801.00,98.67
3800.00,98.69
3799.00,98.71
3798.00,98.71
3797.00,98.70
3796.00,98.68
3795.00,98.67
3794.00,98.67
3793.00,98.67
3792.00,98.67
3791.00,98.64
3790.00,98.61
3789.00,98.58
3788.00,98.56
3787.00,98.55
3786.00,98.56
3785.00,98.56
3784.00,98.56
3783.00,98.55
3782.00,98.54
3781.00,98.54
3780.00,98.54
3779.00,98.54
3778.00,98.54
3777.00,98.54
3776.00,98.53
3775.00,98.54
3774.00,98.55
3773.00,98.57
3772.00,98.59
3771.00,98.59
3770.00,98.59
3769.00,98.58
3768.00,98.57
3767.00,98.55
3766.00,98.53
3765.00,98.50
3764.00,98.49
3763.00,98.49
3762.00,98.49
3761.00,98.50
3760.00,98.51
3759.00,98.52
3758.00,98.55
3757.00,98.57
3756.00,98.58
3755.00,98.60
3754.00,98.61
3753.00,98.62
3752.00,98.62
3751.00,98.62
3750.00,98.61
3749.00,98.61
3748.00,98.61
3747.00,98.60
3746.00,98.59
3745.00,98.57
3744.00,98.57
3743.00,98.56
3742.00,98.56
3741.00,98.56
3740.00,98.55
3739.00,98.55
3738.00,98.57
3737.00,98.59
3736.00,98.62
3735.00,98.64
3734.00,98.65
3733.00,98.65
3732.00,98.62
3731.00,98.59
3730.00,98.57
3729.00,98.56
3728.00,98.56
3727.00,98.54
3726.00,98.51
3725.00,98.48
3724.00,98.47
3723.00,98.47
3722.00,98.45
3721.00,98.43
3720.00,98.41
3719.00,98.40
3718.00,98.40
3717.00,98.41
3716.00,98.43
3715.00,98.45
3714.00,98.46
3713.00,98.48
3712.00,98.48
3711.00,98.47
3710.00,98.45
3709.00,98.43
3708.00,98.40
3707.00,98.37
3706.00,98.33
3705.00,98.31
3704.00,98.31
3703.00,98.33
3702.00,98.36
3701.00,98.40
3700.00,98.42
3699.00,98.42
3698.00,98.40
3697.00,98.36
3696.00,98.32
3695.00,98.30
3694.00,98.30
3693.00,98.31
3692.00,98.33
3691.00,98.35
3690.00,98.37
3689.00,98.37
3688.00,98.38
3687.00,98.37
3686.00,98.36
3685.00,98.33
3684.00,98.30
3683.00,98.26
3682.00,98.24
3681.00,98.23
3680.00,98.24
3679.00,98.25
3678.00,98.26
3677.00,98.26
3676.00,98.26
3675.00,98.28
3674.00,98.33
3673.00,98.39
3672.00,98.42
3671.00,98.40
3670.00,98.35
3669.00,98.30
3668.00,98.27
3667.00,98.26
3666.00,98.23
3665.00,98.20
3664.00,98.17
3663.00,98.14
3662.00,98.11
3661.00,98.10
3660.00,98.09
3659.00,98.09
3658.00,98.10
3657.00,98.10
3656.00,98.11
3655.00,98.12
3654.00,98.15
3653.00,98.19
3652.00,98.23
3651.00,98.25
3650.00,98.25
3649.00,98.25
3648.00,98.25
3647.00,98.25
3646.00,98.23
3645.00,98.19
3644.00,98.13
3643.00,98.07
3642.00,98.04
3641.00,98.02
3640.00,98.02
3639.00,98.02
3638.00,98.03
3637.00,98.05
3636.00,98.06
3635.00,98.07
3634.00,98.07
3633.00,98.08
3632.00,98.09
3631.00,98.11
3630.00,98.10
3629.00,98.06
3628.00,98.02
3627.00,97.98
3626.00,97.96
3625.00,97.95
3624.00,97.95
3623.00,97.94
3622.00,97.93
3621.00,97.91
3620.00,97.89
3619.00,97.87
3618.00,97.87
3617.00,97.90
3616.00,97.93
3615.00,97.94
3614.00,97.93
3613.00,97.90
3612.00,97.88
3611.00,97.86
3610.00,97.84
3609.00,97.82
3608.00,97.80
3607.00,97.79
3606.00,97.79
3605.00,97.79
3604.00,97.77
3603.00,97.74
3602.00,97.73
3601.00,97.73
3600.00,97.75
3599.00,97.76
3598.00,97.76
3597.00,97.75
3596.00,97.74
3595.00,97.74
3594.00,97.75
3593.00,97.76
3592.00,97.76
3591.00,97.74
3590.00,97.70
3589.00,97.66
3588.00,97.61
3587.00,97.59
3586.00,97.58
3585.00,97.58
3584.00,97.59
3583.00,97.58
3582.00,97.57
3581.00,97.56
3580.00,97.55
3579.00,97.53
3578.00,97.52
3577.00,97.50
3576.00,97.47
3575.00,97.44
3574.00,97.41
3573.00,97.38
3572.00,97.36
3571.00,97.35
3570.00,97.35
3569.00,97.35
3568.00,97.34
3567.00,97.32
3566.00,97.30
3565.00,97.28
3564.00,97.26
3563.00,97.24
3562.00,97.23
3561.00,97.23
3560.00,97.24
3559.00,97.23
3558.00,97.21
3557.00,97.19
3556.00,97.17
3555.00,97.16
3554.00,97.15
3553.00,97.15
3552.00,97.14
3551.00,97.11
3550.00,97.09
3549.00,97.06
3548.00,97.03
3547.00,97.00
3546.00,96.96
3545.00,96.92
3544.00,96.90
3543.00,96.89
3542.00,96.89
3541.00,96.88
3540.00,96.85
3539.00,96.81
3538.00,96.77
3537.00,96.75
3536.00,96.75
3535.00,96.76
3534.00,96.77
3533.00,96.78
3532.00,96.79
3531.00,96.78
3530.00,96.75
3529.00,96.70
3528.00,96.66
3527.00,96.62
3526.00,96.60
3525.00,96.58
3524.00,96.54
3523.00,96.49
3522.00,96.44
3521.00,96.43
3520.00,96.43
3519.00,96.44
3518.00,96.45
3517.00,96.45
3516.00,96.45
3515.00,96.44
3514.00,96.42
3513.00,96.40
3512.00,96.38
3511.00,96.36
3510.00,96.34
3509.00,96.31
3508.00,96.27
3507.00,96.24
3506.00,96.22
3505.00,96.20
3504.00,96.19
3503.00,96.19
3502.00,96.17
3501.00,96.16
3500.00,96.14
3499.00,96.13
3498.00,96.11
3497.00,96.10
3496.00,96.09
3495.00,96.08
3494.00,96.08
3493.00,96.07
3492.00,96.06
3491.00,96.04
3490.00,96.03
3489.00,96.03
3488.00,96.04
3487.00,96.04
3486.00,96.03
3485.00,96.01
3484.00,95.99
3483.00,96.00
3482.00,96.01
3481.00,96.03
3480.00,96.04
3479.00,96.03
3478.00,96.01
3477.00,95.98
3476.00,95.95
3475.00,95.93
3474.00,95.90
3473.00,95.88
3472.00,95.88
3471.00,95.87
3470.00,95.86
3469.00,95.85
3468.00,95.84
3467.00,95.85
3466.00,95.86
3465.00,95.88
3464.00,95.88
3463.00,95.87
3462.00,95.86
3461.00,95.84
3460.00,95.82
3459.00,95.82
3458.00,95.82
3457.00,95.83
3456.00,95.84
3455.00,95.85
3454.00,95.83
3453.00,95.79
3452.00,95.75
3451.00,95.72
3450.00,95.71
3449.00,95.71
3448.00,95.72
3447.00,95.72
3446.00,95.73
3445.00,95.73
3444.00,95.72
3443.00,95.70
3442.00,95.68
3441.00,95.66
3440.00,95.64
3439.00,95.62
3438.00,95.61
3437.00,95.60
3436.00,95.60
3435.00,95.61
3434.00,95.61
3433.00,95.61
3432.00,95.60
3431.00,95.61
3430.00,95.62
3429.00,95.63
3428.00,95.62
3427.00,95.61
3426.00,95.61
3425.00,95.62
3424.00,95.63
3423.00,95.63
3422.00,95.60
3421.00,95.55
3420.00,95.52
3419.00,95.50
3418.00,95.50
3417.00,95.50
3416.00,95.50
3415.00,95.50
3414.00,95.49
3413.00,95.47
3412.00,95.44
3411.00,95.41
3410.00,95.38
3409.00,95.36
3408.00,95.36
3407.00,95.37
3406.00,95.39
3405.00,95.38
3404.00,95.36
3403.00,95.32
3402.00,95.27
3401.00,95.24
3400.00,95.23
3399.00,95.24
3398.00,95.25
3397.00,95.25
3396.00,95.23
3395.00,95.19
3394.00,95.15
3393.00,95.13
3392.00,95.11
3391.00,95.10
3390.00,95.08
3389.00,95.05
3388.00,95.02
3387.00,95.00
3386.00,94.99
3385.00,94.99
3384.00,94.97
3383.00,94.95
3382.00,94.90
3381.00,94.85
3380.00,94.81
3379.00,94.76
3378.00,94.73
3377.00,94.69
3376.00,94.64
3375.00,94.59
3374.00,94.52
3373.00,94.46
3372.00,94.41
3371.00,94.36
3370.00,94.29
3369.00,94.22
3368.00,94.15
3367.00,94.08
3366.00,94.02
3365.00,93.96
3364.00,93.91
3363.00,93.86
3362.00,93.81
3361.00,93.74
3360.00,93.66
3359.00,93.57
3358.00,93.47
3357.00,93.37
3356.00,93.28
3355.00,93.20
3354.00,93.13
3353.00,93.04
3352.00,92.93
3351.00,92.80
3350.00,92.65
3349.00,92.50
3348.00,92.34
3347.00,92.19
3346.00,92.04
3345.00,91.90
3344.00,91.75
3343.00,91.59
3342.00,91.41
3341.00,91.22
3340.00,91.03
3339.00,90.85
3338.00,90.68
3337.00,90.50
3336.00,90.31
3335.00,90.10
3334.00,89.86
3333.00,89.61
3332.00,89.34
3331.00,89.06
3330.00,88.76
3329.00,88.46
3328.00,88.15
3327.00,87.84
3326.00,87.52
3325.00,87.19
3324.00,86.84
3323.00,86.47
3322.00,86.09
3321.00,85.70
3320.00,85.30
3319.00,84.90
3318.00,84.48
3317.00,84.03
3316.00,83.56
3315.00,83.08
3314.00,82.61
3313.00,82.15
3312.00,81.70
3311.00,81.27
3310.00,80.84
3309.00,80.42
3308.00,80.02
3307.00,79.66
3306.00,79.34
3305.00,79.06
3304.00,78.81
3303.00,78.57
3302.00,78.37
3301.00,78.21
3300.00,78.10
3299.00,78.05
3298.00,78.03
3297.00,78.04
3296.00,78.08
3295.00,78.15
3294.00,78.26
3293.00,78.42
3292.00,78.61
3291.00,78.81
3290.00,79.02
3289.00,79.24
3288.00,79.48
3287.00,79.73
3286.00,79.97
3285.00,80.22
3284.00,80.47
3283.00,80.73
3282.00,80.99
3281.00,81.23
3280.00,81.47
3279.00,81.72
3278.00,81.97
3277.00,82.22
3276.00,82.47
3275.00,82.71
3274.00,82.94
3273.00,83.16
3272.00,83.35
3271.00,83.54
3270.00,83.73
3269.00,83.91
3268.00,84.11
3267.00,84.31
3266.00,84.51
3265.00,84.71
3264.00,84.92
3263.00,85.13
3262.00,85.34
3261.00,85.56
3260.00,85.77
3259.00,85.98
3258.00,86.19
3257.00,86.39
3256.00,86.59
3255.00,86.79
3254.00,87.00
3253.00,87.19
3252.00,87.39
3251.00,87.58
3250.00,87.77
3249.00,87.95
3248.00,88.14
3247.00,88.32
3246.00,88.50
3245.00,88.67
3244.00,88.85
3243.00,89.01
3242.00,89.18
3241.00,89.35
3240.00,89.50
3239.00,89.63
3238.00,89.75
3237.00,89.87
3236.00,90.00
3235.00,90.15
3234.00,90.30
3233.00,90.43
3232.00,90.54
3231.00,90.64
3230.00,90.73
3229.00,90.82
3228.00,90.92
3227.00,91.03
3226.00,91.14
3225.00,91.24
3224.00,91.34
3223.00,91.42
3222.00,91.48
3221.00,91.54
3220.00,91.59
3219.00,91.64
3218.00,91.68
3217.00,91.72
3216.00,91.77
3215.00,91.83
3214.00,91.89
3213.00,91.95
3212.00,92.01
3211.00,92.06
3210.00,92.11
3209.00,92.17
3208.00,92.20
3207.00,92.23
3206.00,92.24
3205.00,92.26
3204.00,92.30
3203.00,92.36
3202.00,92.42
3201.00,92.47
3200.00,92.51
3199.00,92.54
3198.00,92.58
3197.00,92.62
3196.00,92.67
3195.00,92.71
3194.00,92.76
3193.00,92.81
3192.00,92.86
3191.00,92.92
3190.00,92.97
3189.00,93.03
3188.00,93.09
3187.00,93.15
3186.00,93.20
3185.00,93.25
3184.00,93.29
3183.00,93.33
3182.00,93.37
3181.00,93.42
3180.00,93.49
3179.00,93.57
3178.00,93.65
3177.00,93.72
3176.00,93.78
3175.00,93.83
3174.00,93.89
3173.00,93.95
3172.00,94.02
3171.00,94.08
3170.00,94.13
3169.00,94.17
3168.00,94.21
3167.00,94.25
3166.00,94.30
3165.00,94.37
3164.00,94.44
3163.00,94.51
3162.00,94.56
3161.00,94.60
3160.00,94.63
3159.00,94.68
3158.00,94.73
3157.00,94.79
3156.00,94.83
3155.00,94.86
3154.00,94.89
3153.00,94.91
3152.00,94.94
3151.00,94.96
3150.00,94.98
3149.00,94.99
3148.00,95.00
3147.00,95.00
3146.00,95.01
3145.00,95.01
3144.00,95.02
3143.00,95.04
3142.00,95.07
3141.00,95.11
3140.00,95.13
3139.00,95.13
3138.00,95.12
3137.00,95.11
3136.00,95.12
3135.00,95.13
3134.00,95.15
3133.00,95.14
3132.00,95.13
3131.00,95.12
3130.00,95.11
3129.00,95.10
3128.00,95.10
3127.00,95.08
3126.00,95.06
3125.00,95.04
3124.00,95.01
3123.00,94.99
3122.00,94.97
3121.00,94.95
3120.00,94.92
3119.00,94.89
3118.00,94.85
3117.00,94.82
3116.00,94.78
3115.00,94.75
3114.00,94.70
3113.00,94.63
3112.00,94.57
3111.00,94.50
3110.00,94.45
3109.00,94.39
3108.00,94.32
3107.00,94.25
3106.00,94.18
3105.00,94.12
3104.00,94.07
3103.00,94.02
3102.00,93.97
3101.00,93.90
3100.00,93.84
3099.00,93.77
3098.00,93.70
3097.00,93.64
3096.00,93.58
3095.00,93.52
3094.00,93.47
3093.00,93.42
3092.00,93.36
3091.00,93.31
3090.00,93.26
3089.00,93.22
3088.00,93.20
3087.00,93.17
3086.00,93.14
3085.00,93.12
3084.00,93.10
3083.00,93.09
3082.00,93.08
3081.00,93.07
3080.00,93.06
3079.00,93.07
3078.00,93.07
3077.00,93.07
3076.00,93.06
3075.00,93.05
3074.00,93.05
3073.00,93.06
3072.00,93.08
3071.00,93.10
3070.00,93.13
3069.00,93.17
3068.00,93.22
3067.00,93.27
3066.00,93.30
3065.00,93.32
3064.00,93.33
3063.00,93.36
3062.00,93.39
3061.00,93.45
3060.00,93.51
3059.00,93.58
3058.00,93.67
3057.00,93.76
3056.00,93.85
3055.00,93.93
3054.00,94.00
3053.00,94.06
3052.00,94.12
3051.00,94.19
3050.00,94.27
3049.00,94.38
3048.00,94.49
3047.00,94.60
3046.00,94.71
3045.00,94.81
3044.00,94.90
3043.00,94.97
3042.00,95.03
3041.00,95.09
3040.00,95.16
3039.00,95.23
3038.00,95.30
3037.00,95.36
3036.00,95.42
3035.00,95.48
3034.00,95.52
3033.00,95.57
3032.00,95.61
3031.00,95.65
3030.00,95.68
3029.00,95.71
3028.00,95.74
3027.00,95.77
3026.00,95.81
3025.00,95.84
3024.00,95.86
3023.00,95.87
3022.00,95.88
3021.00,95.91
3020.00,95.94
3019.00,95.97
3018.00,95.99
3017.00,96.00
3016.00,96.02
3015.00,96.05
3014.00,96.07
3013.00,96.09
3012.00,96.10
3011.00,96.11
3010.00,96.12
3009.00,96.13
3008.00,96.13
3007.00,96.13
3006.00,96.12
3005.00,96.12
3004.00,96.12
3003.00,96.12
3002.00,96.13
3001.00,96.12
3000.00,96.11
2999.00,96.09
2998.00,96.08
2997.00,96.09
2996.00,96.10
2995.00,96.11
2994.00,96.10
2993.00,96.08
2992.00,96.04
2991.00,95.99
2990.00,95.95
2989.00,95.91
2988.00,95.87
2987.00,95.81
2986.00,95.74
2985.00,95.65
2984.00,95.56
2983.00,95.47
2982.00,95.38
2981.00,95.28
2980.00,95.18
2979.00,95.06
2978.00,94.91
2977.00,94.76
2976.00,94.58
2975.00,94.40
2974.00,94.22
2973.00,94.03
2972.00,93.84
2971.00,93.64
2970.00,93.42
2969.00,93.19
2968.00,92.94
2967.00,92.69
2966.00,92.44
2965.00,92.18
2964.00,91.94
2963.00,91.70
2962.00,91.45
2961.00,91.18
2960.00,90.88
2959.00,90.56
2958.00,90.22
2957.00,89.84
2956.00,89.44
2955.00,89.01
2954.00,88.56
2953.00,88.08
2952.00,87.57
2951.00,87.04
2950.00,86.48
2949.00,85.92
2948.00,85.37
2947.00,84.85
2946.00,84.34
2945.00,83.86
2944.00,83.39
2943.00,82.93
2942.00,82.47
2941.00,82.01
2940.00,81.55
2939.00,81.11
2938.00,80.69
2937.00,80.31
2936.00,80.00
2935.00,79.75
2934.00,79.58
2933.00,79.49
2932.00,79.48
2931.00,79.54
2930.00,79.68
2929.00,79.87
2928.00,80.12
2927.00,80.40
2926.00,80.71
2925.00,81.04
2924.00,81.39
2923.00,81.74
2922.00,82.09
2921.00,82.45
2920.00,82.81
2919.00,83.17
2918.00,83.51
2917.00,83.83
2916.00,84.13
2915.00,84.42
2914.00,84.68
2913.00,84.93
2912.00,85.18
2911.00,85.42
2910.00,85.66
2909.00,85.89
2908.00,86.12
2907.00,86.35
2906.00,86.60
2905.00,86.87
2904.00,87.14
2903.00,87.42
2902.00,87.70
2901.00,87.99
2900.00,88.28
2899.00,88.55
2898.00,88.79
2897.00,89.03
2896.00,89.25
2895.00,89.46
2894.00,89.65
2893.00,89.82
2892.00,89.96
2891.00,90.07
2890.00,90.15
2889.00,90.20
2888.00,90.20
2887.00,90.16
2886.00,90.08
2885.00,89.97
2884.00,89.83
2883.00,89.65
2882.00,89.43
2881.00,89.19
2880.00,88.93
2879.00,88.66
2878.00,88.38
2877.00,88.09
2876.00,87.81
2875.00,87.53
2874.00,87.28
2873.00,87.06
2872.00,86.87
2871.00,86.70
2870.00,86.52
2869.00,86.33
2868.00,86.14
2867.00,85.93
2866.00,85.70
2865.00,85.46
2864.00,85.23
2863.00,85.01
2862.00,84.82
2861.00,84.69
2860.00,84.63
2859.00,84.65
2858.00,84.75
2857.00,84.94
2856.00,85.23
2855.00,85.59
2854.00,86.01
2853.00,86.49
2852.00,87.02
2851.00,87.57
2850.00,88.14
2849.00,88.71
2848.00,89.27
2847.00,89.81
2846.00,90.32
2845.00,90.80
2844.00,91.24
2843.00,91.64
2842.00,92.00
2841.00,92.32
2840.00,92.60
2839.00,92.84
2838.00,93.05
2837.00,93.24
2836.00,93.39
2835.00,93.53
2834.00,93.64
2833.00,93.74
2832.00,93.83
2831.00,93.92
2830.00,93.99
2829.00,94.04
2828.00,94.09
2827.00,94.13
2826.00,94.18
2825.00,94.22
2824.00,94.27
2823.00,94.32
2822.00,94.38
2821.00,94.45
2820.00,94.52
2819.00,94.58
2818.00,94.62
2817.00,94.66
2816.00,94.72
2815.00,94.78
2814.00,94.83
2813.00,94.88
2812.00,94.92
2811.00,94.96
2810.00,94.99
2809.00,95.03
2808.00,95.07
2807.00,95.10
2806.00,95.14
2805.00,95.16
2804.00,95.19
2803.00,95.24
2802.00,95.28
2801.00,95.32
2800.00,95.35
2799.00,95.36
2798.00,95.37
2797.00,95.40
2796.00,95.43
2795.00,95.46
2794.00,95.49
2793.00,95.51
2792.00,95.53
2791.00,95.56
2790.00,95.59
2789.00,95.61
2788.00,95.63
2787.00,95.64
2786.00,95.66
2785.00,95.67
2784.00,95.67
2783.00,95.68
2782.00,95.69
2781.00,95.70
2780.00,95.73
2779.00,95.76
2778.00,95.80
2777.00,95.82
2776.00,95.83
2775.00,95.83
2774.00,95.82
2773.00,95.82
2772.00,95.84
2771.00,95.86
2770.00,95.89
2769.00,95.91
2768.00,95.92
2767.00,95.94
2766.00,95.95
2765.00,95.96
2764.00,95.96
2763.00,95.97
2762.00,95.97
2761.00,95.97
2760.00,95.97
2759.00,95.97
2758.00,95.98
2757.00,95.99
2756.00,96.00
2755.00,96.01
2754.00,96.02
2753.00,96.03
2752.00,96.03
2751.00,96.04
2750.00,96.04
2749.00,96.04
2748.00,96.04
2747.00,96.05
2746.00,96.06
2745.00,96.08
2744.00,96.10
2743.00,96.11
2742.00,96.12
2741.00,96.13
2740.00,96.15
2739.00,96.17
2738.00,96.18
2737.00,96.18
2736.00,96.18
2735.00,96.18
2734.00,96.19
2733.00,96.20
2732.00,96.22
2731.00,96.23
2730.00,96.24
2729.00,96.25
2728.00,96.26
2727.00,96.27
2726.00,96.30
2725.00,96.33
2724.00,96.35
2723.00,96.37
2722.00,96.38
2721.00,96.39
2720.00,96.40
2719.00,96.41
2718.00,96.42
2717.00,96.44
2716.00,96.45
2715.00,96.47
2714.00,96.48
2713.00,96.48
2712.00,96.47
2711.00,96.46
2710.00,96.46
2709.00,96.46
2708.00,96.47
2707.00,96.47
2706.00,96.47
2705.00,96.47
2704.00,96.46
2703.00,96.47
2702.00,96.49
2701.00,96.51
2700.00,96.53
2699.00,96.53
2698.00,96.52
2697.00,96.50
2696.00,96.48
2695.00,96.47
2694.00,96.48
2693.00,96.49
2692.00,96.50
2691.00,96.51
2690.00,96.51
2689.00,96.51
2688.00,96.51
2687.00,96.51
2686.00,96.52
2685.00,96.53
2684.00,96.55
2683.00,96.57
2682.00,96.58
2681.00,96.58
2680.00,96.57
2679.00,96.57
2678.00,96.56
2677.00,96.56
2676.00,96.57
2675.00,96.59
2674.00,96.60
2673.00,96.61
2672.00,96.62
2671.00,96.63
2670.00,96.65
2669.00,96.66
2668.00,96.66
2667.00,96.66
2666.00,96.65
2665.00,96.63
2664.00,96.61
2663.00,96.60
2662.00,96.59
2661.00,96.58
2660.00,96.58
2659.00,96.57
2658.00,96.57
2657.00,96.56
2656.00,96.55
2655.00,96.55
2654.00,96.54
2653.00,96.53
2652.00,96.53
2651.00,96.52
2650.00,96.52
2649.00,96.52
2648.00,96.52
2647.00,96.50
2646.00,96.48
2645.00,96.47
2644.00,96.47
2643.00,96.47
2642.00,96.48
2641.00,96.48
2640.00,96.48
2639.00,96.49
2638.00,96.48
2637.00,96.47
2636.00,96.45
2635.00,96.42
2634.00,96.40
2633.00,96.39
2632.00,96.38
2631.00,96.37
2630.00,96.38
2629.00,96.38
2628.00,96.38
2627.00,96.38
2626.00,96.38
2625.00,96.38
2624.00,96.37
2623.00,96.36
2622.00,96.34
2621.00,96.33
2620.00,96.32
2619.00,96.31
2618.00,96.30
2617.00,96.29
2616.00,96.27
2615.00,96.26
2614.00,96.25
2613.00,96.25
2612.00,96.25
2611.00,96.25
2610.00,96.25
2609.00,96.24
2608.00,96.22
2607.00,96.20
2606.00,96.17
2605.00,96.16
2604.00,96.15
2603.00,96.16
2602.00,96.15
2601.00,96.15
2600.00,96.14
2599.00,96.14
2598.00,96.14
2597.00,96.12
2596.00,96.11
2595.00,96.10
2594.00,96.09
2593.00,96.08
2592.00,96.08
2591.00,96.09
2590.00,96.09
2589.00,96.09
2588.00,96.07
2587.00,96.06
2586.00,96.06
2585.00,96.07
2584.00,96.08
2583.00,96.09
2582.00,96.10
2581.00,96.10
2580.00,96.08
2579.00,96.06
2578.00,96.04
2577.00,96.03
2576.00,96.04
2575.00,96.04
2574.00,96.04
2573.00,96.04
2572.00,96.04
2571.00,96.04
2570.00,96.04
2569.00,96.03
2568.00,96.02
2567.00,96.02
2566.00,96.02
2565.00,96.02
2564.00,96.03
2563.00,96.04
2562.00,96.04
2561.00,96.04
2560.00,96.03
2559.00,96.03
2558.00,96.02
2557.00,96.03
2556.00,96.03
2555.00,96.04
2554.00,96.06
2553.00,96.07
2552.00,96.08
2551.00,96.08
2550.00,96.07
2549.00,96.06
2548.00,96.05
2547.00,96.04
2546.00,96.03
2545.00,96.02
2544.00,96.02
2543.00,96.03
2542.00,96.05
2541.00,96.06
2540.00,96.06
2539.00,96.07
2538.00,96.07
2537.00,96.08
2536.00,96.08
2535.00,96.10
2534.00,96.11
2533.00,96.11
2532.00,96.10
2531.00,96.09
2530.00,96.09
2529.00,96.10
2528.00,96.11
2527.00,96.10
2526.00,96.09
2525.00,96.08
2524.00,96.08
2523.00,96.09
2522.00,96.10
2521.00,96.12
2520.00,96.12
2519.00,96.11
2518.00,96.10
2517.00,96.09
2516.00,96.09
2515.00,96.11
2514.00,96.11
2513.00,96.10
2512.00,96.10
2511.00,96.11
2510.00,96.13
2509.00,96.16
2508.00,96.19
2507.00,96.21
2506.00,96.21
2505.00,96.18
2504.00,96.15
2503.00,96.13
2502.00,96.12
2501.00,96.10
2500.00,96.10
2499.00,96.10
2498.00,96.11
2497.00,96.13
2496.00,96.14
2495.00,96.13
2494.00,96.12
2493.00,96.10
2492.00,96.11
2491.00,96.13
2490.00,96.16
2489.00,96.17
2488.00,96.16
2487.00,96.14
2486.00,96.12
2485.00,96.12
2484.00,96.13
2483.00,96.14
2482.00,96.13
2481.00,96.12
2480.00,96.12
2479.00,96.13
2478.00,96.13
2477.00,96.13
2476.00,96.12
2475.00,96.13
2474.00,96.14
2473.00,96.16
2472.00,96.17
2471.00,96.19
2470.00,96.21
2469.00,96.21
2468.00,96.20
2467.00,96.17
2466.00,96.15
2465.00,96.13
2464.00,96.13
2463.00,96.13
2462.00,96.14
2461.00,96.15
2460.00,96.16
2459.00,96.16
2458.00,96.15
2457.00,96.16
2456.00,96.18
2455.00,96.20
2454.00,96.21
2453.00,96.20
2452.00,96.18
2451.00,96.15
2450.00,96.14
2449.00,96.13
2448.00,96.14
2447.00,96.16
2446.00,96.18
2445.00,96.19
2444.00,96.18
2443.00,96.17
2442.00,96.17
2441.00,96.17
2440.00,96.20
2439.00,96.23
2438.00,96.26
2437.00,96.28
2436.00,96.29
2435.00,96.28
2434.00,96.26
2433.00,96.24
2432.00,96.24
2431.00,96.25
2430.00,96.26
2429.00,96.27
2428.00,96.29
2427.00,96.31
2426.00,96.31
2425.00,96.30
2424.00,96.28
2423.00,96.25
2422.00,96.23
2421.00,96.23
2420.00,96.25
2419.00,96.29
2418.00,96.32
2417.00,96.34
2416.00,96.35
2415.00,96.35
2414.00,96.33
2413.00,96.31
2412.00,96.30
2411.00,96.30
2410.00,96.30
2409.00,96.30
2408.00,96.30
2407.00,96.32
2406.00,96.35
2405.00,96.38
2404.00,96.41
2403.00,96.43
2402.00,96.43
2401.00,96.43
2400.00,96.42
2399.00,96.41
2398.00,96.41
2397.00,96.43
2396.00,96.46
2395.00,96.48
2394.00,96.49
2393.00,96.49
2392.00,96.49
2391.00,96.50
2390.00,96.52
2389.00,96.53
2388.00,96.53
2387.00,96.53
2386.00,96.53
2385.00,96.54
2384.00,96.57
2383.00,96.61
2382.00,96.65
2381.00,96.70
2380.00,96.75
2379.00,96.77
2378.00,96.78
2377.00,96.77
2376.00,96.77
2375.00,96.76
2374.00,96.75
2373.00,96.74
2372.00,96.74
2371.00,96.76
2370.00,96.78
2369.00,96.80
2368.00,96.82
2367.00,96.82
2366.00,96.81
2365.00,96.80
2364.00,96.78
2363.00,96.77
2362.00,96.74
2361.00,96.72
2360.00,96.74
2359.00,96.78
2358.00,96.83
2357.00,96.86
2356.00,96.88
2355.00,96.88
2354.00,96.86
2353.00,96.84
2352.00,96.84
2351.00,96.85
2350.00,96.86
2349.00,96.87
2348.00,96.86
2347.00,96.83
2346.00,96.80
2345.00,96.79
2344.00,96.83
2343.00,96.86
2342.00,96.85
2341.00,96.80
2340.00,96.74
2339.00,96.70
2338.00,96.70
2337.00,96.72
2336.00,96.75
2335.00,96.81
2334.00,96.86
2333.00,96.91
2332.00,96.93
2331.00,96.92
2330.00,96.87
2329.00,96.81
2328.00,96.76
2327.00,96.72
2326.00,96.68
2325.00,96.62
2324.00,96.56
2323.00,96.52
2322.00,96.51
2321.00,96.51
2320.00,96.52
2319.00,96.52
2318.00,96.51
2317.00,96.48
2316.00,96.43
2315.00,96.37
2314.00,96.34
2313.00,96.32
2312.00,96.33
2311.00,96.33
2310.00,96.31
2309.00,96.28
2308.00,96.26
2307.00,96.26
2306.00,96.26
2305.00,96.26
2304.00,96.25
2303.00,96.24
2302.00,96.23
2301.00,96.22
2300.00,96.21
2299.00,96.18
2298.00,96.13
2297.00,96.08
2296.00,96.04
2295.00,96.01
2294.00,96.00
2293.00,95.99
2292.00,95.97
2291.00,95.95
2290.00,95.93
2289.00,95.89
2288.00,95.83
2287.00,95.77
2286.00,95.72
2285.00,95.70
2284.00,95.70
2283.00,95.70
2282.00,95.69
2281.00,95.65
2280.00,95.60
2279.00,95.56
2278.00,95.54
2277.00,95.56
2276.00,95.57
2275.00,95.56
2274.00,95.53
2273.00,95.50
2272.00,95.50
2271.00,95.51
2270.00,95.50
2269.00,95.48
2268.00,95.45
2267.00,95.44
2266.00,95.45
2265.00,95.45
2264.00,95.45
2263.00,95.43
2262.00,95.39
2261.00,95.33
2260.00,95.27
2259.00,95.23
2258.00,95.22
2257.00,95.24
2256.00,95.27
2255.00,95.28
2254.00,95.26
2253.00,95.23
2252.00,95.22
2251.00,95.23
2250.00,95.22
2249.00,95.20
2248.00,95.17
2247.00,95.13
2246.00,95.10
2245.00,95.07
2244.00,95.07
2243.00,95.06
2242.00,95.04
2241.00,95.00
2240.00,94.96
2239.00,94.94
2238.00,94.95
2237.00,94.97
2236.00,94.97
2235.00,94.94
2234.00,94.88
2233.00,94.82
2232.00,94.81
2231.00,94.84
2230.00,94.87
2229.00,94.86
2228.00,94.82
2227.00,94.79
2226.00,94.77
2225.00,94.77
2224.00,94.77
2223.00,94.76
2222.00,94.73
2221.00,94.72
2220.00,94.73
2219.00,94.76
2218.00,94.75
2217.00,94.71
2216.00,94.65
2215.00,94.61
2214.00,94.59
2213.00,94.56
2212.00,94.51
2211.00,94.42
2210.00,94.32
2209.00,94.23
2208.00,94.20
2207.00,94.22
2206.00,94.27
2205.00,94.33
2204.00,94.39
2203.00,94.44
2202.00,94.44
2201.00,94.40
2200.00,94.34
2199.00,94.29
2198.00,94.27
2197.00,94.27
2196.00,94.28
2195.00,94.29
2194.00,94.27
2193.00,94.20
2192.00,94.11
2191.00,94.02
2190.00,93.96
2189.00,93.92
2188.00,93.87
2187.00,93.82
2186.00,93.79
2185.00,93.79
2184.00,93.82
2183.00,93.86
2182.00,93.88
2181.00,93.91
2180.00,93.95
2179.00,93.96
2178.00,93.94
2177.00,93.90
2176.00,93.89
2175.00,93.90
2174.00,93.91
2173.00,93.87
2172.00,93.80
2171.00,93.73
2170.00,93.65
2169.00,93.58
2168.00,93.51
2167.00,93.46
2166.00,93.39
2165.00,93.31
2164.00,93.20
2163.00,93.07
2162.00,92.95
2161.00,92.91
2160.00,93.01
2159.00,93.23
2158.00,93.49
2157.00,93.70
2156.00,93.86
2155.00,94.01
2154.00,94.14
2153.00,94.22
2152.00,94.25
2151.00,94.27
2150.00,94.28
2149.00,94.29
2148.00,94.31
2147.00,94.36
2146.00,94.42
2145.00,94.50
2144.00,94.60
2143.00,94.69
2142.00,94.77
2141.00,94.81
2140.00,94.82
2139.00,94.83
2138.00,94.84
2137.00,94.87
2136.00,94.92
2135.00,94.99
2134.00,95.09
2133.00,95.18
2132.00,95.24
2131.00,95.26
2130.00,95.24
2129.00,95.20
2128.00,95.17
2127.00,95.17
2126.00,95.19
2125.00,95.22
2124.00,95.24
2123.00,95.26
2122.00,95.26
2121.00,95.26
2120.00,95.27
2119.00,95.30
2118.00,95.32
2117.00,95.34
2116.00,95.35
2115.00,95.35
2114.00,95.35
2113.00,95.33
2112.00,95.30
2111.00,95.27
2110.00,95.23
2109.00,95.21
2108.00,95.21
2107.00,95.24
2106.00,95.28
2105.00,95.31
2104.00,95.32
2103.00,95.32
2102.00,95.30
2101.00,95.25
2100.00,95.19
2099.00,95.15
2098.00,95.15
2097.00,95.19
2096.00,95.24
2095.00,95.30
2094.00,95.33
2093.00,95.35
2092.00,95.36
2091.00,95.36
2090.00,95.34
2089.00,95.32
2088.00,95.30
2087.00,95.27
2086.00,95.23
2085.00,95.19
2084.00,95.17
2083.00,95.18
2082.00,95.21
2081.00,95.23
2080.00,95.23
2079.00,95.22
2078.00,95.20
2077.00,95.15
2076.00,95.10
2075.00,95.06
2074.00,95.03
2073.00,95.03
2072.00,95.02
2071.00,94.99
2070.00,94.96
2069.00,94.93
2068.00,94.94
2067.00,94.98
2066.00,95.00
2065.00,94.98
2064.00,94.94
2063.00,94.90
2062.00,94.86
2061.00,94.83
2060.00,94.82
2059.00,94.83
2058.00,94.85
2057.00,94.87
2056.00,94.88
2055.00,94.84
2054.00,94.76
2053.00,94.63
2052.00,94.49
2051.00,94.38
2050.00,94.32
2049.00,94.29
2048.00,94.28
2047.00,94.28
2046.00,94.27
2045.00,94.26
2044.00,94.25
2043.00,94.24
2042.00,94.21
2041.00,94.17
2040.00,94.11
2039.00,94.04
2038.00,93.95
2037.00,93.87
2036.00,93.83
2035.00,93.85
2034.00,93.90
2033.00,93.95
2032.00,93.98
2031.00,93.99
2030.00,93.98
2029.00,93.97
2028.00,93.95
2027.00,93.94
2026.00,93.94
2025.00,93.94
2024.00,93.93
2023.00,93.92
2022.00,93.92
2021.00,93.95
2020.00,94.02
2019.00,94.11
2018.00,94.19
2017.00,94.22
2016.00,94.23
2015.00,94.21
2014.00,94.20
2013.00,94.19
2012.00,94.20
2011.00,94.20
2010.00,94.19
2009.00,94.19
2008.00,94.24
2007.00,94.31
2006.00,94.36
2005.00,94.40
2004.00,94.44
2003.00,94.47
2002.00,94.50
2001.00,94.50
2000.00,94.51
1999.00,94.53
1998.00,94.55
1997.00,94.55
1996.00,94.53
1995.00,94.50
1994.00,94.48
1993.00,94.47
1992.00,94.50
1991.00,94.52
1990.00,94.52
1989.00,94.47
1988.00,94.43
1987.00,94.39
1986.00,94.35
1985.00,94.29
1984.00,94.22
1983.00,94.16
1982.00,94.10
1981.00,94.03
1980.00,93.96
1979.00,93.94
1978.00,93.97
1977.00,94.04
1976.00,94.12
1975.00,94.18
1974.00,94.22
1973.00,94.26
1972.00,94.29
1971.00,94.32
1970.00,94.32
1969.00,94.33
1968.00,94.36
1967.00,94.43
1966.00,94.52
1965.00,94.61
1964.00,94.69
1963.00,94.77
1962.00,94.82
1961.00,94.83
1960.00,94.84
1959.00,94.87
1958.00,94.92
1957.00,94.98
1956.00,95.02
1955.00,95.05
1954.00,95.06
1953.00,95.07
1952.00,95.10
1951.00,95.15
1950.00,95.20
1949.00,95.24
1948.00,95.28
1947.00,95.30
1946.00,95.32
1945.00,95.34
1944.00,95.38
1943.00,95.43
1942.00,95.46
1941.00,95.47
1940.00,95.48
1939.00,95.51
1938.00,95.53
1937.00,95.54
1936.00,95.55
1935.00,95.57
1934.00,95.59
1933.00,95.62
1932.00,95.65
1931.00,95.69
1930.00,95.73
1929.00,95.77
1928.00,95.80
1927.00,95.81
1926.00,95.79
1925.00,95.78
1924.00,95.79
1923.00,95.83
1922.00,95.88
1921.00,95.90
1920.00,95.89
1919.00,95.86
1918.00,95.84
1917.00,95.84
1916.00,95.86
1915.00,95.89
1914.00,95.92
1913.00,95.94
1912.00,95.97
1911.00,96.02
1910.00,96.05
1909.00,96.06
1908.00,96.06
1907.00,96.05
1906.00,96.04
1905.00,96.05
1904.00,96.06
1903.00,96.09
1902.00,96.12
1901.00,96.13
1900.00,96.15
1899.00,96.16
1898.00,96.17
1897.00,96.17
1896.00,96.18
1895.00,96.20
1894.00,96.22
1893.00,96.22
1892.00,96.21
1891.00,96.20
1890.00,96.21
1889.00,96.23
1888.00,96.26
1887.00,96.28
1886.00,96.30
1885.00,96.30
1884.00,96.29
1883.00,96.28
1882.00,96.28
1881.00,96.29
1880.00,96.32
1879.00,96.35
1878.00,96.35
1877.00,96.34
1876.00,96.33
1875.00,96.34
1874.00,96.36
1873.00,96.37
1872.00,96.40
1871.00,96.43
1870.00,96.46
1869.00,96.48
1868.00,96.48
1867.00,96.48
1866.00,96.47
1865.00,96.45
1864.00,96.44
1863.00,96.47
1862.00,96.50
1861.00,96.51
1860.00,96.51
1859.00,96.52
1858.00,96.55
1857.00,96.56
1856.00,96.55
1855.00,96.54
1854.00,96.53
1853.00,96.53
1852.00,96.54
1851.00,96.56
1850.00,96.56
1849.00,96.56
1848.00,96.59
1847.00,96.63
1846.00,96.66
1845.00,96.67
1844.00,96.66
1843.00,96.65
1842.00,96.64
1841.00,96.66
1840.00,96.68
1839.00,96.70
1838.00,96.72
1837.00,96.74
1836.00,96.76
1835.00,96.78
1834.00,96.79
1833.00,96.78
1832.00,96.77
1831.00,96.75
1830.00,96.75
1829.00,96.75
1828.00,96.74
1827.00,96.74
1826.00,96.74
1825.00,96.75
1824.00,96.75
1823.00,96.75
1822.00,96.77
1821.00,96.79
1820.00,96.81
1819.00,96.84
1818.00,96.86
1817.00,96.88
1816.00,96.89
1815.00,96.90
1814.00,96.90
1813.00,96.90
1812.00,96.90
1811.00,96.90
1810.00,96.91
1809.00,96.91
1808.00,96.91
1807.00,96.91
1806.00,96.92
1805.00,96.92
1804.00,96.93
1803.00,96.95
1802.00,96.95
1801.00,96.94
1800.00,96.93
1799.00,96.92
1798.00,96.92
1797.00,96.91
1796.00,96.90
1795.00,96.90
1794.00,96.91
1793.00,96.94
1792.00,96.97
1791.00,96.99
1790.00,96.99
1789.00,96.97
1788.00,96.96
1787.00,96.96
1786.00,96.96
1785.00,96.97
1784.00,96.99
1783.00,97.01
1782.00,97.02
1781.00,97.02
1780.00,97.02
1779.00,97.01
1778.00,97.00
1777.00,96.99
1776.00,96.99
1775.00,96.98
1774.00,96.98
1773.00,96.97
1772.00,96.96
1771.00,96.96
1770.00,96.97
1769.00,96.96
1768.00,96.96
1767.00,96.97
1766.00,96.98
1765.00,96.97
1764.00,96.96
1763.00,96.95
1762.00,96.92
1761.00,96.89
1760.00,96.86
1759.00,96.85
1758.00,96.84
1757.00,96.82
1756.00,96.79
1755.00,96.77
1754.00,96.76
1753.00,96.75
1752.00,96.73
1751.00,96.72
1750.00,96.70
1749.00,96.67
1748.00,96.62
1747.00,96.58
1746.00,96.54
1745.00,96.50
1744.00,96.46
1743.00,96.43
1742.00,96.39
1741.00,96.34
1740.00,96.29
1739.00,96.26
1738.00,96.24
1737.00,96.23
1736.00,96.22
1735.00,96.21
1734.00,96.21
1733.00,96.21
1732.00,96.21
1731.00,96.22
1730.00,96.24
1729.00,96.26
1728.00,96.27
1727.00,96.27
1726.00,96.28
1725.00,96.28
1724.00,96.29
1723.00,96.31
1722.00,96.32
1721.00,96.32
1720.00,96.32
1719.00,96.32
1718.00,96.32
1717.00,96.31
1716.00,96.30
1715.00,96.29
1714.00,96.28
1713.00,96.27
1712.00,96.26
1711.00,96.26
1710.00,96.29
1709.00,96.30
1708.00,96.30
1707.00,96.29
1706.00,96.27
1705.00,96.26
1704.00,96.24
1703.00,96.23
1702.00,96.24
1701.00,96.24
1700.00,96.24
1699.00,96.25
1698.00,96.26
1697.00,96.25
1696.00,96.23
1695.00,96.19
1694.00,96.14
1693.00,96.08
1692.00,96.02
1691.00,95.95
1690.00,95.86
1689.00,95.73
1688.00,95.57
1687.00,95.41
1686.00,95.21
1685.00,94.90
1684.00,94.48
1683.00,94.09
1682.00,93.77
1681.00,93.45
1680.00,93.10
1679.00,92.73
1678.00,92.36
1677.00,91.93
1676.00,91.41
1675.00,90.85
1674.00,90.35
1673.00,89.91
1672.00,89.45
1671.00,88.90
1670.00,88.24
1669.00,87.47
1668.00,86.71
1667.00,86.02
1666.00,85.39
1665.00,84.69
1664.00,83.84
1663.00,82.86
1662.00,81.90
1661.00,81.00
1660.00,80.16
1659.00,79.33
1658.00,78.52
1657.00,77.76
1656.00,77.01
1655.00,76.16
1654.00,74.91
1653.00,73.23
1652.00,71.79
1651.00,70.85
1650.00,70.13
1649.00,69.28
1648.00,68.11
1647.00,66.65
1646.00,65.20
1645.00,63.96
1644.00,62.86
1643.00,61.81
1642.00,60.76
1641.00,59.68
1640.00,58.62
1639.00,57.66
1638.00,56.80
1637.00,55.96
1636.00,55.09
1635.00,54.39
1634.00,54.05
1633.00,54.01
1632.00,54.17
1631.00,54.50
1630.00,55.00
1629.00,55.66
1628.00,56.41
1627.00,57.17
1626.00,57.94
1625.00,58.76
1624.00,59.70
1623.00,60.75
1622.00,61.80
1621.00,62.78
1620.00,63.70
1619.00,64.69
1618.00,65.88
1617.00,67.30
1616.00,68.74
1615.00,69.96
1614.00,70.96
1613.00,71.90
1612.00,72.87
1611.00,73.84
1610.00,74.74
1609.00,75.60
1608.00,76.43
1607.00,77.24
1606.00,78.01
1605.00,78.76
1604.00,79.53
1603.00,80.28
1602.00,80.96
1601.00,81.58
1600.00,82.15
1599.00,82.67
1598.00,83.11
1597.00,83.51
1596.00,83.89
1595.00,84.23
1594.00,84.48
1593.00,84.68
1592.00,84.86
1591.00,85.01
1590.00,85.09
1589.00,85.14
1588.00,85.19
1587.00,85.21
1586.00,85.16
1585.00,85.07
1584.00,84.96
1583.00,84.81
1582.00,84.59
1581.00,84.34
1580.00,84.09
1579.00,83.82
1578.00,83.47
1577.00,82.99
1576.00,82.44
1575.00,81.92
1574.00,81.45
1573.00,81.01
1572.00,80.56
1571.00,80.01
1570.00,79.29
1569.00,78.54
1568.00,77.88
1567.00,77.31
1566.00,76.70
1565.00,76.02
1564.00,75.38
1563.00,74.82
1562.00,74.33
1561.00,73.79
1560.00,73.00
1559.00,71.91
1558.00,70.93
1557.00,70.28
1556.00,69.79
1555.00,69.25
1554.00,68.61
1553.00,67.94
1552.00,67.33
1551.00,66.70
1550.00,66.01
1549.00,65.28
1548.00,64.60
1547.00,63.94
1546.00,63.23
1545.00,62.44
1544.00,61.65
1543.00,60.90
1542.00,60.11
1541.00,59.18
1540.00,58.11
1539.00,57.15
1538.00,56.47
1537.00,56.01
1536.00,55.63
1535.00,55.25
1534.00,54.88
1533.00,54.63
1532.00,54.60
1531.00,54.73
1530.00,55.00
1529.00,55.42
1528.00,55.98
1527.00,56.70
1526.00,57.52
1525.00,58.36
1524.00,59.19
1523.00,60.11
1522.00,61.24
1521.00,62.49
1520.00,63.58
1519.00,64.47
1518.00,65.38
1517.00,66.40
1516.00,67.42
1515.00,68.33
1514.00,69.16
1513.00,69.97
1512.00,70.78
1511.00,71.54
1510.00,72.24
1509.00,72.90
1508.00,73.64
1507.00,74.55
1506.00,75.47
1505.00,76.16
1504.00,76.66
1503.00,77.11
1502.00,77.58
1501.00,78.07
1500.00,78.55
1499.00,79.02
1498.00,79.53
1497.00,80.05
1496.00,80.53
1495.00,80.94
1494.00,81.30
1493.00,81.60
1492.00,81.87
1491.00,82.17
1490.00,82.49
1489.00,82.75
1488.00,82.89
1487.00,82.94
1486.00,82.92
1485.00,82.79
1484.00,82.52
1483.00,82.07
1482.00,81.46
1481.00,80.68
1480.00,79.82
1479.00,78.96
1478.00,78.13
1477.00,77.35
1476.00,76.72
1475.00,76.35
1474.00,76.30
1473.00,76.54
1472.00,76.91
1471.00,77.15
1470.00,77.14
1469.00,76.87
1468.00,76.38
1467.00,75.71
1466.00,75.00
1465.00,74.45
1464.00,74.22
1463.00,74.34
1462.00,74.68
1461.00,75.12
1460.00,75.58
1459.00,76.06
1458.00,76.57
1457.00,77.10
1456.00,77.52
1455.00,77.82
1454.00,78.09
1453.00,78.36
1452.00,78.63
1451.00,78.89
1450.00,79.11
1449.00,79.28
1448.00,79.39
1447.00,79.43
1446.00,79.42
1445.00,79.37
1444.00,79.27
1443.00,79.15
1442.00,79.04
1441.00,78.93
1440.00,78.83
1439.00,78.73
1438.00,78.67
1437.00,78.63
1436.00,78.65
1435.00,78.71
1434.00,78.83
1433.00,79.00
1432.00,79.21
1431.00,79.45
1430.00,79.70
1429.00,79.92
1428.00,80.06
1427.00,80.11
1426.00,80.08
1425.00,79.96
1424.00,79.74
1423.00,79.46
1422.00,79.11
1421.00,78.64
1420.00,77.94
1419.00,77.13
1418.00,76.51
1417.00,76.27
1416.00,76.45
1415.00,76.99
1414.00,77.82
1413.00,78.80
1412.00,79.81
1411.00,80.77
1410.00,81.61
1409.00,82.31
1408.00,82.88
1407.00,83.35
1406.00,83.75
1405.00,84.11
1404.00,84.40
1403.00,84.60
1402.00,84.74
1401.00,84.84
1400.00,84.92
1399.00,84.95
1398.00,84.96
1397.00,84.94
1396.00,84.86
1395.00,84.71
1394.00,84.52
1393.00,84.33
1392.00,84.13
1391.00,83.92
1390.00,83.70
1389.00,83.48
1388.00,83.25
1387.00,83.01
1386.00,82.81
1385.00,82.62
1384.00,82.42
1383.00,82.21
1382.00,81.97
1381.00,81.71
1380.00,81.40
1379.00,81.06
1378.00,80.68
1377.00,80.27
1376.00,79.84
1375.00,79.38
1374.00,78.96
1373.00,78.63
1372.00,78.41
1371.00,78.30
1370.00,78.28
1369.00,78.33
1368.00,78.44
1367.00,78.57
1366.00,78.74
1365.00,78.94
1364.00,79.16
1363.00,79.39
1362.00,79.63
1361.00,79.86
1360.00,80.07
1359.00,80.28
1358.00,80.49
1357.00,80.71
1356.00,80.94
1355.00,81.17
1354.00,81.40
1353.00,81.64
1352.00,81.87
1351.00,82.08
1350.00,82.30
1349.00,82.51
1348.00,82.71
1347.00,82.89
1346.00,83.06
1345.00,83.23
1344.00,83.38
1343.00,83.52
1342.00,83.65
1341.00,83.76
1340.00,83.86
1339.00,83.96
1338.00,84.06
1337.00,84.16
1336.00,84.26
1335.00,84.34
1334.00,84.42
1333.00,84.47
1332.00,84.50
1331.00,84.51
1330.00,84.52
1329.00,84.53
1328.00,84.56
1327.00,84.60
1326.00,84.66
1325.00,84.74
1324.00,84.82
1323.00,84.88
1322.00,84.92
1321.00,84.96
1320.00,84.98
1319.00,84.98
1318.00,84.96
1317.00,84.93
1316.00,84.87
1315.00,84.78
1314.00,84.67
1313.00,84.55
1312.00,84.41
1311.00,84.27
1310.00,84.13
1309.00,84.00
1308.00,83.87
1307.00,83.74
1306.00,83.61
1305.00,83.50
1304.00,83.40
1303.00,83.33
1302.00,83.28
1301.00,83.25
1300.00,83.23
1299.00,83.20
1298.00,83.16
1297.00,83.11
1296.00,83.04
1295.00,82.94
1294.00,82.83
1293.00,82.71
1292.00,82.56
1291.00,82.40
1290.00,82.21
1289.00,81.98
1288.00,81.69
1287.00,81.33
1286.00,80.91
1285.00,80.43
1284.00,79.90
1283.00,79.31
1282.00,78.66
1281.00,77.97
1280.00,77.23
1279.00,76.48
1278.00,75.78
1277.00,75.15
1276.00,74.62
1275.00,74.21
1274.00,73.94
1273.00,73.79
1272.00,73.75
1271.00,73.81
1270.00,73.95
1269.00,74.17
1268.00,74.42
1267.00,74.71
1266.00,75.03
1265.00,75.38
1264.00,75.73
1263.00,76.08
1262.00,76.42
1261.00,76.74
1260.00,77.04
1259.00,77.33
1258.00,77.61
1257.00,77.86
1256.00,78.08
1255.00,78.28
1254.00,78.47
1253.00,78.65
1252.00,78.83
1251.00,79.00
1250.00,79.16
1249.00,79.31
1248.00,79.45
1247.00,79.59
1246.00,79.74
1245.00,79.88
1244.00,80.02
1243.00,80.14
1242.00,80.24
1241.00,80.34
1240.00,80.42
1239.00,80.50
1238.00,80.59
1237.00,80.70
1236.00,80.83
1235.00,80.99
1234.00,81.17
1233.00,81.37
1232.00,81.58
1231.00,81.79
1230.00,82.00
1229.00,82.19
1228.00,82.32
1227.00,82.40
1226.00,82.44
1225.00,82.46
1224.00,82.52
1223.00,82.64
1222.00,82.84
1221.00,83.08
1220.00,83.32
1219.00,83.52
1218.00,83.68
1217.00,83.80
1216.00,83.86
1215.00,83.88
1214.00,83.87
1213.00,83.83
1212.00,83.75
1211.00,83.64
1210.00,83.47
1209.00,83.22
1208.00,82.88
1207.00,82.42
1206.00,81.86
1205.00,81.17
1204.00,80.36
1203.00,79.46
1202.00,78.51
1201.00,77.58
1200.00,76.74
1199.00,76.12
1198.00,75.81
1197.00,75.87
1196.00,76.26
1195.00,76.88
1194.00,77.63
1193.00,78.42
1192.00,79.16
1191.00,79.81
1190.00,80.35
1189.00,80.74
1188.00,80.99
1187.00,81.10
1186.00,81.09
1185.00,80.97
1184.00,80.76
1183.00,80.51
1182.00,80.26
1181.00,80.07
1180.00,79.98
1179.00,80.04
1178.00,80.27
1177.00,80.65
1176.00,81.13
1175.00,81.69
1174.00,82.27
1173.00,82.85
1172.00,83.39
1171.00,83.88
1170.00,84.31
1169.00,84.69
1168.00,85.03
1167.00,85.33
1166.00,85.61
1165.00,85.84
1164.00,86.03
1163.00,86.17
1162.00,86.27
1161.00,86.33
1160.00,86.33
1159.00,86.28
1158.00,86.19
1157.00,86.05
1156.00,85.86
1155.00,85.62
1154.00,85.33
1153.00,85.03
1152.00,84.73
1151.00,84.45
1150.00,84.19
1149.00,83.97
1148.00,83.78
1147.00,83.63
1146.00,83.52
1145.00,83.43
1144.00,83.36
1143.00,83.30
1142.00,83.25
1141.00,83.20
1140.00,83.18
1139.00,83.21
1138.00,83.34
1137.00,83.62
1136.00,84.01
1135.00,84.45
1134.00,84.90
1133.00,85.31
1132.00,85.67
1131.00,85.99
1130.00,86.26
1129.00,86.49
1128.00,86.67
1127.00,86.81
1126.00,86.94
1125.00,87.05
1124.00,87.15
1123.00,87.24
1122.00,87.33
1121.00,87.43
1120.00,87.52
1119.00,87.60
1118.00,87.65
1117.00,87.69
1116.00,87.72
1115.00,87.75
1114.00,87.80
1113.00,87.83
1112.00,87.85
1111.00,87.84
1110.00,87.83
1109.00,87.83
1108.00,87.83
1107.00,87.84
1106.00,87.85
1105.00,87.86
1104.00,87.88
1103.00,87.91
1102.00,87.95
1101.00,87.99
1100.00,88.01
1099.00,88.01
1098.00,88.02
1097.00,88.04
1096.00,88.05
1095.00,88.06
1094.00,88.08
1093.00,88.12
1092.00,88.18
1091.00,88.24
1090.00,88.28
1089.00,88.31
1088.00,88.34
1087.00,88.39
1086.00,88.48
1085.00,88.59
1084.00,88.70
1083.00,88.79
1082.00,88.85
1081.00,88.88
1080.00,88.89
1079.00,88.90
1078.00,88.93
1077.00,88.97
1076.00,89.01
1075.00,89.01
1074.00,88.99
1073.00,88.96
1072.00,88.91
1071.00,88.83
1070.00,88.72
1069.00,88.59
1068.00,88.48
1067.00,88.39
1066.00,88.33
1065.00,88.29
1064.00,88.27
1063.00,88.25
1062.00,88.24
1061.00,88.26
1060.00,88.29
1059.00,88.34
1058.00,88.39
1057.00,88.45
1056.00,88.51
1055.00,88.54
1054.00,88.56
1053.00,88.56
1052.00,88.54
1051.00,88.52
1050.00,88.50
1049.00,88.48
1048.00,88.45
1047.00,88.41
1046.00,88.35
1045.00,88.30
1044.00,88.26
1043.00,88.24
1042.00,88.24
1041.00,88.25
1040.00,88.27
1039.00,88.30
1038.00,88.36
1037.00,88.44
1036.00,88.52
1035.00,88.62
1034.00,88.71
1033.00,88.80
1032.00,88.88
1031.00,88.94
1030.00,89.01
1029.00,89.07
1028.00,89.12
1027.00,89.16
1026.00,89.21
1025.00,89.26
1024.00,89.32
1023.00,89.37
1022.00,89.41
1021.00,89.43
1020.00,89.43
1019.00,89.42
1018.00,89.42
1017.00,89.44
1016.00,89.47
1015.00,89.49
1014.00,89.49
1013.00,89.48
1012.00,89.48
1011.00,89.51
1010.00,89.56
1009.00,89.63
1008.00,89.69
1007.00,89.73
1006.00,89.77
1005.00,89.81
1004.00,89.86
1003.00,89.91
1002.00,89.96
1001.00,89.99
1000.00,90.02
999.00,90.04
998.00,90.07
997.00,90.11
996.00,90.15
995.00,90.20
994.00,90.25
993.00,90.31
992.00,90.36
991.00,90.40
990.00,90.42
989.00,90.42
988.00,90.43
987.00,90.46
986.00,90.52
985.00,90.61
984.00,90.70
983.00,90.79
982.00,90.86
981.00,90.93
980.00,91.00
979.00,91.05
978.00,91.07
977.00,91.08
976.00,91.09
975.00,91.09
974.00,91.10
973.00,91.11
972.00,91.13
971.00,91.14
970.00,91.14
969.00,91.14
968.00,91.14
967.00,91.14
966.00,91.14
965.00,91.13
964.00,91.11
963.00,91.07
962.00,91.01
961.00,90.93
960.00,90.86
959.00,90.80
958.00,90.78
957.00,90.76
956.00,90.72
955.00,90.66
954.00,90.58
953.00,90.51
952.00,90.43
951.00,90.33
950.00,90.22
949.00,90.10
948.00,89.97
947.00,89.82
946.00,89.64
945.00,89.41
944.00,89.13
943.00,88.78
942.00,88.35
941.00,87.83
940.00,87.22
939.00,86.52
938.00,85.81
937.00,85.15
936.00,84.62
935.00,84.31
934.00,84.25
933.00,84.43
932.00,84.78
931.00,85.21
930.00,85.68
929.00,86.14
928.00,86.58
927.00,86.97
926.00,87.30
925.00,87.57
924.00,87.81
923.00,88.04
922.00,88.26
921.00,88.45
920.00,88.62
919.00,88.75
918.00,88.87
917.00,88.99
916.00,89.13
915.00,89.26
914.00,89.36
913.00,89.41
912.00,89.40
911.00,89.36
910.00,89.28
909.00,89.15
908.00,89.00
907.00,88.87
906.00,88.80
905.00,88.82
904.00,88.93
903.00,89.13
902.00,89.38
901.00,89.64
900.00,89.88
899.00,90.09
898.00,90.26
897.00,90.40
896.00,90.51
895.00,90.59
894.00,90.66
893.00,90.71
892.00,90.75
891.00,90.78
890.00,90.83
889.00,90.89
888.00,90.93
887.00,90.96
886.00,90.97
885.00,90.98
884.00,90.99
883.00,91.00
882.00,90.99
881.00,90.99
880.00,90.98
879.00,90.99
878.00,91.01
877.00,91.03
876.00,91.04
875.00,91.05
874.00,91.10
873.00,91.16
872.00,91.22
871.00,91.27
870.00,91.30
869.00,91.31
868.00,91.31
867.00,91.31
866.00,91.32
865.00,91.32
864.00,91.29
863.00,91.26
862.00,91.24
861.00,91.25
860.00,91.27
859.00,91.26
858.00,91.25
857.00,91.23
856.00,91.19
855.00,91.13
854.00,91.08
853.00,91.04
852.00,91.04
851.00,91.06
850.00,91.08
849.00,91.09
848.00,91.07
847.00,91.03
846.00,90.99
845.00,90.97
844.00,90.98
843.00,90.98
842.00,90.98
841.00,90.95
840.00,90.91
839.00,90.87
838.00,90.84
837.00,90.81
836.00,90.78
835.00,90.74
834.00,90.71
833.00,90.69
832.00,90.67
831.00,90.67
830.00,90.66
829.00,90.66
828.00,90.66
827.00,90.64
826.00,90.61
825.00,90.56
824.00,90.51
823.00,90.47
822.00,90.44
821.00,90.40
820.00,90.35
819.00,90.26
818.00,90.16
817.00,90.08
816.00,90.04
815.00,90.01
814.00,89.97
813.00,89.93
812.00,89.86
811.00,89.80
810.00,89.72
809.00,89.64
808.00,89.57
807.00,89.52
806.00,89.47
805.00,89.41
804.00,89.29
803.00,89.14
802.00,88.98
801.00,88.85
800.00,88.74
799.00,88.64
798.00,88.56
797.00,88.51
796.00,88.47
795.00,88.43
794.00,88.40
793.00,88.37
792.00,88.33
791.00,88.29
790.00,88.24
789.00,88.18
788.00,88.10
787.00,88.01
786.00,87.95
785.00,87.91
784.00,87.88
783.00,87.83
782.00,87.75
781.00,87.65
780.00,87.55
779.00,87.44
778.00,87.35
777.00,87.26
776.00,87.16
775.00,87.05
774.00,86.95
773.00,86.84
772.00,86.73
771.00,86.62
770.00,86.50
769.00,86.37
768.00,86.23
767.00,86.09
766.00,85.94
765.00,85.79
764.00,85.63
763.00,85.49
762.00,85.38
761.00,85.29
760.00,85.18
759.00,85.03
758.00,84.85
757.00,84.69
756.00,84.55
755.00,84.43
754.00,84.33
753.00,84.23
752.00,84.11
751.00,83.97
750.00,83.85
749.00,83.78
748.00,83.74
747.00,83.68
746.00,83.60
745.00,83.47
744.00,83.30
743.00,83.08
742.00,82.83
741.00,82.53
740.00,82.18
739.00,81.76
738.00,81.27
737.00,80.67
736.00,79.99
735.00,79.28
734.00,78.61
733.00,78.00
732.00,77.45
731.00,76.95
730.00,76.53
729.00,76.21
728.00,76.01
727.00,75.90
726.00,75.85
725.00,75.84
724.00,75.87
723.00,75.95
722.00,76.03
721.00,76.10
720.00,76.14
719.00,76.15
718.00,76.14
717.00,76.08
716.00,75.97
715.00,75.86
714.00,75.76
713.00,75.67
712.00,75.54
711.00,75.39
710.00,75.25
709.00,75.14
708.00,75.04
707.00,74.92
706.00,74.77
705.00,74.58
704.00,74.34
703.00,74.09
702.00,73.85
701.00,73.60
700.00,73.33
699.00,73.02
698.00,72.69
697.00,72.33
696.00,71.95
695.00,71.57
694.00,71.18
693.00,70.81
692.00,70.46
691.00,70.18
690.00,69.96
689.00,69.77
688.00,69.59
687.00,69.41
686.00,69.27
685.00,69.17
684.00,69.10
683.00,69.05
682.00,69.01
681.00,69.00
680.00,69.01
679.00,69.05
678.00,69.12
677.00,69.24
676.00,69.43
675.00,69.66
674.00,69.89
673.00,70.08
672.00,70.22
671.00,70.35
670.00,70.52
669.00,70.79
668.00,71.18
667.00,71.52
666.00,71.73
665.00,71.85
664.00,71.97
663.00,72.14
662.00,72.42
661.00,72.76
660.00,73.07
659.00,73.27
658.00,73.37
657.00,73.45
656.00,73.58
655.00,73.80
654.00,74.06
653.00,74.30
652.00,74.48
651.00,74.64
650.00,74.80
649.00,75.00
648.00,75.22
647.00,75.42
646.00,75.56
645.00,75.64
644.00,75.70
643.00,75.80
642.00,75.92
641.00,76.04
640.00,76.13
639.00,76.21
638.00,76.31
637.00,76.45
636.00,76.58
635.00,76.65
634.00,76.59
633.00,76.44
632.00,76.30
631.00,76.25
630.00,76.33
629.00,76.50
628.00,76.73
627.00,76.99
626.00,77.17
625.00,77.22
624.00,77.16
623.00,77.10
622.00,77.06
621.00,76.99
620.00,76.88
619.00,76.84
618.00,76.93
617.00,77.06
616.00,77.11
615.00,77.09
614.00,77.07
613.00,77.06
612.00,77.01
611.00,76.91
610.00,76.73
609.00,76.47
608.00,76.22
607.00,76.05
606.00,75.94
605.00,75.72
604.00,75.43
603.00,75.28
602.00,75.39
601.00,75.57
600.00,75.55
599.00,75.28
598.00,74.93
597.00,74.58
596.00,74.19
595.00,73.76
594.00,73.39
593.00,73.16
592.00,73.04
591.00,72.91
590.00,72.61
589.00,71.95
588.00,70.98
587.00,70.06
586.00,69.51
585.00,69.30
584.00,69.15
583.00,68.91
582.00,68.53
581.00,67.90
580.00,67.04
579.00,66.27
578.00,65.93
577.00,65.95
576.00,66.13
575.00,66.50
574.00,67.07
573.00,67.48
572.00,67.56
571.00,67.58
570.00,67.90
569.00,68.44
568.00,68.94
567.00,69.37
566.00,69.86
565.00,70.33
564.00,70.64
563.00,70.82
562.00,70.95
561.00,70.91
560.00,70.50
559.00,69.88
558.00,69.51
557.00,69.68
556.00,70.38
555.00,71.45
554.00,72.61
553.00,73.46
552.00,73.78
551.00,73.61
550.00,73.28
