Created as New Dataset,78 Nylon Allied Signal Fibers 
cm-1,%T
4000.00,99.25
3999.00,99.26
3998.00,99.29
3997.00,99.31
3996.00,99.32
3995.00,99.33
3994.00,99.32
3993.00,99.32
3992.00,99.31
3991.00,99.30
3990.00,99.29
3989.00,99.29
3988.00,99.29
3987.00,99.29
3986.00,99.30
3985.00,99.29
3984.00,99.28
3983.00,99.26
3982.00,99.25
3981.00,99.25
3980.00,99.26
3979.00,99.27
3978.00,99.28
3977.00,99.28
3976.00,99.27
3975.00,99.25
3974.00,99.24
3973.00,99.23
3972.00,99.24
3971.00,99.24
3970.00,99.24
3969.00,99.23
3968.00,99.24
3967.00,99.25
3966.00,99.27
3965.00,99.28
3964.00,99.28
3963.00,99.28
3962.00,99.28
3961.00,99.28
3960.00,99.29
3959.00,99.29
3958.00,99.30
3957.00,99.30
3956.00,99.29
3955.00,99.28
3954.00,99.26
3953.00,99.24
3952.00,99.24
3951.00,99.24
3950.00,99.26
3949.00,99.28
3948.00,99.31
3947.00,99.32
3946.00,99.31
3945.00,99.28
3944.00,99.26
3943.00,99.25
3942.00,99.26
3941.00,99.27
3940.00,99.27
3939.00,99.27
3938.00,99.26
3937.00,99.24
3936.00,99.23
3935.00,99.22
3934.00,99.23
3933.00,99.26
3932.00,99.29
3931.00,99.31
3930.00,99.31
3929.00,99.29
3928.00,99.26
3927.00,99.22
3926.00,99.19
3925.00,99.20
3924.00,99.22
3923.00,99.24
3922.00,99.26
3921.00,99.28
3920.00,99.29
3919.00,99.28
3918.00,99.26
3917.00,99.25
3916.00,99.23
3915.00,99.23
3914.00,99.22
3913.00,99.22
3912.00,99.22
3911.00,99.24
3910.00,99.26
3909.00,99.29
3908.00,99.31
3907.00,99.30
3906.00,99.27
3905.00,99.24
3904.00,99.22
3903.00,99.20
3902.00,99.17
3901.00,99.16
3900.00,99.16
3899.00,99.17
3898.00,99.17
3897.00,99.17
3896.00,99.18
3895.00,99.20
3894.00,99.22
3893.00,99.23
3892.00,99.23
3891.00,99.24
3890.00,99.24
3889.00,99.20
3888.00,99.15
3887.00,99.12
3886.00,99.14
3885.00,99.18
3884.00,99.18
3883.00,99.16
3882.00,99.15
3881.00,99.17
3880.00,99.21
3879.00,99.23
3878.00,99.22
3877.00,99.20
3876.00,99.20
3875.00,99.24
3874.00,99.28
3873.00,99.27
3872.00,99.22
3871.00,99.18
3870.00,99.19
3869.00,99.20
3868.00,99.17
3867.00,99.13
3866.00,99.14
3865.00,99.19
3864.00,99.23
3863.00,99.24
3862.00,99.23
3861.00,99.21
3860.00,99.20
3859.00,99.21
3858.00,99.21
3857.00,99.20
3856.00,99.16
3855.00,99.13
3854.00,99.12
3853.00,99.13
3852.00,99.11
3851.00,99.10
3850.00,99.10
3849.00,99.12
3848.00,99.14
3847.00,99.15
3846.00,99.16
3845.00,99.17
3844.00,99.19
3843.00,99.19
3842.00,99.17
3841.00,99.13
3840.00,99.11
3839.00,99.11
3838.00,99.11
3837.00,99.11
3836.00,99.09
3835.00,99.07
3834.00,99.06
3833.00,99.06
3832.00,99.08
3831.00,99.10
3830.00,99.10
3829.00,99.08
3828.00,99.07
3827.00,99.08
3826.00,99.11
3825.00,99.11
3824.00,99.08
3823.00,99.07
3822.00,99.13
3821.00,99.21
3820.00,99.24
3819.00,99.19
3818.00,99.11
3817.00,99.09
3816.00,99.11
3815.00,99.13
3814.00,99.11
3813.00,99.09
3812.00,99.11
3811.00,99.12
3810.00,99.12
3809.00,99.09
3808.00,99.10
3807.00,99.15
3806.00,99.19
3805.00,99.16
3804.00,99.08
3803.00,99.02
3802.00,99.02
3801.00,99.04
3800.00,99.03
3799.00,98.99
3798.00,98.98
3797.00,99.02
3796.00,99.09
3795.00,99.13
3794.00,99.13
3793.00,99.11
3792.00,99.10
3791.00,99.10
3790.00,99.10
3789.00,99.11
3788.00,99.11
3787.00,99.10
3786.00,99.08
3785.00,99.07
3784.00,99.07
3783.00,99.06
3782.00,99.03
3781.00,99.02
3780.00,99.03
3779.00,99.05
3778.00,99.06
3777.00,99.06
3776.00,99.07
3775.00,99.10
3774.00,99.13
3773.00,99.14
3772.00,99.12
3771.00,99.12
3770.00,99.12
3769.00,99.13
3768.00,99.12
3767.00,99.12
3766.00,99.15
3765.00,99.20
3764.00,99.22
3763.00,99.19
3762.00,99.15
3761.00,99.13
3760.00,99.12
3759.00,99.11
3758.00,99.10
3757.00,99.08
3756.00,99.07
3755.00,99.05
3754.00,99.05
3753.00,99.05
3752.00,99.06
3751.00,99.04
3750.00,99.04
3749.00,99.04
3748.00,99.03
3747.00,98.98
3746.00,98.94
3745.00,98.99
3744.00,99.05
3743.00,99.05
3742.00,99.00
3741.00,98.98
3740.00,99.01
3739.00,99.05
3738.00,99.08
3737.00,99.10
3736.00,99.10
3735.00,99.07
3734.00,99.01
3733.00,98.98
3732.00,99.00
3731.00,99.06
3730.00,99.09
3729.00,99.09
3728.00,99.07
3727.00,99.07
3726.00,99.07
3725.00,99.07
3724.00,99.06
3723.00,99.06
3722.00,99.06
3721.00,99.05
3720.00,99.03
3719.00,99.01
3718.00,99.01
3717.00,99.02
3716.00,99.02
3715.00,99.03
3714.00,99.04
3713.00,99.06
3712.00,99.07
3711.00,99.06
3710.00,99.04
3709.00,99.02
3708.00,99.02
3707.00,99.03
3706.00,99.03
3705.00,99.01
3704.00,98.99
3703.00,98.98
3702.00,98.98
3701.00,98.99
3700.00,99.01
3699.00,99.02
3698.00,99.04
3697.00,99.07
3696.00,99.10
3695.00,99.09
3694.00,99.07
3693.00,99.04
3692.00,99.00
3691.00,98.96
3690.00,98.91
3689.00,98.88
3688.00,98.89
3687.00,98.91
3686.00,98.92
3685.00,98.94
3684.00,98.96
3683.00,98.97
3682.00,98.98
3681.00,98.98
3680.00,98.98
3679.00,98.96
3678.00,98.91
3677.00,98.87
3676.00,98.89
3675.00,98.92
3674.00,98.91
3673.00,98.84
3672.00,98.78
3671.00,98.78
3670.00,98.82
3669.00,98.85
3668.00,98.86
3667.00,98.86
3666.00,98.89
3665.00,98.92
3664.00,98.94
3663.00,98.96
3662.00,98.97
3661.00,98.98
3660.00,98.97
3659.00,98.94
3658.00,98.92
3657.00,98.93
3656.00,98.97
3655.00,99.00
3654.00,98.99
3653.00,98.95
3652.00,98.92
3651.00,98.91
3650.00,98.89
3649.00,98.86
3648.00,98.83
3647.00,98.83
3646.00,98.84
3645.00,98.86
3644.00,98.87
3643.00,98.89
3642.00,98.92
3641.00,98.93
3640.00,98.94
3639.00,98.93
3638.00,98.93
3637.00,98.94
3636.00,98.94
3635.00,98.95
3634.00,98.96
3633.00,98.95
3632.00,98.91
3631.00,98.86
3630.00,98.86
3629.00,98.89
3628.00,98.90
3627.00,98.88
3626.00,98.85
3625.00,98.85
3624.00,98.88
3623.00,98.89
3622.00,98.87
3621.00,98.84
3620.00,98.82
3619.00,98.83
3618.00,98.84
3617.00,98.83
3616.00,98.81
3615.00,98.79
3614.00,98.79
3613.00,98.79
3612.00,98.79
3611.00,98.77
3610.00,98.76
3609.00,98.75
3608.00,98.75
3607.00,98.75
3606.00,98.75
3605.00,98.75
3604.00,98.76
3603.00,98.76
3602.00,98.77
3601.00,98.77
3600.00,98.78
3599.00,98.77
3598.00,98.75
3597.00,98.72
3596.00,98.70
3595.00,98.69
3594.00,98.71
3593.00,98.73
3592.00,98.72
3591.00,98.69
3590.00,98.65
3589.00,98.62
3588.00,98.64
3587.00,98.66
3586.00,98.68
3585.00,98.67
3584.00,98.66
3583.00,98.64
3582.00,98.63
3581.00,98.62
3580.00,98.62
3579.00,98.63
3578.00,98.63
3577.00,98.62
3576.00,98.59
3575.00,98.57
3574.00,98.57
3573.00,98.57
3572.00,98.58
3571.00,98.59
3570.00,98.59
3569.00,98.58
3568.00,98.58
3567.00,98.56
3566.00,98.54
3565.00,98.52
3564.00,98.51
3563.00,98.51
3562.00,98.51
3561.00,98.50
3560.00,98.48
3559.00,98.46
3558.00,98.46
3557.00,98.47
3556.00,98.47
3555.00,98.47
3554.00,98.45
3553.00,98.44
3552.00,98.43
3551.00,98.43
3550.00,98.43
3549.00,98.43
3548.00,98.44
3547.00,98.45
3546.00,98.45
3545.00,98.44
3544.00,98.41
3543.00,98.39
3542.00,98.37
3541.00,98.34
3540.00,98.32
3539.00,98.30
3538.00,98.28
3537.00,98.27
3536.00,98.27
3535.00,98.27
3534.00,98.27
3533.00,98.28
3532.00,98.28
3531.00,98.27
3530.00,98.27
3529.00,98.26
3528.00,98.24
3527.00,98.21
3526.00,98.18
3525.00,98.15
3524.00,98.13
3523.00,98.13
3522.00,98.13
3521.00,98.14
3520.00,98.14
3519.00,98.14
3518.00,98.14
3517.00,98.13
3516.00,98.11
3515.00,98.10
3514.00,98.09
3513.00,98.08
3512.00,98.09
3511.00,98.10
3510.00,98.11
3509.00,98.12
3508.00,98.11
3507.00,98.11
3506.00,98.10
3505.00,98.10
3504.00,98.10
3503.00,98.09
3502.00,98.08
3501.00,98.08
3500.00,98.09
3499.00,98.09
3498.00,98.07
3497.00,98.03
3496.00,97.99
3495.00,97.95
3494.00,97.93
3493.00,97.92
3492.00,97.92
3491.00,97.93
3490.00,97.94
3489.00,97.95
3488.00,97.97
3487.00,97.99
3486.00,98.00
3485.00,97.99
3484.00,97.97
3483.00,97.96
3482.00,97.96
3481.00,97.96
3480.00,97.96
3479.00,97.94
3478.00,97.92
3477.00,97.90
3476.00,97.88
3475.00,97.87
3474.00,97.86
3473.00,97.87
3472.00,97.89
3471.00,97.91
3470.00,97.92
3469.00,97.92
3468.00,97.91
3467.00,97.90
3466.00,97.87
3465.00,97.84
3464.00,97.81
3463.00,97.79
3462.00,97.79
3461.00,97.79
3460.00,97.78
3459.00,97.77
3458.00,97.76
3457.00,97.77
3456.00,97.77
3455.00,97.78
3454.00,97.78
3453.00,97.76
3452.00,97.73
3451.00,97.71
3450.00,97.69
3449.00,97.68
3448.00,97.69
3447.00,97.69
3446.00,97.68
3445.00,97.66
3444.00,97.63
3443.00,97.60
3442.00,97.57
3441.00,97.57
3440.00,97.59
3439.00,97.63
3438.00,97.66
3437.00,97.68
3436.00,97.67
3435.00,97.64
3434.00,97.62
3433.00,97.60
3432.00,97.58
3431.00,97.56
3430.00,97.55
3429.00,97.55
3428.00,97.55
3427.00,97.56
3426.00,97.57
3425.00,97.58
3424.00,97.58
3423.00,97.58
3422.00,97.56
3421.00,97.53
3420.00,97.50
3419.00,97.49
3418.00,97.47
3417.00,97.47
3416.00,97.47
3415.00,97.47
3414.00,97.46
3413.00,97.46
3412.00,97.44
3411.00,97.43
3410.00,97.42
3409.00,97.43
3408.00,97.44
3407.00,97.44
3406.00,97.43
3405.00,97.40
3404.00,97.36
3403.00,97.33
3402.00,97.30
3401.00,97.28
3400.00,97.28
3399.00,97.29
3398.00,97.30
3397.00,97.31
3396.00,97.30
3395.00,97.29
3394.00,97.29
3393.00,97.29
3392.00,97.27
3391.00,97.24
3390.00,97.21
3389.00,97.17
3388.00,97.14
3387.00,97.12
3386.00,97.10
3385.00,97.10
3384.00,97.11
3383.00,97.12
3382.00,97.12
3381.00,97.10
3380.00,97.07
3379.00,97.04
3378.00,97.02
3377.00,97.01
3376.00,97.00
3375.00,96.98
3374.00,96.95
3373.00,96.92
3372.00,96.89
3371.00,96.85
3370.00,96.83
3369.00,96.80
3368.00,96.79
3367.00,96.78
3366.00,96.77
3365.00,96.75
3364.00,96.72
3363.00,96.68
3362.00,96.65
3361.00,96.61
3360.00,96.58
3359.00,96.56
3358.00,96.53
3357.00,96.50
3356.00,96.46
3355.00,96.42
3354.00,96.38
3353.00,96.35
3352.00,96.31
3351.00,96.27
3350.00,96.22
3349.00,96.17
3348.00,96.11
3347.00,96.05
3346.00,96.00
3345.00,95.96
3344.00,95.91
3343.00,95.85
3342.00,95.78
3341.00,95.71
3340.00,95.63
3339.00,95.55
3338.00,95.46
3337.00,95.37
3336.00,95.28
3335.00,95.19
3334.00,95.10
3333.00,95.03
3332.00,94.95
3331.00,94.88
3330.00,94.79
3329.00,94.69
3328.00,94.58
3327.00,94.47
3326.00,94.34
3325.00,94.20
3324.00,94.06
3323.00,93.92
3322.00,93.79
3321.00,93.67
3320.00,93.56
3319.00,93.44
3318.00,93.31
3317.00,93.17
3316.00,93.04
3315.00,92.91
3314.00,92.79
3313.00,92.66
3312.00,92.51
3311.00,92.34
3310.00,92.15
3309.00,91.96
3308.00,91.75
3307.00,91.53
3306.00,91.31
3305.00,91.11
3304.00,90.92
3303.00,90.76
3302.00,90.62
3301.00,90.49
3300.00,90.37
3299.00,90.26
3298.00,90.18
3297.00,90.13
3296.00,90.12
3295.00,90.15
3294.00,90.21
3293.00,90.30
3292.00,90.40
3291.00,90.52
3290.00,90.65
3289.00,90.78
3288.00,90.90
3287.00,91.03
3286.00,91.17
3285.00,91.32
3284.00,91.49
3283.00,91.67
3282.00,91.83
3281.00,91.97
3280.00,92.09
3279.00,92.20
3278.00,92.32
3277.00,92.43
3276.00,92.53
3275.00,92.62
3274.00,92.71
3273.00,92.80
3272.00,92.90
3271.00,92.99
3270.00,93.08
3269.00,93.17
3268.00,93.27
3267.00,93.36
3266.00,93.46
3265.00,93.57
3264.00,93.68
3263.00,93.79
3262.00,93.88
3261.00,93.96
3260.00,94.04
3259.00,94.12
3258.00,94.20
3257.00,94.28
3256.00,94.37
3255.00,94.46
3254.00,94.55
3253.00,94.63
3252.00,94.69
3251.00,94.73
3250.00,94.78
3249.00,94.84
3248.00,94.90
3247.00,94.95
3246.00,95.02
3245.00,95.09
3244.00,95.17
3243.00,95.25
3242.00,95.31
3241.00,95.36
3240.00,95.42
3239.00,95.47
3238.00,95.52
3237.00,95.58
3236.00,95.64
3235.00,95.70
3234.00,95.75
3233.00,95.81
3232.00,95.85
3231.00,95.87
3230.00,95.89
3229.00,95.90
3228.00,95.93
3227.00,95.98
3226.00,96.02
3225.00,96.05
3224.00,96.08
3223.00,96.10
3222.00,96.12
3221.00,96.13
3220.00,96.15
3219.00,96.17
3218.00,96.20
3217.00,96.23
3216.00,96.26
3215.00,96.29
3214.00,96.32
3213.00,96.33
3212.00,96.34
3211.00,96.34
3210.00,96.35
3209.00,96.37
3208.00,96.40
3207.00,96.43
3206.00,96.47
3205.00,96.49
3204.00,96.49
3203.00,96.49
3202.00,96.49
3201.00,96.50
3200.00,96.52
3199.00,96.55
3198.00,96.56
3197.00,96.58
3196.00,96.60
3195.00,96.62
3194.00,96.63
3193.00,96.64
3192.00,96.65
3191.00,96.67
3190.00,96.69
3189.00,96.71
3188.00,96.73
3187.00,96.74
3186.00,96.75
3185.00,96.76
3184.00,96.77
3183.00,96.79
3182.00,96.82
3181.00,96.85
3180.00,96.89
3179.00,96.92
3178.00,96.96
3177.00,97.00
3176.00,97.03
3175.00,97.05
3174.00,97.06
3173.00,97.07
3172.00,97.09
3171.00,97.14
3170.00,97.17
3169.00,97.19
3168.00,97.20
3167.00,97.19
3166.00,97.18
3165.00,97.19
3164.00,97.21
3163.00,97.25
3162.00,97.29
3161.00,97.32
3160.00,97.35
3159.00,97.38
3158.00,97.40
3157.00,97.41
3156.00,97.42
3155.00,97.43
3154.00,97.43
3153.00,97.43
3152.00,97.42
3151.00,97.43
3150.00,97.46
3149.00,97.50
3148.00,97.52
3147.00,97.53
3146.00,97.53
3145.00,97.52
3144.00,97.52
3143.00,97.53
3142.00,97.54
3141.00,97.55
3140.00,97.56
3139.00,97.57
3138.00,97.60
3137.00,97.61
3136.00,97.61
3135.00,97.62
3134.00,97.62
3133.00,97.62
3132.00,97.62
3131.00,97.62
3130.00,97.61
3129.00,97.61
3128.00,97.61
3127.00,97.62
3126.00,97.62
3125.00,97.62
3124.00,97.62
3123.00,97.60
3122.00,97.57
3121.00,97.54
3120.00,97.52
3119.00,97.52
3118.00,97.52
3117.00,97.52
3116.00,97.51
3115.00,97.49
3114.00,97.47
3113.00,97.44
3112.00,97.42
3111.00,97.40
3110.00,97.38
3109.00,97.37
3108.00,97.37
3107.00,97.37
3106.00,97.37
3105.00,97.35
3104.00,97.33
3103.00,97.30
3102.00,97.28
3101.00,97.25
3100.00,97.22
3099.00,97.20
3098.00,97.19
3097.00,97.17
3096.00,97.16
3095.00,97.15
3094.00,97.14
3093.00,97.12
3092.00,97.10
3091.00,97.07
3090.00,97.05
3089.00,97.02
3088.00,97.00
3087.00,96.99
3086.00,96.98
3085.00,96.98
3084.00,96.98
3083.00,96.98
3082.00,96.98
3081.00,96.98
3080.00,96.98
3079.00,96.98
3078.00,96.98
3077.00,96.96
3076.00,96.95
3075.00,96.94
3074.00,96.94
3073.00,96.95
3072.00,96.95
3071.00,96.94
3070.00,96.93
3069.00,96.93
3068.00,96.93
3067.00,96.94
3066.00,96.94
3065.00,96.95
3064.00,96.96
3063.00,96.98
3062.00,97.01
3061.00,97.04
3060.00,97.05
3059.00,97.07
3058.00,97.08
3057.00,97.10
3056.00,97.13
3055.00,97.16
3054.00,97.18
3053.00,97.20
3052.00,97.23
3051.00,97.25
3050.00,97.28
3049.00,97.32
3048.00,97.36
3047.00,97.41
3046.00,97.46
3045.00,97.50
3044.00,97.54
3043.00,97.57
3042.00,97.60
3041.00,97.63
3040.00,97.65
3039.00,97.68
3038.00,97.71
3037.00,97.73
3036.00,97.76
3035.00,97.77
3034.00,97.78
3033.00,97.80
3032.00,97.82
3031.00,97.84
3030.00,97.86
3029.00,97.87
3028.00,97.87
3027.00,97.88
3026.00,97.89
3025.00,97.91
3024.00,97.94
3023.00,97.96
3022.00,97.97
3021.00,97.98
3020.00,97.99
3019.00,98.00
3018.00,98.00
3017.00,98.00
3016.00,98.00
3015.00,98.01
3014.00,98.03
3013.00,98.06
3012.00,98.07
3011.00,98.08
3010.00,98.07
3009.00,98.06
3008.00,98.06
3007.00,98.06
3006.00,98.08
3005.00,98.09
3004.00,98.08
3003.00,98.06
3002.00,98.04
3001.00,98.03
3000.00,98.03
2999.00,98.04
2998.00,98.04
2997.00,98.03
2996.00,98.02
2995.00,98.02
2994.00,98.02
2993.00,98.02
2992.00,98.00
2991.00,97.97
2990.00,97.93
2989.00,97.90
2988.00,97.88
2987.00,97.86
2986.00,97.83
2985.00,97.80
2984.00,97.75
2983.00,97.71
2982.00,97.67
2981.00,97.64
2980.00,97.60
2979.00,97.55
2978.00,97.50
2977.00,97.44
2976.00,97.38
2975.00,97.32
2974.00,97.25
2973.00,97.16
2972.00,97.07
2971.00,96.97
2970.00,96.89
2969.00,96.81
2968.00,96.72
2967.00,96.63
2966.00,96.54
2965.00,96.44
2964.00,96.35
2963.00,96.25
2962.00,96.14
2961.00,96.03
2960.00,95.90
2959.00,95.77
2958.00,95.63
2957.00,95.49
2956.00,95.35
2955.00,95.18
2954.00,94.99
2953.00,94.77
2952.00,94.53
2951.00,94.27
2950.00,94.02
2949.00,93.77
2948.00,93.53
2947.00,93.31
2946.00,93.11
2945.00,92.94
2944.00,92.79
2943.00,92.67
2942.00,92.55
2941.00,92.45
2940.00,92.35
2939.00,92.27
2938.00,92.20
2937.00,92.13
2936.00,92.08
2935.00,92.04
2934.00,92.02
2933.00,92.04
2932.00,92.07
2931.00,92.13
2930.00,92.19
2929.00,92.27
2928.00,92.35
2927.00,92.44
2926.00,92.52
2925.00,92.61
2924.00,92.70
2923.00,92.80
2922.00,92.89
2921.00,92.98
2920.00,93.08
2919.00,93.20
2918.00,93.32
2917.00,93.44
2916.00,93.56
2915.00,93.68
2914.00,93.79
2913.00,93.90
2912.00,94.01
2911.00,94.11
2910.00,94.21
2909.00,94.30
2908.00,94.38
2907.00,94.45
2906.00,94.50
2905.00,94.55
2904.00,94.58
2903.00,94.61
2902.00,94.64
2901.00,94.68
2900.00,94.72
2899.00,94.77
2898.00,94.84
2897.00,94.92
2896.00,95.01
2895.00,95.11
2894.00,95.20
2893.00,95.30
2892.00,95.39
2891.00,95.46
2890.00,95.52
2889.00,95.57
2888.00,95.59
2887.00,95.59
2886.00,95.57
2885.00,95.55
2884.00,95.52
2883.00,95.47
2882.00,95.39
2881.00,95.30
2880.00,95.19
2879.00,95.07
2878.00,94.94
2877.00,94.80
2876.00,94.67
2875.00,94.54
2874.00,94.41
2873.00,94.29
2872.00,94.19
2871.00,94.10
2870.00,94.02
2869.00,93.97
2868.00,93.92
2867.00,93.88
2866.00,93.85
2865.00,93.84
2864.00,93.84
2863.00,93.86
2862.00,93.89
2861.00,93.93
2860.00,93.96
2859.00,93.99
2858.00,94.03
2857.00,94.08
2856.00,94.14
2855.00,94.22
2854.00,94.30
2853.00,94.40
2852.00,94.51
2851.00,94.66
2850.00,94.84
2849.00,95.04
2848.00,95.26
2847.00,95.48
2846.00,95.70
2845.00,95.91
2844.00,96.12
2843.00,96.32
2842.00,96.50
2841.00,96.64
2840.00,96.75
2839.00,96.85
2838.00,96.94
2837.00,97.02
2836.00,97.08
2835.00,97.12
2834.00,97.15
2833.00,97.18
2832.00,97.23
2831.00,97.28
2830.00,97.32
2829.00,97.34
2828.00,97.36
2827.00,97.37
2826.00,97.38
2825.00,97.40
2824.00,97.44
2823.00,97.47
2822.00,97.49
2821.00,97.51
2820.00,97.52
2819.00,97.53
2818.00,97.54
2817.00,97.56
2816.00,97.58
2815.00,97.60
2814.00,97.62
2813.00,97.64
2812.00,97.65
2811.00,97.66
2810.00,97.67
2809.00,97.69
2808.00,97.72
2807.00,97.75
2806.00,97.77
2805.00,97.78
2804.00,97.79
2803.00,97.80
2802.00,97.82
2801.00,97.83
2800.00,97.84
2799.00,97.84
2798.00,97.85
2797.00,97.86
2796.00,97.88
2795.00,97.89
2794.00,97.89
2793.00,97.89
2792.00,97.88
2791.00,97.88
2790.00,97.89
2789.00,97.89
2788.00,97.89
2787.00,97.90
2786.00,97.92
2785.00,97.94
2784.00,97.96
2783.00,97.98
2782.00,98.00
2781.00,98.00
2780.00,98.00
2779.00,98.00
2778.00,98.01
2777.00,98.01
2776.00,98.01
2775.00,98.01
2774.00,98.01
2773.00,98.01
2772.00,98.00
2771.00,98.00
2770.00,97.99
2769.00,98.00
2768.00,98.01
2767.00,98.03
2766.00,98.05
2765.00,98.06
2764.00,98.08
2763.00,98.08
2762.00,98.08
2761.00,98.08
2760.00,98.09
2759.00,98.09
2758.00,98.10
2757.00,98.09
2756.00,98.09
2755.00,98.08
2754.00,98.07
2753.00,98.07
2752.00,98.07
2751.00,98.08
2750.00,98.08
2749.00,98.09
2748.00,98.09
2747.00,98.08
2746.00,98.08
2745.00,98.09
2744.00,98.11
2743.00,98.12
2742.00,98.11
2741.00,98.10
2740.00,98.09
2739.00,98.09
2738.00,98.11
2737.00,98.12
2736.00,98.13
2735.00,98.14
2734.00,98.15
2733.00,98.16
2732.00,98.17
2731.00,98.16
2730.00,98.15
2729.00,98.15
2728.00,98.17
2727.00,98.19
2726.00,98.20
2725.00,98.20
2724.00,98.20
2723.00,98.19
2722.00,98.20
2721.00,98.21
2720.00,98.22
2719.00,98.23
2718.00,98.23
2717.00,98.23
2716.00,98.22
2715.00,98.21
2714.00,98.21
2713.00,98.20
2712.00,98.20
2711.00,98.21
2710.00,98.22
2709.00,98.24
2708.00,98.25
2707.00,98.25
2706.00,98.24
2705.00,98.25
2704.00,98.25
2703.00,98.24
2702.00,98.23
2701.00,98.22
2700.00,98.22
2699.00,98.23
2698.00,98.24
2697.00,98.24
2696.00,98.24
2695.00,98.24
2694.00,98.24
2693.00,98.25
2692.00,98.27
2691.00,98.28
2690.00,98.28
2689.00,98.28
2688.00,98.28
2687.00,98.29
2686.00,98.29
2685.00,98.30
2684.00,98.29
2683.00,98.29
2682.00,98.30
2681.00,98.30
2680.00,98.30
2679.00,98.30
2678.00,98.29
2677.00,98.30
2676.00,98.31
2675.00,98.32
2674.00,98.33
2673.00,98.33
2672.00,98.33
2671.00,98.33
2670.00,98.32
2669.00,98.32
2668.00,98.32
2667.00,98.32
2666.00,98.33
2665.00,98.33
2664.00,98.33
2663.00,98.32
2662.00,98.31
2661.00,98.30
2660.00,98.30
2659.00,98.29
2658.00,98.29
2657.00,98.29
2656.00,98.29
2655.00,98.29
2654.00,98.27
2653.00,98.26
2652.00,98.26
2651.00,98.27
2650.00,98.26
2649.00,98.25
2648.00,98.23
2647.00,98.21
2646.00,98.21
2645.00,98.21
2644.00,98.22
2643.00,98.22
2642.00,98.22
2641.00,98.21
2640.00,98.21
2639.00,98.22
2638.00,98.23
2637.00,98.24
2636.00,98.24
2635.00,98.23
2634.00,98.22
2633.00,98.21
2632.00,98.20
2631.00,98.19
2630.00,98.19
2629.00,98.19
2628.00,98.20
2627.00,98.21
2626.00,98.21
2625.00,98.20
2624.00,98.19
2623.00,98.18
2622.00,98.18
2621.00,98.18
2620.00,98.17
2619.00,98.16
2618.00,98.16
2617.00,98.16
2616.00,98.17
2615.00,98.17
2614.00,98.18
2613.00,98.17
2612.00,98.16
2611.00,98.14
2610.00,98.12
2609.00,98.13
2608.00,98.14
2607.00,98.16
2606.00,98.17
2605.00,98.17
2604.00,98.16
2603.00,98.15
2602.00,98.16
2601.00,98.16
2600.00,98.15
2599.00,98.14
2598.00,98.13
2597.00,98.14
2596.00,98.16
2595.00,98.17
2594.00,98.17
2593.00,98.16
2592.00,98.14
2591.00,98.14
2590.00,98.15
2589.00,98.16
2588.00,98.17
2587.00,98.17
2586.00,98.16
2585.00,98.14
2584.00,98.12
2583.00,98.09
2582.00,98.08
2581.00,98.09
2580.00,98.11
2579.00,98.12
2578.00,98.13
2577.00,98.13
2576.00,98.13
2575.00,98.12
2574.00,98.11
2573.00,98.10
2572.00,98.08
2571.00,98.07
2570.00,98.05
2569.00,98.05
2568.00,98.05
2567.00,98.06
2566.00,98.07
2565.00,98.08
2564.00,98.09
2563.00,98.09
2562.00,98.08
2561.00,98.08
2560.00,98.07
2559.00,98.07
2558.00,98.08
2557.00,98.09
2556.00,98.11
2555.00,98.12
2554.00,98.11
2553.00,98.09
2552.00,98.08
2551.00,98.09
2550.00,98.11
2549.00,98.13
2548.00,98.12
2547.00,98.11
2546.00,98.11
2545.00,98.11
2544.00,98.12
2543.00,98.12
2542.00,98.11
2541.00,98.10
2540.00,98.09
2539.00,98.08
2538.00,98.08
2537.00,98.07
2536.00,98.06
2535.00,98.06
2534.00,98.07
2533.00,98.09
2532.00,98.10
2531.00,98.10
2530.00,98.08
2529.00,98.05
2528.00,98.05
2527.00,98.07
2526.00,98.11
2525.00,98.15
2524.00,98.17
2523.00,98.18
2522.00,98.17
2521.00,98.17
2520.00,98.17
2519.00,98.18
2518.00,98.18
2517.00,98.17
2516.00,98.16
2515.00,98.16
2514.00,98.17
2513.00,98.17
2512.00,98.15
2511.00,98.13
2510.00,98.10
2509.00,98.07
2508.00,98.06
2507.00,98.06
2506.00,98.07
2505.00,98.09
2504.00,98.11
2503.00,98.13
2502.00,98.14
2501.00,98.15
2500.00,98.15
2499.00,98.14
2498.00,98.12
2497.00,98.11
2496.00,98.12
2495.00,98.14
2494.00,98.16
2493.00,98.19
2492.00,98.20
2491.00,98.20
2490.00,98.19
2489.00,98.17
2488.00,98.17
2487.00,98.16
2486.00,98.15
2485.00,98.14
2484.00,98.13
2483.00,98.13
2482.00,98.13
2481.00,98.13
2480.00,98.12
2479.00,98.12
2478.00,98.13
2477.00,98.15
2476.00,98.16
2475.00,98.15
2474.00,98.13
2473.00,98.10
2472.00,98.09
2471.00,98.09
2470.00,98.10
2469.00,98.10
2468.00,98.09
2467.00,98.08
2466.00,98.08
2465.00,98.09
2464.00,98.11
2463.00,98.12
2462.00,98.13
2461.00,98.13
2460.00,98.13
2459.00,98.14
2458.00,98.14
2457.00,98.14
2456.00,98.14
2455.00,98.12
2454.00,98.10
2453.00,98.08
2452.00,98.08
2451.00,98.09
2450.00,98.11
2449.00,98.12
2448.00,98.11
2447.00,98.09
2446.00,98.08
2445.00,98.09
2444.00,98.10
2443.00,98.11
2442.00,98.11
2441.00,98.10
2440.00,98.09
2439.00,98.11
2438.00,98.14
2437.00,98.16
2436.00,98.17
2435.00,98.16
2434.00,98.13
2433.00,98.10
2432.00,98.09
2431.00,98.10
2430.00,98.11
2429.00,98.13
2428.00,98.14
2427.00,98.15
2426.00,98.15
2425.00,98.17
2424.00,98.19
2423.00,98.20
2422.00,98.19
2421.00,98.17
2420.00,98.15
2419.00,98.14
2418.00,98.15
2417.00,98.17
2416.00,98.19
2415.00,98.20
2414.00,98.20
2413.00,98.20
2412.00,98.20
2411.00,98.20
2410.00,98.19
2409.00,98.18
2408.00,98.16
2407.00,98.15
2406.00,98.15
2405.00,98.15
2404.00,98.17
2403.00,98.20
2402.00,98.20
2401.00,98.19
2400.00,98.17
2399.00,98.16
2398.00,98.18
2397.00,98.21
2396.00,98.23
2395.00,98.24
2394.00,98.25
2393.00,98.25
2392.00,98.26
2391.00,98.26
2390.00,98.26
2389.00,98.25
2388.00,98.25
2387.00,98.25
2386.00,98.27
2385.00,98.30
2384.00,98.32
2383.00,98.32
2382.00,98.32
2381.00,98.31
2380.00,98.32
2379.00,98.35
2378.00,98.40
2377.00,98.45
2376.00,98.48
2375.00,98.49
2374.00,98.49
2373.00,98.46
2372.00,98.42
2371.00,98.39
2370.00,98.38
2369.00,98.39
2368.00,98.42
2367.00,98.46
2366.00,98.49
2365.00,98.48
2364.00,98.43
2363.00,98.36
2362.00,98.33
2361.00,98.34
2360.00,98.38
2359.00,98.42
2358.00,98.45
2357.00,98.46
2356.00,98.46
2355.00,98.45
2354.00,98.44
2353.00,98.43
2352.00,98.43
2351.00,98.46
2350.00,98.49
2349.00,98.54
2348.00,98.61
2347.00,98.67
2346.00,98.67
2345.00,98.59
2344.00,98.48
2343.00,98.39
2342.00,98.36
2341.00,98.36
2340.00,98.37
2339.00,98.39
2338.00,98.39
2337.00,98.40
2336.00,98.43
2335.00,98.47
2334.00,98.50
2333.00,98.51
2332.00,98.50
2331.00,98.46
2330.00,98.40
2329.00,98.35
2328.00,98.31
2327.00,98.30
2326.00,98.29
2325.00,98.27
2324.00,98.24
2323.00,98.21
2322.00,98.17
2321.00,98.13
2320.00,98.09
2319.00,98.07
2318.00,98.06
2317.00,98.07
2316.00,98.09
2315.00,98.12
2314.00,98.15
2313.00,98.17
2312.00,98.18
2311.00,98.18
2310.00,98.18
2309.00,98.17
2308.00,98.17
2307.00,98.18
2306.00,98.19
2305.00,98.20
2304.00,98.19
2303.00,98.18
2302.00,98.17
2301.00,98.15
2300.00,98.15
2299.00,98.16
2298.00,98.17
2297.00,98.16
2296.00,98.13
2295.00,98.08
2294.00,98.03
2293.00,98.00
2292.00,97.98
2291.00,97.98
2290.00,98.00
2289.00,98.00
2288.00,97.99
2287.00,97.98
2286.00,97.97
2285.00,97.97
2284.00,97.97
2283.00,97.98
2282.00,98.00
2281.00,98.01
2280.00,98.01
2279.00,97.98
2278.00,97.95
2277.00,97.94
2276.00,97.93
2275.00,97.92
2274.00,97.92
2273.00,97.92
2272.00,97.93
2271.00,97.95
2270.00,97.97
2269.00,97.97
2268.00,97.96
2267.00,97.95
2266.00,97.93
2265.00,97.92
2264.00,97.92
2263.00,97.93
2262.00,97.94
2261.00,97.92
2260.00,97.88
2259.00,97.82
2258.00,97.76
2257.00,97.73
2256.00,97.72
2255.00,97.72
2254.00,97.74
2253.00,97.76
2252.00,97.79
2251.00,97.83
2250.00,97.84
2249.00,97.84
2248.00,97.82
2247.00,97.82
2246.00,97.82
2245.00,97.82
2244.00,97.80
2243.00,97.77
2242.00,97.74
2241.00,97.71
2240.00,97.69
2239.00,97.69
2238.00,97.69
2237.00,97.68
2236.00,97.67
2235.00,97.67
2234.00,97.67
2233.00,97.67
2232.00,97.67
2231.00,97.65
2230.00,97.65
2229.00,97.68
2228.00,97.72
2227.00,97.76
2226.00,97.78
2225.00,97.78
2224.00,97.78
2223.00,97.78
2222.00,97.78
2221.00,97.75
2220.00,97.73
2219.00,97.71
2218.00,97.71
2217.00,97.70
2216.00,97.67
2215.00,97.62
2214.00,97.57
2213.00,97.53
2212.00,97.53
2211.00,97.57
2210.00,97.60
2209.00,97.62
2208.00,97.61
2207.00,97.60
2206.00,97.59
2205.00,97.57
2204.00,97.53
2203.00,97.50
2202.00,97.50
2201.00,97.50
2200.00,97.50
2199.00,97.49
2198.00,97.50
2197.00,97.53
2196.00,97.58
2195.00,97.63
2194.00,97.64
2193.00,97.62
2192.00,97.60
2191.00,97.59
2190.00,97.59
2189.00,97.57
2188.00,97.52
2187.00,97.47
2186.00,97.45
2185.00,97.44
2184.00,97.45
2183.00,97.47
2182.00,97.51
2181.00,97.54
2180.00,97.52
2179.00,97.48
2178.00,97.43
2177.00,97.40
2176.00,97.39
2175.00,97.37
2174.00,97.36
2173.00,97.35
2172.00,97.33
2171.00,97.31
2170.00,97.30
2169.00,97.30
2168.00,97.29
2167.00,97.27
2166.00,97.27
2165.00,97.31
2164.00,97.36
2163.00,97.41
2162.00,97.42
2161.00,97.43
2160.00,97.43
2159.00,97.44
2158.00,97.43
2157.00,97.41
2156.00,97.42
2155.00,97.44
2154.00,97.46
2153.00,97.45
2152.00,97.43
2151.00,97.42
2150.00,97.44
2149.00,97.47
2148.00,97.49
2147.00,97.51
2146.00,97.54
2145.00,97.58
2144.00,97.64
2143.00,97.69
2142.00,97.72
2141.00,97.73
2140.00,97.72
2139.00,97.68
2138.00,97.66
2137.00,97.65
2136.00,97.67
2135.00,97.70
2134.00,97.71
2133.00,97.71
2132.00,97.69
2131.00,97.68
2130.00,97.70
2129.00,97.74
2128.00,97.77
2127.00,97.78
2126.00,97.77
2125.00,97.77
2124.00,97.79
2123.00,97.82
2122.00,97.84
2121.00,97.86
2120.00,97.86
2119.00,97.86
2118.00,97.86
2117.00,97.85
2116.00,97.82
2115.00,97.79
2114.00,97.76
2113.00,97.76
2112.00,97.76
2111.00,97.76
2110.00,97.76
2109.00,97.76
2108.00,97.77
2107.00,97.78
2106.00,97.79
2105.00,97.79
2104.00,97.79
2103.00,97.80
2102.00,97.79
2101.00,97.78
2100.00,97.78
2099.00,97.78
2098.00,97.79
2097.00,97.79
2096.00,97.79
2095.00,97.78
2094.00,97.77
2093.00,97.77
2092.00,97.75
2091.00,97.73
2090.00,97.69
2089.00,97.67
2088.00,97.67
2087.00,97.69
2086.00,97.70
2085.00,97.70
2084.00,97.70
2083.00,97.72
2082.00,97.74
2081.00,97.75
2080.00,97.74
2079.00,97.72
2078.00,97.70
2077.00,97.69
2076.00,97.70
2075.00,97.73
2074.00,97.76
2073.00,97.76
2072.00,97.73
2071.00,97.67
2070.00,97.62
2069.00,97.61
2068.00,97.64
2067.00,97.70
2066.00,97.75
2065.00,97.79
2064.00,97.80
2063.00,97.77
2062.00,97.71
2061.00,97.64
2060.00,97.61
2059.00,97.62
2058.00,97.67
2057.00,97.74
2056.00,97.80
2055.00,97.84
2054.00,97.84
2053.00,97.81
2052.00,97.74
2051.00,97.64
2050.00,97.55
2049.00,97.48
2048.00,97.46
2047.00,97.46
2046.00,97.46
2045.00,97.44
2044.00,97.40
2043.00,97.36
2042.00,97.33
2041.00,97.35
2040.00,97.42
2039.00,97.53
2038.00,97.59
2037.00,97.58
2036.00,97.49
2035.00,97.39
2034.00,97.32
2033.00,97.31
2032.00,97.34
2031.00,97.39
2030.00,97.40
2029.00,97.37
2028.00,97.33
2027.00,97.30
2026.00,97.28
2025.00,97.26
2024.00,97.24
2023.00,97.25
2022.00,97.31
2021.00,97.40
2020.00,97.50
2019.00,97.55
2018.00,97.53
2017.00,97.47
2016.00,97.39
2015.00,97.35
2014.00,97.37
2013.00,97.44
2012.00,97.51
2011.00,97.54
2010.00,97.52
2009.00,97.47
2008.00,97.45
2007.00,97.48
2006.00,97.50
2005.00,97.48
2004.00,97.43
2003.00,97.39
2002.00,97.40
2001.00,97.45
2000.00,97.51
1999.00,97.56
1998.00,97.61
1997.00,97.64
1996.00,97.67
1995.00,97.65
1994.00,97.61
1993.00,97.58
1992.00,97.58
1991.00,97.60
1990.00,97.63
1989.00,97.64
1988.00,97.62
1987.00,97.60
1986.00,97.56
1985.00,97.53
1984.00,97.51
1983.00,97.49
1982.00,97.46
1981.00,97.41
1980.00,97.38
1979.00,97.39
1978.00,97.44
1977.00,97.51
1976.00,97.58
1975.00,97.63
1974.00,97.66
1973.00,97.65
1972.00,97.63
1971.00,97.63
1970.00,97.62
1969.00,97.61
1968.00,97.57
1967.00,97.54
1966.00,97.53
1965.00,97.54
1964.00,97.56
1963.00,97.59
1962.00,97.63
1961.00,97.67
1960.00,97.72
1959.00,97.77
1958.00,97.81
1957.00,97.83
1956.00,97.83
1955.00,97.79
1954.00,97.75
1953.00,97.73
1952.00,97.74
1951.00,97.78
1950.00,97.82
1949.00,97.81
1948.00,97.78
1947.00,97.74
1946.00,97.70
1945.00,97.67
1944.00,97.66
1943.00,97.69
1942.00,97.76
1941.00,97.83
1940.00,97.87
1939.00,97.88
1938.00,97.88
1937.00,97.88
1936.00,97.90
1935.00,97.92
1934.00,97.93
1933.00,97.93
1932.00,97.92
1931.00,97.90
1930.00,97.89
1929.00,97.87
1928.00,97.87
1927.00,97.87
1926.00,97.88
1925.00,97.89
1924.00,97.89
1923.00,97.91
1922.00,97.93
1921.00,97.92
1920.00,97.89
1919.00,97.87
1918.00,97.88
1917.00,97.89
1916.00,97.91
1915.00,97.91
1914.00,97.92
1913.00,97.94
1912.00,97.95
1911.00,97.96
1910.00,97.95
1909.00,97.93
1908.00,97.93
1907.00,97.94
1906.00,97.96
1905.00,97.97
1904.00,97.99
1903.00,98.00
1902.00,98.01
1901.00,98.02
1900.00,98.02
1899.00,98.03
1898.00,98.03
1897.00,98.01
1896.00,97.99
1895.00,97.99
1894.00,98.00
1893.00,98.00
1892.00,97.99
1891.00,97.98
1890.00,97.97
1889.00,97.97
1888.00,97.97
1887.00,97.97
1886.00,97.97
1885.00,97.98
1884.00,98.01
1883.00,98.05
1882.00,98.08
1881.00,98.08
1880.00,98.08
1879.00,98.05
1878.00,98.03
1877.00,98.00
1876.00,97.99
1875.00,98.00
1874.00,98.03
1873.00,98.07
1872.00,98.09
1871.00,98.11
1870.00,98.12
1869.00,98.12
1868.00,98.13
1867.00,98.12
1866.00,98.10
1865.00,98.08
1864.00,98.07
1863.00,98.07
1862.00,98.08
1861.00,98.08
1860.00,98.09
1859.00,98.09
1858.00,98.09
1857.00,98.10
1856.00,98.11
1855.00,98.13
1854.00,98.13
1853.00,98.13
1852.00,98.12
1851.00,98.12
1850.00,98.13
1849.00,98.13
1848.00,98.13
1847.00,98.13
1846.00,98.13
1845.00,98.14
1844.00,98.15
1843.00,98.16
1842.00,98.16
1841.00,98.16
1840.00,98.16
1839.00,98.18
1838.00,98.20
1837.00,98.20
1836.00,98.18
1835.00,98.17
1834.00,98.16
1833.00,98.16
1832.00,98.17
1831.00,98.16
1830.00,98.17
1829.00,98.16
1828.00,98.15
1827.00,98.14
1826.00,98.14
1825.00,98.15
1824.00,98.17
1823.00,98.18
1822.00,98.18
1821.00,98.18
1820.00,98.18
1819.00,98.18
1818.00,98.18
1817.00,98.18
1816.00,98.19
1815.00,98.20
1814.00,98.21
1813.00,98.22
1812.00,98.22
1811.00,98.21
1810.00,98.20
1809.00,98.18
1808.00,98.16
1807.00,98.15
1806.00,98.15
1805.00,98.15
1804.00,98.16
1803.00,98.16
1802.00,98.17
1801.00,98.17
1800.00,98.16
1799.00,98.16
1798.00,98.16
1797.00,98.16
1796.00,98.17
1795.00,98.18
1794.00,98.19
1793.00,98.20
1792.00,98.20
1791.00,98.20
1790.00,98.21
1789.00,98.22
1788.00,98.22
1787.00,98.23
1786.00,98.22
1785.00,98.21
1784.00,98.20
1783.00,98.19
1782.00,98.18
1781.00,98.17
1780.00,98.17
1779.00,98.17
1778.00,98.16
1777.00,98.15
1776.00,98.13
1775.00,98.13
1774.00,98.13
1773.00,98.15
1772.00,98.17
1771.00,98.17
1770.00,98.17
1769.00,98.16
1768.00,98.15
1767.00,98.14
1766.00,98.13
1765.00,98.12
1764.00,98.12
1763.00,98.11
1762.00,98.10
1761.00,98.10
1760.00,98.10
1759.00,98.09
1758.00,98.08
1757.00,98.06
1756.00,98.04
1755.00,98.02
1754.00,98.00
1753.00,97.99
1752.00,97.98
1751.00,97.97
1750.00,97.96
1749.00,97.95
1748.00,97.94
1747.00,97.93
1746.00,97.91
1745.00,97.90
1744.00,97.89
1743.00,97.88
1742.00,97.86
1741.00,97.83
1740.00,97.80
1739.00,97.77
1738.00,97.75
1737.00,97.73
1736.00,97.73
1735.00,97.74
1734.00,97.76
1733.00,97.76
1732.00,97.74
1731.00,97.72
1730.00,97.72
1729.00,97.72
1728.00,97.72
1727.00,97.72
1726.00,97.71
1725.00,97.70
1724.00,97.69
1723.00,97.69
1722.00,97.69
1721.00,97.70
1720.00,97.70
1719.00,97.69
1718.00,97.69
1717.00,97.68
1716.00,97.68
1715.00,97.69
1714.00,97.70
1713.00,97.71
1712.00,97.71
1711.00,97.72
1710.00,97.71
1709.00,97.69
1708.00,97.66
1707.00,97.65
1706.00,97.66
1705.00,97.69
1704.00,97.71
1703.00,97.71
1702.00,97.70
1701.00,97.66
1700.00,97.59
1699.00,97.53
1698.00,97.48
1697.00,97.46
1696.00,97.45
1695.00,97.43
1694.00,97.40
1693.00,97.36
1692.00,97.32
1691.00,97.26
1690.00,97.20
1689.00,97.12
1688.00,97.03
1687.00,96.94
1686.00,96.83
1685.00,96.68
1684.00,96.51
1683.00,96.35
1682.00,96.19
1681.00,96.06
1680.00,95.93
1679.00,95.80
1678.00,95.68
1677.00,95.54
1676.00,95.36
1675.00,95.17
1674.00,94.96
1673.00,94.75
1672.00,94.53
1671.00,94.28
1670.00,93.99
1669.00,93.67
1668.00,93.33
1667.00,93.02
1666.00,92.74
1665.00,92.46
1664.00,92.16
1663.00,91.86
1662.00,91.58
1661.00,91.33
1660.00,91.10
1659.00,90.89
1658.00,90.69
1657.00,90.51
1656.00,90.31
1655.00,90.05
1654.00,89.70
1653.00,89.27
1652.00,88.83
1651.00,88.49
1650.00,88.19
1649.00,87.85
1648.00,87.41
1647.00,86.91
1646.00,86.39
1645.00,85.89
1644.00,85.42
1643.00,84.97
1642.00,84.53
1641.00,84.11
1640.00,83.73
1639.00,83.41
1638.00,83.17
1637.00,83.00
1636.00,82.94
1635.00,82.96
1634.00,83.05
1633.00,83.19
1632.00,83.37
1631.00,83.60
1630.00,83.86
1629.00,84.14
1628.00,84.44
1627.00,84.73
1626.00,85.02
1625.00,85.32
1624.00,85.66
1623.00,86.04
1622.00,86.40
1621.00,86.72
1620.00,87.02
1619.00,87.35
1618.00,87.76
1617.00,88.24
1616.00,88.72
1615.00,89.11
1614.00,89.42
1613.00,89.71
1612.00,90.02
1611.00,90.33
1610.00,90.64
1609.00,90.95
1608.00,91.26
1607.00,91.56
1606.00,91.85
1605.00,92.12
1604.00,92.39
1603.00,92.66
1602.00,92.90
1601.00,93.11
1600.00,93.32
1599.00,93.50
1598.00,93.66
1597.00,93.79
1596.00,93.90
1595.00,94.00
1594.00,94.07
1593.00,94.13
1592.00,94.19
1591.00,94.23
1590.00,94.25
1589.00,94.25
1588.00,94.25
1587.00,94.24
1586.00,94.22
1585.00,94.18
1584.00,94.14
1583.00,94.08
1582.00,94.00
1581.00,93.90
1580.00,93.79
1579.00,93.67
1578.00,93.51
1577.00,93.34
1576.00,93.18
1575.00,93.03
1574.00,92.90
1573.00,92.76
1572.00,92.62
1571.00,92.43
1570.00,92.21
1569.00,91.99
1568.00,91.79
1567.00,91.60
1566.00,91.40
1565.00,91.19
1564.00,91.00
1563.00,90.83
1562.00,90.67
1561.00,90.48
1560.00,90.22
1559.00,89.92
1558.00,89.64
1557.00,89.40
1556.00,89.19
1555.00,88.95
1554.00,88.68
1553.00,88.39
1552.00,88.09
1551.00,87.78
1550.00,87.43
1549.00,87.08
1548.00,86.74
1547.00,86.40
1546.00,86.05
1545.00,85.70
1544.00,85.36
1543.00,85.06
1542.00,84.78
1541.00,84.54
1540.00,84.38
1539.00,84.29
1538.00,84.24
1537.00,84.22
1536.00,84.25
1535.00,84.32
1534.00,84.46
1533.00,84.65
1532.00,84.82
1531.00,85.00
1530.00,85.19
1529.00,85.42
1528.00,85.67
1527.00,85.94
1526.00,86.20
1525.00,86.44
1524.00,86.66
1523.00,86.90
1522.00,87.21
1521.00,87.55
1520.00,87.84
1519.00,88.07
1518.00,88.29
1517.00,88.54
1516.00,88.82
1515.00,89.07
1514.00,89.31
1513.00,89.54
1512.00,89.77
1511.00,89.97
1510.00,90.16
1509.00,90.33
1508.00,90.54
1507.00,90.87
1506.00,91.21
1505.00,91.44
1504.00,91.58
1503.00,91.73
1502.00,91.89
1501.00,92.07
1500.00,92.25
1499.00,92.42
1498.00,92.59
1497.00,92.77
1496.00,92.93
1495.00,93.07
1494.00,93.19
1493.00,93.29
1492.00,93.36
1491.00,93.43
1490.00,93.50
1489.00,93.54
1488.00,93.52
1487.00,93.46
1486.00,93.33
1485.00,93.14
1484.00,92.89
1483.00,92.61
1482.00,92.32
1481.00,92.04
1480.00,91.81
1479.00,91.65
1478.00,91.55
1477.00,91.51
1476.00,91.52
1475.00,91.59
1474.00,91.71
1473.00,91.85
1472.00,91.95
1471.00,91.95
1470.00,91.86
1469.00,91.71
1468.00,91.50
1467.00,91.21
1466.00,90.88
1465.00,90.56
1464.00,90.34
1463.00,90.27
1462.00,90.33
1461.00,90.47
1460.00,90.64
1459.00,90.84
1458.00,91.08
1457.00,91.31
1456.00,91.44
1455.00,91.48
1454.00,91.49
1453.00,91.50
1452.00,91.53
1451.00,91.58
1450.00,91.64
1449.00,91.71
1448.00,91.79
1447.00,91.85
1446.00,91.89
1445.00,91.92
1444.00,91.93
1443.00,91.93
1442.00,91.92
1441.00,91.90
1440.00,91.87
1439.00,91.84
1438.00,91.82
1437.00,91.79
1436.00,91.78
1435.00,91.78
1434.00,91.80
1433.00,91.85
1432.00,91.91
1431.00,92.00
1430.00,92.09
1429.00,92.19
1428.00,92.25
1427.00,92.25
1426.00,92.21
1425.00,92.11
1424.00,91.98
1423.00,91.83
1422.00,91.67
1421.00,91.51
1420.00,91.33
1419.00,91.17
1418.00,91.06
1417.00,91.03
1416.00,91.06
1415.00,91.15
1414.00,91.29
1413.00,91.48
1412.00,91.71
1411.00,91.98
1410.00,92.27
1409.00,92.55
1408.00,92.81
1407.00,93.05
1406.00,93.26
1405.00,93.44
1404.00,93.60
1403.00,93.71
1402.00,93.80
1401.00,93.87
1400.00,93.93
1399.00,93.99
1398.00,94.04
1397.00,94.07
1396.00,94.09
1395.00,94.08
1394.00,94.06
1393.00,94.01
1392.00,93.95
1391.00,93.88
1390.00,93.82
1389.00,93.74
1388.00,93.66
1387.00,93.56
1386.00,93.45
1385.00,93.33
1384.00,93.21
1383.00,93.06
1382.00,92.91
1381.00,92.75
1380.00,92.59
1379.00,92.42
1378.00,92.26
1377.00,92.10
1376.00,91.97
1375.00,91.85
1374.00,91.77
1373.00,91.72
1372.00,91.72
1371.00,91.74
1370.00,91.79
1369.00,91.85
1368.00,91.91
1367.00,91.97
1366.00,92.02
1365.00,92.08
1364.00,92.15
1363.00,92.23
1362.00,92.32
1361.00,92.42
1360.00,92.50
1359.00,92.58
1358.00,92.65
1357.00,92.70
1356.00,92.75
1355.00,92.81
1354.00,92.88
1353.00,92.96
1352.00,93.03
1351.00,93.09
1350.00,93.15
1349.00,93.21
1348.00,93.25
1347.00,93.29
1346.00,93.33
1345.00,93.36
1344.00,93.40
1343.00,93.42
1342.00,93.45
1341.00,93.47
1340.00,93.50
1339.00,93.53
1338.00,93.55
1337.00,93.58
1336.00,93.60
1335.00,93.62
1334.00,93.66
1333.00,93.70
1332.00,93.74
1331.00,93.78
1330.00,93.81
1329.00,93.85
1328.00,93.88
1327.00,93.91
1326.00,93.93
1325.00,93.95
1324.00,93.97
1323.00,93.97
1322.00,93.96
1321.00,93.93
1320.00,93.90
1319.00,93.86
1318.00,93.84
1317.00,93.82
1316.00,93.81
1315.00,93.80
1314.00,93.79
1313.00,93.78
1312.00,93.77
1311.00,93.75
1310.00,93.73
1309.00,93.69
1308.00,93.66
1307.00,93.62
1306.00,93.59
1305.00,93.57
1304.00,93.54
1303.00,93.52
1302.00,93.50
1301.00,93.48
1300.00,93.47
1299.00,93.46
1298.00,93.45
1297.00,93.42
1296.00,93.37
1295.00,93.30
1294.00,93.22
1293.00,93.15
1292.00,93.10
1291.00,93.08
1290.00,93.08
1289.00,93.10
1288.00,93.11
1287.00,93.11
1286.00,93.09
1285.00,93.05
1284.00,92.98
1283.00,92.92
1282.00,92.85
1281.00,92.80
1280.00,92.76
1279.00,92.72
1278.00,92.69
1277.00,92.66
1276.00,92.64
1275.00,92.60
1274.00,92.55
1273.00,92.46
1272.00,92.31
1271.00,92.11
1270.00,91.86
1269.00,91.57
1268.00,91.27
1267.00,90.97
1266.00,90.70
1265.00,90.50
1264.00,90.39
1263.00,90.35
1262.00,90.38
1261.00,90.46
1260.00,90.57
1259.00,90.70
1258.00,90.85
1257.00,90.99
1256.00,91.13
1255.00,91.27
1254.00,91.41
1253.00,91.56
1252.00,91.71
1251.00,91.85
1250.00,91.95
1249.00,92.03
1248.00,92.09
1247.00,92.13
1246.00,92.16
1245.00,92.19
1244.00,92.21
1243.00,92.22
1242.00,92.21
1241.00,92.21
1240.00,92.21
1239.00,92.23
1238.00,92.27
1237.00,92.32
1236.00,92.39
1235.00,92.49
1234.00,92.61
1233.00,92.74
1232.00,92.89
1231.00,93.04
1230.00,93.19
1229.00,93.34
1228.00,93.48
1227.00,93.63
1226.00,93.76
1225.00,93.90
1224.00,94.01
1223.00,94.08
1222.00,94.09
1221.00,94.04
1220.00,93.96
1219.00,93.84
1218.00,93.71
1217.00,93.57
1216.00,93.45
1215.00,93.36
1214.00,93.32
1213.00,93.31
1212.00,93.32
1211.00,93.31
1210.00,93.28
1209.00,93.23
1208.00,93.17
1207.00,93.07
1206.00,92.93
1205.00,92.70
1204.00,92.39
1203.00,92.04
1202.00,91.69
1201.00,91.43
1200.00,91.29
1199.00,91.30
1198.00,91.45
1197.00,91.69
1196.00,91.98
1195.00,92.28
1194.00,92.55
1193.00,92.80
1192.00,93.02
1191.00,93.22
1190.00,93.39
1189.00,93.54
1188.00,93.66
1187.00,93.77
1186.00,93.87
1185.00,93.95
1184.00,94.02
1183.00,94.06
1182.00,94.09
1181.00,94.09
1180.00,94.05
1179.00,93.95
1178.00,93.82
1177.00,93.66
1176.00,93.49
1175.00,93.33
1174.00,93.17
1173.00,93.02
1172.00,92.88
1171.00,92.76
1170.00,92.68
1169.00,92.65
1168.00,92.66
1167.00,92.71
1166.00,92.80
1165.00,92.93
1164.00,93.08
1163.00,93.24
1162.00,93.39
1161.00,93.52
1160.00,93.63
1159.00,93.73
1158.00,93.84
1157.00,93.97
1156.00,94.09
1155.00,94.20
1154.00,94.29
1153.00,94.36
1152.00,94.43
1151.00,94.50
1150.00,94.58
1149.00,94.67
1148.00,94.76
1147.00,94.84
1146.00,94.90
1145.00,94.95
1144.00,95.01
1143.00,95.07
1142.00,95.14
1141.00,95.20
1140.00,95.24
1139.00,95.27
1138.00,95.29
1137.00,95.29
1136.00,95.29
1135.00,95.28
1134.00,95.26
1133.00,95.21
1132.00,95.14
1131.00,95.05
1130.00,94.94
1129.00,94.81
1128.00,94.66
1127.00,94.49
1126.00,94.33
1125.00,94.20
1124.00,94.12
1123.00,94.08
1122.00,94.08
1121.00,94.09
1120.00,94.08
1119.00,94.05
1118.00,94.01
1117.00,93.99
1116.00,93.99
1115.00,93.99
1114.00,93.99
1113.00,93.98
1112.00,93.99
1111.00,94.02
1110.00,94.05
1109.00,94.08
1108.00,94.11
1107.00,94.15
1106.00,94.21
1105.00,94.29
1104.00,94.36
1103.00,94.42
1102.00,94.47
1101.00,94.51
1100.00,94.55
1099.00,94.59
1098.00,94.65
1097.00,94.69
1096.00,94.72
1095.00,94.72
1094.00,94.71
1093.00,94.72
1092.00,94.73
1091.00,94.74
1090.00,94.73
1089.00,94.72
1088.00,94.74
1087.00,94.77
1086.00,94.80
1085.00,94.81
1084.00,94.79
1083.00,94.74
1082.00,94.69
1081.00,94.64
1080.00,94.61
1079.00,94.61
1078.00,94.61
1077.00,94.59
1076.00,94.56
1075.00,94.53
1074.00,94.50
1073.00,94.48
1072.00,94.46
1071.00,94.44
1070.00,94.41
1069.00,94.41
1068.00,94.41
1067.00,94.43
1066.00,94.45
1065.00,94.47
1064.00,94.48
1063.00,94.48
1062.00,94.46
1061.00,94.44
1060.00,94.43
1059.00,94.45
1058.00,94.48
1057.00,94.52
1056.00,94.56
1055.00,94.61
1054.00,94.67
1053.00,94.72
1052.00,94.75
1051.00,94.77
1050.00,94.78
1049.00,94.80
1048.00,94.83
1047.00,94.85
1046.00,94.84
1045.00,94.82
1044.00,94.81
1043.00,94.80
1042.00,94.80
1041.00,94.79
1040.00,94.77
1039.00,94.75
1038.00,94.73
1037.00,94.70
1036.00,94.65
1035.00,94.61
1034.00,94.54
1033.00,94.47
1032.00,94.40
1031.00,94.37
1030.00,94.37
1029.00,94.38
1028.00,94.38
1027.00,94.40
1026.00,94.43
1025.00,94.48
1024.00,94.53
1023.00,94.58
1022.00,94.63
1021.00,94.69
1020.00,94.75
1019.00,94.82
1018.00,94.86
1017.00,94.88
1016.00,94.88
1015.00,94.88
1014.00,94.90
1013.00,94.92
1012.00,94.94
1011.00,94.94
1010.00,94.96
1009.00,94.97
1008.00,94.99
1007.00,95.00
1006.00,95.03
1005.00,95.05
1004.00,95.06
1003.00,95.07
1002.00,95.07
1001.00,95.08
1000.00,95.09
999.00,95.10
998.00,95.10
997.00,95.10
996.00,95.10
995.00,95.11
994.00,95.12
993.00,95.14
992.00,95.14
991.00,95.12
990.00,95.10
989.00,95.08
988.00,95.06
987.00,95.04
986.00,95.02
985.00,95.01
984.00,95.00
983.00,95.01
982.00,95.02
981.00,95.04
980.00,95.06
979.00,95.07
978.00,95.09
977.00,95.10
976.00,95.10
975.00,95.09
974.00,95.07
973.00,95.06
972.00,95.07
971.00,95.10
970.00,95.13
969.00,95.17
968.00,95.19
967.00,95.20
966.00,95.18
965.00,95.14
964.00,95.08
963.00,95.01
962.00,94.95
961.00,94.90
960.00,94.88
959.00,94.88
958.00,94.92
957.00,94.97
956.00,95.03
955.00,95.06
954.00,95.08
953.00,95.10
952.00,95.13
951.00,95.17
950.00,95.23
949.00,95.31
948.00,95.41
947.00,95.51
946.00,95.58
945.00,95.63
944.00,95.69
943.00,95.74
942.00,95.78
941.00,95.81
940.00,95.82
939.00,95.83
938.00,95.84
937.00,95.83
936.00,95.79
935.00,95.73
934.00,95.65
933.00,95.57
932.00,95.48
931.00,95.38
930.00,95.29
929.00,95.24
928.00,95.24
927.00,95.29
926.00,95.37
925.00,95.45
924.00,95.52
923.00,95.60
922.00,95.68
921.00,95.76
920.00,95.84
919.00,95.91
918.00,95.98
917.00,96.05
916.00,96.12
915.00,96.17
914.00,96.19
913.00,96.19
912.00,96.19
911.00,96.20
910.00,96.22
909.00,96.24
908.00,96.26
907.00,96.28
906.00,96.29
905.00,96.29
904.00,96.27
903.00,96.25
902.00,96.25
901.00,96.27
900.00,96.30
899.00,96.32
898.00,96.33
897.00,96.34
896.00,96.35
895.00,96.35
894.00,96.34
893.00,96.31
892.00,96.29
891.00,96.28
890.00,96.30
889.00,96.34
888.00,96.38
887.00,96.42
886.00,96.44
885.00,96.45
884.00,96.44
883.00,96.43
882.00,96.43
881.00,96.44
880.00,96.46
879.00,96.48
878.00,96.50
877.00,96.52
876.00,96.52
875.00,96.53
874.00,96.55
873.00,96.56
872.00,96.56
871.00,96.55
870.00,96.55
869.00,96.57
868.00,96.59
867.00,96.60
866.00,96.60
865.00,96.60
864.00,96.60
863.00,96.59
862.00,96.60
861.00,96.60
860.00,96.62
859.00,96.64
858.00,96.64
857.00,96.62
856.00,96.58
855.00,96.57
854.00,96.60
853.00,96.64
852.00,96.68
851.00,96.68
850.00,96.66
849.00,96.64
848.00,96.63
847.00,96.63
846.00,96.63
845.00,96.63
844.00,96.62
843.00,96.60
842.00,96.57
841.00,96.53
840.00,96.48
839.00,96.43
838.00,96.35
837.00,96.26
836.00,96.16
835.00,96.07
834.00,96.01
833.00,96.00
832.00,96.03
831.00,96.08
830.00,96.13
829.00,96.18
828.00,96.24
827.00,96.32
826.00,96.41
825.00,96.49
824.00,96.54
823.00,96.54
822.00,96.50
821.00,96.43
820.00,96.38
819.00,96.35
818.00,96.35
817.00,96.34
816.00,96.34
815.00,96.32
814.00,96.30
813.00,96.28
812.00,96.26
811.00,96.25
810.00,96.24
809.00,96.25
808.00,96.26
807.00,96.26
806.00,96.23
805.00,96.16
804.00,96.08
803.00,96.03
802.00,96.01
801.00,96.02
800.00,96.02
799.00,96.01
798.00,96.00
797.00,96.00
796.00,96.00
795.00,95.99
794.00,95.97
793.00,95.94
792.00,95.92
791.00,95.90
790.00,95.88
789.00,95.85
788.00,95.80
787.00,95.74
786.00,95.68
785.00,95.65
784.00,95.65
783.00,95.67
782.00,95.67
781.00,95.64
780.00,95.59
779.00,95.57
778.00,95.57
777.00,95.57
776.00,95.54
775.00,95.49
774.00,95.43
773.00,95.37
772.00,95.34
771.00,95.33
770.00,95.34
769.00,95.35
768.00,95.34
767.00,95.32
766.00,95.30
765.00,95.27
764.00,95.22
763.00,95.17
762.00,95.11
761.00,95.05
760.00,94.98
759.00,94.92
758.00,94.88
757.00,94.86
756.00,94.84
755.00,94.82
754.00,94.80
753.00,94.77
752.00,94.72
751.00,94.66
750.00,94.58
749.00,94.51
748.00,94.45
747.00,94.41
746.00,94.36
745.00,94.29
744.00,94.21
743.00,94.13
742.00,94.07
741.00,94.00
740.00,93.90
739.00,93.78
738.00,93.63
737.00,93.47
736.00,93.30
735.00,93.09
734.00,92.84
733.00,92.57
732.00,92.30
731.00,92.07
730.00,91.91
729.00,91.85
728.00,91.88
727.00,91.96
726.00,92.02
725.00,92.05
724.00,92.05
723.00,92.02
722.00,91.98
721.00,91.94
720.00,91.92
719.00,91.90
718.00,91.88
717.00,91.83
716.00,91.77
715.00,91.71
714.00,91.66
713.00,91.61
712.00,91.55
711.00,91.46
710.00,91.37
709.00,91.28
708.00,91.21
707.00,91.18
706.00,91.13
705.00,91.04
704.00,90.91
703.00,90.78
702.00,90.70
701.00,90.64
700.00,90.55
699.00,90.43
698.00,90.27
697.00,90.09
696.00,89.92
695.00,89.77
694.00,89.63
693.00,89.50
692.00,89.37
691.00,89.29
690.00,89.24
689.00,89.16
688.00,89.04
687.00,88.92
686.00,88.85
685.00,88.82
684.00,88.79
683.00,88.76
682.00,88.76
681.00,88.80
680.00,88.86
679.00,88.91
678.00,88.94
677.00,88.96
676.00,88.99
675.00,89.06
674.00,89.15
673.00,89.23
672.00,89.29
671.00,89.34
670.00,89.40
669.00,89.49
668.00,89.54
667.00,89.54
666.00,89.63
665.00,89.79
664.00,89.95
663.00,90.08
662.00,90.15
661.00,90.15
660.00,90.13
659.00,90.16
658.00,90.25
657.00,90.37
656.00,90.48
655.00,90.59
654.00,90.72
653.00,90.86
652.00,90.98
651.00,91.07
650.00,91.14
649.00,91.21
648.00,91.28
647.00,91.34
646.00,91.38
645.00,91.38
644.00,91.35
643.00,91.32
642.00,91.33
641.00,91.41
640.00,91.51
639.00,91.55
638.00,91.46
637.00,91.26
636.00,91.06
635.00,90.93
634.00,90.89
633.00,90.88
632.00,90.92
631.00,91.06
630.00,91.30
629.00,91.54
628.00,91.68
627.00,91.69
626.00,91.64
625.00,91.56
624.00,91.49
623.00,91.46
622.00,91.54
621.00,91.69
620.00,91.80
619.00,91.80
618.00,91.69
617.00,91.58
616.00,91.50
615.00,91.43
614.00,91.34
613.00,91.22
612.00,91.14
611.00,91.11
610.00,91.08
609.00,91.03
608.00,91.06
607.00,91.26
606.00,91.60
605.00,91.85
604.00,91.84
603.00,91.62
602.00,91.35
601.00,91.22
600.00,91.31
599.00,91.58
598.00,91.87
597.00,92.01
596.00,91.89
595.00,91.60
594.00,91.34
593.00,91.25
592.00,91.34
591.00,91.47
590.00,91.46
589.00,91.27
588.00,91.06
587.00,90.99
586.00,91.02
585.00,90.90
584.00,90.51
583.00,90.09
582.00,89.87
581.00,89.83
580.00,89.76
579.00,89.58
578.00,89.34
577.00,89.02
576.00,88.58
575.00,88.09
574.00,87.60
573.00,87.08
572.00,86.63
571.00,86.65
570.00,87.33
569.00,88.40
568.00,89.44
567.00,90.29
566.00,90.92
565.00,91.22
564.00,91.02
563.00,90.37
562.00,89.55
561.00,88.77
560.00,88.16
559.00,87.92
558.00,88.10
557.00,88.45
556.00,88.80
555.00,89.32
554.00,90.18
553.00,91.09
552.00,91.48
551.00,91.20
550.00,90.62
