Created as New Dataset,92 Du Pont
cm-1,%T
4000.00,98.13
3999.00,98.14
3998.00,98.14
3997.00,98.15
3996.00,98.15
3995.00,98.16
3994.00,98.16
3993.00,98.17
3992.00,98.17
3991.00,98.16
3990.00,98.16
3989.00,98.15
3988.00,98.15
3987.00,98.15
3986.00,98.16
3985.00,98.17
3984.00,98.17
3983.00,98.17
3982.00,98.17
3981.00,98.17
3980.00,98.17
3979.00,98.16
3978.00,98.15
3977.00,98.14
3976.00,98.14
3975.00,98.14
3974.00,98.14
3973.00,98.15
3972.00,98.16
3971.00,98.18
3970.00,98.19
3969.00,98.20
3968.00,98.20
3967.00,98.20
3966.00,98.21
3965.00,98.21
3964.00,98.20
3963.00,98.18
3962.00,98.16
3961.00,98.16
3960.00,98.18
3959.00,98.20
3958.00,98.23
3957.00,98.23
3956.00,98.22
3955.00,98.20
3954.00,98.19
3953.00,98.20
3952.00,98.22
3951.00,98.23
3950.00,98.24
3949.00,98.23
3948.00,98.21
3947.00,98.19
3946.00,98.17
3945.00,98.16
3944.00,98.15
3943.00,98.16
3942.00,98.17
3941.00,98.20
3940.00,98.22
3939.00,98.23
3938.00,98.22
3937.00,98.21
3936.00,98.20
3935.00,98.19
3934.00,98.18
3933.00,98.16
3932.00,98.16
3931.00,98.16
3930.00,98.17
3929.00,98.18
3928.00,98.18
3927.00,98.17
3926.00,98.16
3925.00,98.15
3924.00,98.16
3923.00,98.17
3922.00,98.17
3921.00,98.17
3920.00,98.17
3919.00,98.17
3918.00,98.17
3917.00,98.17
3916.00,98.19
3915.00,98.21
3914.00,98.22
3913.00,98.22
3912.00,98.20
3911.00,98.19
3910.00,98.18
3909.00,98.18
3908.00,98.20
3907.00,98.23
3906.00,98.25
3905.00,98.25
3904.00,98.26
3903.00,98.26
3902.00,98.25
3901.00,98.24
3900.00,98.22
3899.00,98.20
3898.00,98.21
3897.00,98.22
3896.00,98.23
3895.00,98.23
3894.00,98.22
3893.00,98.22
3892.00,98.21
3891.00,98.22
3890.00,98.25
3889.00,98.28
3888.00,98.29
3887.00,98.27
3886.00,98.25
3885.00,98.24
3884.00,98.24
3883.00,98.23
3882.00,98.21
3881.00,98.19
3880.00,98.19
3879.00,98.20
3878.00,98.21
3877.00,98.20
3876.00,98.19
3875.00,98.18
3874.00,98.18
3873.00,98.19
3872.00,98.18
3871.00,98.16
3870.00,98.14
3869.00,98.15
3868.00,98.19
3867.00,98.21
3866.00,98.22
3865.00,98.23
3864.00,98.24
3863.00,98.26
3862.00,98.27
3861.00,98.25
3860.00,98.23
3859.00,98.21
3858.00,98.20
3857.00,98.21
3856.00,98.24
3855.00,98.26
3854.00,98.25
3853.00,98.22
3852.00,98.23
3851.00,98.24
3850.00,98.24
3849.00,98.22
3848.00,98.21
3847.00,98.20
3846.00,98.19
3845.00,98.17
3844.00,98.16
3843.00,98.16
3842.00,98.19
3841.00,98.22
3840.00,98.23
3839.00,98.22
3838.00,98.19
3837.00,98.18
3836.00,98.18
3835.00,98.18
3834.00,98.18
3833.00,98.17
3832.00,98.17
3831.00,98.17
3830.00,98.18
3829.00,98.18
3828.00,98.16
3827.00,98.15
3826.00,98.16
3825.00,98.19
3824.00,98.21
3823.00,98.20
3822.00,98.17
3821.00,98.14
3820.00,98.14
3819.00,98.15
3818.00,98.13
3817.00,98.09
3816.00,98.06
3815.00,98.07
3814.00,98.09
3813.00,98.09
3812.00,98.06
3811.00,98.05
3810.00,98.05
3809.00,98.06
3808.00,98.06
3807.00,98.08
3806.00,98.12
3805.00,98.16
3804.00,98.15
3803.00,98.09
3802.00,98.02
3801.00,97.99
3800.00,98.02
3799.00,98.05
3798.00,98.07
3797.00,98.07
3796.00,98.07
3795.00,98.09
3794.00,98.09
3793.00,98.08
3792.00,98.06
3791.00,98.04
3790.00,98.03
3789.00,98.02
3788.00,98.01
3787.00,98.00
3786.00,97.99
3785.00,97.99
3784.00,98.00
3783.00,98.00
3782.00,97.99
3781.00,97.97
3780.00,97.94
3779.00,97.94
3778.00,97.95
3777.00,97.96
3776.00,97.97
3775.00,97.95
3774.00,97.94
3773.00,97.94
3772.00,97.94
3771.00,97.94
3770.00,97.94
3769.00,97.95
3768.00,97.96
3767.00,97.96
3766.00,97.96
3765.00,97.95
3764.00,97.96
3763.00,97.97
3762.00,97.99
3761.00,98.00
3760.00,98.01
3759.00,98.01
3758.00,98.00
3757.00,97.98
3756.00,97.95
3755.00,97.93
3754.00,97.92
3753.00,97.92
3752.00,97.93
3751.00,97.96
3750.00,98.00
3749.00,98.03
3748.00,98.04
3747.00,98.01
3746.00,97.96
3745.00,97.90
3744.00,97.89
3743.00,97.92
3742.00,97.95
3741.00,97.93
3740.00,97.91
3739.00,97.91
3738.00,97.94
3737.00,97.97
3736.00,97.98
3735.00,97.97
3734.00,97.95
3733.00,97.91
3732.00,97.88
3731.00,97.86
3730.00,97.85
3729.00,97.84
3728.00,97.81
3727.00,97.79
3726.00,97.78
3725.00,97.79
3724.00,97.79
3723.00,97.80
3722.00,97.80
3721.00,97.80
3720.00,97.80
3719.00,97.80
3718.00,97.80
3717.00,97.80
3716.00,97.80
3715.00,97.81
3714.00,97.82
3713.00,97.82
3712.00,97.81
3711.00,97.80
3710.00,97.80
3709.00,97.81
3708.00,97.82
3707.00,97.83
3706.00,97.83
3705.00,97.84
3704.00,97.84
3703.00,97.84
3702.00,97.81
3701.00,97.77
3700.00,97.75
3699.00,97.73
3698.00,97.73
3697.00,97.74
3696.00,97.74
3695.00,97.74
3694.00,97.74
3693.00,97.76
3692.00,97.78
3691.00,97.81
3690.00,97.81
3689.00,97.80
3688.00,97.78
3687.00,97.77
3686.00,97.77
3685.00,97.74
3684.00,97.71
3683.00,97.67
3682.00,97.65
3681.00,97.64
3680.00,97.66
3679.00,97.70
3678.00,97.75
3677.00,97.77
3676.00,97.75
3675.00,97.73
3674.00,97.74
3673.00,97.75
3672.00,97.72
3671.00,97.67
3670.00,97.63
3669.00,97.62
3668.00,97.63
3667.00,97.63
3666.00,97.63
3665.00,97.62
3664.00,97.60
3663.00,97.57
3662.00,97.55
3661.00,97.53
3660.00,97.53
3659.00,97.54
3658.00,97.54
3657.00,97.52
3656.00,97.52
3655.00,97.53
3654.00,97.54
3653.00,97.54
3652.00,97.51
3651.00,97.49
3650.00,97.48
3649.00,97.50
3648.00,97.54
3647.00,97.57
3646.00,97.58
3645.00,97.57
3644.00,97.55
3643.00,97.53
3642.00,97.52
3641.00,97.51
3640.00,97.51
3639.00,97.51
3638.00,97.51
3637.00,97.51
3636.00,97.49
3635.00,97.47
3634.00,97.45
3633.00,97.47
3632.00,97.50
3631.00,97.54
3630.00,97.55
3629.00,97.54
3628.00,97.53
3627.00,97.52
3626.00,97.49
3625.00,97.46
3624.00,97.45
3623.00,97.46
3622.00,97.47
3621.00,97.45
3620.00,97.39
3619.00,97.34
3618.00,97.32
3617.00,97.32
3616.00,97.33
3615.00,97.33
3614.00,97.33
3613.00,97.33
3612.00,97.35
3611.00,97.37
3610.00,97.36
3609.00,97.33
3608.00,97.28
3607.00,97.24
3606.00,97.22
3605.00,97.22
3604.00,97.23
3603.00,97.23
3602.00,97.23
3601.00,97.21
3600.00,97.19
3599.00,97.19
3598.00,97.19
3597.00,97.20
3596.00,97.21
3595.00,97.20
3594.00,97.16
3593.00,97.13
3592.00,97.11
3591.00,97.10
3590.00,97.12
3589.00,97.12
3588.00,97.12
3587.00,97.10
3586.00,97.07
3585.00,97.05
3584.00,97.04
3583.00,97.04
3582.00,97.05
3581.00,97.07
3580.00,97.09
3579.00,97.10
3578.00,97.08
3577.00,97.05
3576.00,97.02
3575.00,97.00
3574.00,96.98
3573.00,96.97
3572.00,96.96
3571.00,96.95
3570.00,96.93
3569.00,96.92
3568.00,96.90
3567.00,96.89
3566.00,96.89
3565.00,96.90
3564.00,96.89
3563.00,96.85
3562.00,96.81
3561.00,96.78
3560.00,96.76
3559.00,96.76
3558.00,96.76
3557.00,96.75
3556.00,96.73
3555.00,96.70
3554.00,96.68
3553.00,96.65
3552.00,96.62
3551.00,96.60
3550.00,96.57
3549.00,96.56
3548.00,96.56
3547.00,96.56
3546.00,96.56
3545.00,96.56
3544.00,96.56
3543.00,96.55
3542.00,96.54
3541.00,96.51
3540.00,96.48
3539.00,96.46
3538.00,96.43
3537.00,96.41
3536.00,96.39
3535.00,96.37
3534.00,96.37
3533.00,96.37
3532.00,96.37
3531.00,96.36
3530.00,96.33
3529.00,96.30
3528.00,96.29
3527.00,96.29
3526.00,96.30
3525.00,96.30
3524.00,96.27
3523.00,96.23
3522.00,96.18
3521.00,96.15
3520.00,96.12
3519.00,96.10
3518.00,96.09
3517.00,96.08
3516.00,96.07
3515.00,96.04
3514.00,96.01
3513.00,96.00
3512.00,96.00
3511.00,96.00
3510.00,95.99
3509.00,95.97
3508.00,95.94
3507.00,95.93
3506.00,95.94
3505.00,95.94
3504.00,95.93
3503.00,95.91
3502.00,95.89
3501.00,95.87
3500.00,95.87
3499.00,95.86
3498.00,95.86
3497.00,95.85
3496.00,95.83
3495.00,95.82
3494.00,95.80
3493.00,95.80
3492.00,95.80
3491.00,95.81
3490.00,95.81
3489.00,95.80
3488.00,95.78
3487.00,95.76
3486.00,95.74
3485.00,95.73
3484.00,95.72
3483.00,95.71
3482.00,95.69
3481.00,95.67
3480.00,95.66
3479.00,95.66
3478.00,95.67
3477.00,95.67
3476.00,95.66
3475.00,95.64
3474.00,95.62
3473.00,95.62
3472.00,95.63
3471.00,95.63
3470.00,95.62
3469.00,95.59
3468.00,95.57
3467.00,95.58
3466.00,95.60
3465.00,95.64
3464.00,95.66
3463.00,95.66
3462.00,95.64
3461.00,95.61
3460.00,95.61
3459.00,95.61
3458.00,95.61
3457.00,95.61
3456.00,95.60
3455.00,95.58
3454.00,95.58
3453.00,95.58
3452.00,95.59
3451.00,95.59
3450.00,95.58
3449.00,95.55
3448.00,95.50
3447.00,95.47
3446.00,95.44
3445.00,95.42
3444.00,95.41
3443.00,95.39
3442.00,95.38
3441.00,95.37
3440.00,95.38
3439.00,95.40
3438.00,95.42
3437.00,95.42
3436.00,95.41
3435.00,95.40
3434.00,95.39
3433.00,95.39
3432.00,95.39
3431.00,95.38
3430.00,95.37
3429.00,95.34
3428.00,95.32
3427.00,95.30
3426.00,95.29
3425.00,95.29
3424.00,95.30
3423.00,95.30
3422.00,95.30
3421.00,95.31
3420.00,95.32
3419.00,95.32
3418.00,95.31
3417.00,95.29
3416.00,95.29
3415.00,95.30
3414.00,95.31
3413.00,95.30
3412.00,95.29
3411.00,95.27
3410.00,95.25
3409.00,95.23
3408.00,95.22
3407.00,95.20
3406.00,95.17
3405.00,95.14
3404.00,95.12
3403.00,95.11
3402.00,95.11
3401.00,95.11
3400.00,95.10
3399.00,95.08
3398.00,95.06
3397.00,95.04
3396.00,95.02
3395.00,95.00
3394.00,94.98
3393.00,94.96
3392.00,94.95
3391.00,94.95
3390.00,94.93
3389.00,94.90
3388.00,94.86
3387.00,94.81
3386.00,94.78
3385.00,94.75
3384.00,94.74
3383.00,94.72
3382.00,94.69
3381.00,94.65
3380.00,94.60
3379.00,94.56
3378.00,94.52
3377.00,94.48
3376.00,94.44
3375.00,94.40
3374.00,94.35
3373.00,94.30
3372.00,94.26
3371.00,94.22
3370.00,94.18
3369.00,94.14
3368.00,94.08
3367.00,94.03
3366.00,93.97
3365.00,93.91
3364.00,93.84
3363.00,93.77
3362.00,93.69
3361.00,93.61
3360.00,93.53
3359.00,93.45
3358.00,93.36
3357.00,93.27
3356.00,93.16
3355.00,93.05
3354.00,92.94
3353.00,92.84
3352.00,92.74
3351.00,92.63
3350.00,92.51
3349.00,92.37
3348.00,92.22
3347.00,92.07
3346.00,91.93
3345.00,91.78
3344.00,91.64
3343.00,91.50
3342.00,91.36
3341.00,91.21
3340.00,91.05
3339.00,90.87
3338.00,90.68
3337.00,90.49
3336.00,90.30
3335.00,90.09
3334.00,89.86
3333.00,89.62
3332.00,89.36
3331.00,89.12
3330.00,88.87
3329.00,88.61
3328.00,88.33
3327.00,88.03
3326.00,87.70
3325.00,87.37
3324.00,87.04
3323.00,86.69
3322.00,86.34
3321.00,85.97
3320.00,85.59
3319.00,85.19
3318.00,84.78
3317.00,84.35
3316.00,83.90
3315.00,83.46
3314.00,83.01
3313.00,82.56
3312.00,82.12
3311.00,81.68
3310.00,81.26
3309.00,80.84
3308.00,80.45
3307.00,80.09
3306.00,79.76
3305.00,79.46
3304.00,79.21
3303.00,78.99
3302.00,78.82
3301.00,78.69
3300.00,78.60
3299.00,78.53
3298.00,78.48
3297.00,78.46
3296.00,78.47
3295.00,78.52
3294.00,78.61
3293.00,78.74
3292.00,78.89
3291.00,79.06
3290.00,79.24
3289.00,79.44
3288.00,79.64
3287.00,79.85
3286.00,80.05
3285.00,80.25
3284.00,80.45
3283.00,80.67
3282.00,80.89
3281.00,81.10
3280.00,81.32
3279.00,81.52
3278.00,81.71
3277.00,81.89
3276.00,82.09
3275.00,82.30
3274.00,82.53
3273.00,82.76
3272.00,82.97
3271.00,83.18
3270.00,83.36
3269.00,83.55
3268.00,83.74
3267.00,83.93
3266.00,84.14
3265.00,84.35
3264.00,84.58
3263.00,84.80
3262.00,85.01
3261.00,85.21
3260.00,85.41
3259.00,85.61
3258.00,85.82
3257.00,86.04
3256.00,86.27
3255.00,86.50
3254.00,86.71
3253.00,86.90
3252.00,87.08
3251.00,87.26
3250.00,87.45
3249.00,87.65
3248.00,87.85
3247.00,88.04
3246.00,88.21
3245.00,88.38
3244.00,88.54
3243.00,88.71
3242.00,88.87
3241.00,89.03
3240.00,89.18
3239.00,89.32
3238.00,89.47
3237.00,89.61
3236.00,89.76
3235.00,89.89
3234.00,90.01
3233.00,90.11
3232.00,90.21
3231.00,90.31
3230.00,90.43
3229.00,90.55
3228.00,90.66
3227.00,90.76
3226.00,90.84
3225.00,90.92
3224.00,90.99
3223.00,91.06
3222.00,91.13
3221.00,91.20
3220.00,91.26
3219.00,91.32
3218.00,91.39
3217.00,91.45
3216.00,91.51
3215.00,91.56
3214.00,91.61
3213.00,91.65
3212.00,91.68
3211.00,91.72
3210.00,91.75
3209.00,91.79
3208.00,91.83
3207.00,91.87
3206.00,91.91
3205.00,91.95
3204.00,91.99
3203.00,92.02
3202.00,92.06
3201.00,92.09
3200.00,92.13
3199.00,92.18
3198.00,92.23
3197.00,92.28
3196.00,92.33
3195.00,92.37
3194.00,92.41
3193.00,92.45
3192.00,92.49
3191.00,92.55
3190.00,92.61
3189.00,92.67
3188.00,92.73
3187.00,92.78
3186.00,92.82
3185.00,92.86
3184.00,92.90
3183.00,92.95
3182.00,93.02
3181.00,93.09
3180.00,93.16
3179.00,93.21
3178.00,93.25
3177.00,93.28
3176.00,93.31
3175.00,93.35
3174.00,93.41
3173.00,93.48
3172.00,93.55
3171.00,93.62
3170.00,93.68
3169.00,93.73
3168.00,93.78
3167.00,93.84
3166.00,93.91
3165.00,93.97
3164.00,94.03
3163.00,94.08
3162.00,94.13
3161.00,94.18
3160.00,94.23
3159.00,94.28
3158.00,94.32
3157.00,94.35
3156.00,94.37
3155.00,94.38
3154.00,94.40
3153.00,94.41
3152.00,94.44
3151.00,94.47
3150.00,94.51
3149.00,94.55
3148.00,94.60
3147.00,94.63
3146.00,94.66
3145.00,94.66
3144.00,94.67
3143.00,94.67
3142.00,94.68
3141.00,94.69
3140.00,94.70
3139.00,94.70
3138.00,94.71
3137.00,94.72
3136.00,94.73
3135.00,94.73
3134.00,94.73
3133.00,94.71
3132.00,94.69
3131.00,94.67
3130.00,94.65
3129.00,94.64
3128.00,94.62
3127.00,94.60
3126.00,94.58
3125.00,94.55
3124.00,94.53
3123.00,94.52
3122.00,94.51
3121.00,94.51
3120.00,94.50
3119.00,94.48
3118.00,94.45
3117.00,94.41
3116.00,94.37
3115.00,94.33
3114.00,94.29
3113.00,94.24
3112.00,94.18
3111.00,94.12
3110.00,94.05
3109.00,93.99
3108.00,93.95
3107.00,93.92
3106.00,93.90
3105.00,93.86
3104.00,93.80
3103.00,93.73
3102.00,93.64
3101.00,93.55
3100.00,93.47
3099.00,93.40
3098.00,93.34
3097.00,93.27
3096.00,93.20
3095.00,93.13
3094.00,93.06
3093.00,93.01
3092.00,92.96
3091.00,92.91
3090.00,92.87
3089.00,92.81
3088.00,92.76
3087.00,92.73
3086.00,92.71
3085.00,92.70
3084.00,92.70
3083.00,92.69
3082.00,92.68
3081.00,92.67
3080.00,92.65
3079.00,92.63
3078.00,92.62
3077.00,92.61
3076.00,92.62
3075.00,92.63
3074.00,92.64
3073.00,92.66
3072.00,92.68
3071.00,92.71
3070.00,92.74
3069.00,92.77
3068.00,92.80
3067.00,92.83
3066.00,92.86
3065.00,92.89
3064.00,92.92
3063.00,92.96
3062.00,93.01
3061.00,93.06
3060.00,93.12
3059.00,93.19
3058.00,93.27
3057.00,93.36
3056.00,93.44
3055.00,93.52
3054.00,93.59
3053.00,93.67
3052.00,93.75
3051.00,93.84
3050.00,93.92
3049.00,94.00
3048.00,94.09
3047.00,94.18
3046.00,94.28
3045.00,94.37
3044.00,94.46
3043.00,94.54
3042.00,94.61
3041.00,94.67
3040.00,94.73
3039.00,94.77
3038.00,94.81
3037.00,94.86
3036.00,94.93
3035.00,95.00
3034.00,95.07
3033.00,95.14
3032.00,95.19
3031.00,95.23
3030.00,95.26
3029.00,95.27
3028.00,95.29
3027.00,95.31
3026.00,95.34
3025.00,95.37
3024.00,95.39
3023.00,95.41
3022.00,95.42
3021.00,95.43
3020.00,95.46
3019.00,95.50
3018.00,95.54
3017.00,95.57
3016.00,95.59
3015.00,95.61
3014.00,95.63
3013.00,95.65
3012.00,95.66
3011.00,95.68
3010.00,95.69
3009.00,95.70
3008.00,95.70
3007.00,95.71
3006.00,95.72
3005.00,95.73
3004.00,95.74
3003.00,95.73
3002.00,95.72
3001.00,95.71
3000.00,95.70
2999.00,95.70
2998.00,95.69
2997.00,95.68
2996.00,95.66
2995.00,95.63
2994.00,95.60
2993.00,95.58
2992.00,95.57
2991.00,95.56
2990.00,95.55
2989.00,95.51
2988.00,95.46
2987.00,95.40
2986.00,95.33
2985.00,95.26
2984.00,95.18
2983.00,95.09
2982.00,94.99
2981.00,94.88
2980.00,94.75
2979.00,94.62
2978.00,94.48
2977.00,94.35
2976.00,94.20
2975.00,94.04
2974.00,93.85
2973.00,93.65
2972.00,93.43
2971.00,93.22
2970.00,93.02
2969.00,92.81
2968.00,92.59
2967.00,92.38
2966.00,92.16
2965.00,91.93
2964.00,91.68
2963.00,91.42
2962.00,91.16
2961.00,90.90
2960.00,90.63
2959.00,90.34
2958.00,90.03
2957.00,89.67
2956.00,89.28
2955.00,88.86
2954.00,88.40
2953.00,87.93
2952.00,87.43
2951.00,86.93
2950.00,86.41
2949.00,85.90
2948.00,85.38
2947.00,84.88
2946.00,84.39
2945.00,83.90
2944.00,83.44
2943.00,82.99
2942.00,82.54
2941.00,82.10
2940.00,81.65
2939.00,81.21
2938.00,80.81
2937.00,80.45
2936.00,80.15
2935.00,79.91
2934.00,79.73
2933.00,79.62
2932.00,79.58
2931.00,79.61
2930.00,79.70
2929.00,79.85
2928.00,80.06
2927.00,80.31
2926.00,80.60
2925.00,80.91
2924.00,81.24
2923.00,81.57
2922.00,81.91
2921.00,82.25
2920.00,82.59
2919.00,82.91
2918.00,83.20
2917.00,83.48
2916.00,83.74
2915.00,83.99
2914.00,84.23
2913.00,84.46
2912.00,84.68
2911.00,84.89
2910.00,85.09
2909.00,85.30
2908.00,85.50
2907.00,85.72
2906.00,85.94
2905.00,86.17
2904.00,86.41
2903.00,86.65
2902.00,86.89
2901.00,87.12
2900.00,87.34
2899.00,87.56
2898.00,87.78
2897.00,87.98
2896.00,88.18
2895.00,88.36
2894.00,88.51
2893.00,88.64
2892.00,88.75
2891.00,88.86
2890.00,88.94
2889.00,88.99
2888.00,89.00
2887.00,88.97
2886.00,88.91
2885.00,88.82
2884.00,88.71
2883.00,88.56
2882.00,88.37
2881.00,88.16
2880.00,87.91
2879.00,87.65
2878.00,87.39
2877.00,87.13
2876.00,86.87
2875.00,86.63
2874.00,86.42
2873.00,86.22
2872.00,86.03
2871.00,85.86
2870.00,85.68
2869.00,85.50
2868.00,85.30
2867.00,85.07
2866.00,84.84
2865.00,84.60
2864.00,84.39
2863.00,84.19
2862.00,84.03
2861.00,83.91
2860.00,83.85
2859.00,83.86
2858.00,83.97
2857.00,84.17
2856.00,84.45
2855.00,84.81
2854.00,85.23
2853.00,85.72
2852.00,86.24
2851.00,86.79
2850.00,87.35
2849.00,87.91
2848.00,88.46
2847.00,89.00
2846.00,89.51
2845.00,90.00
2844.00,90.46
2843.00,90.87
2842.00,91.24
2841.00,91.56
2840.00,91.82
2839.00,92.05
2838.00,92.26
2837.00,92.46
2836.00,92.63
2835.00,92.77
2834.00,92.89
2833.00,92.98
2832.00,93.06
2831.00,93.13
2830.00,93.20
2829.00,93.27
2828.00,93.34
2827.00,93.40
2826.00,93.45
2825.00,93.49
2824.00,93.54
2823.00,93.60
2822.00,93.67
2821.00,93.75
2820.00,93.81
2819.00,93.86
2818.00,93.91
2817.00,93.96
2816.00,94.01
2815.00,94.07
2814.00,94.11
2813.00,94.14
2812.00,94.18
2811.00,94.22
2810.00,94.25
2809.00,94.29
2808.00,94.33
2807.00,94.37
2806.00,94.42
2805.00,94.46
2804.00,94.50
2803.00,94.54
2802.00,94.57
2801.00,94.61
2800.00,94.64
2799.00,94.68
2798.00,94.72
2797.00,94.75
2796.00,94.79
2795.00,94.82
2794.00,94.84
2793.00,94.87
2792.00,94.90
2791.00,94.93
2790.00,94.97
2789.00,95.00
2788.00,95.03
2787.00,95.05
2786.00,95.06
2785.00,95.08
2784.00,95.10
2783.00,95.11
2782.00,95.13
2781.00,95.15
2780.00,95.18
2779.00,95.20
2778.00,95.23
2777.00,95.25
2776.00,95.27
2775.00,95.28
2774.00,95.28
2773.00,95.28
2772.00,95.29
2771.00,95.30
2770.00,95.31
2769.00,95.32
2768.00,95.33
2767.00,95.35
2766.00,95.36
2765.00,95.38
2764.00,95.40
2763.00,95.41
2762.00,95.40
2761.00,95.40
2760.00,95.40
2759.00,95.41
2758.00,95.43
2757.00,95.46
2756.00,95.47
2755.00,95.49
2754.00,95.49
2753.00,95.49
2752.00,95.49
2751.00,95.50
2750.00,95.50
2749.00,95.51
2748.00,95.51
2747.00,95.51
2746.00,95.50
2745.00,95.49
2744.00,95.49
2743.00,95.49
2742.00,95.49
2741.00,95.50
2740.00,95.51
2739.00,95.53
2738.00,95.56
2737.00,95.58
2736.00,95.60
2735.00,95.62
2734.00,95.64
2733.00,95.65
2732.00,95.67
2731.00,95.68
2730.00,95.70
2729.00,95.72
2728.00,95.73
2727.00,95.75
2726.00,95.75
2725.00,95.75
2724.00,95.75
2723.00,95.76
2722.00,95.78
2721.00,95.81
2720.00,95.83
2719.00,95.85
2718.00,95.86
2717.00,95.88
2716.00,95.89
2715.00,95.89
2714.00,95.88
2713.00,95.87
2712.00,95.87
2711.00,95.87
2710.00,95.89
2709.00,95.91
2708.00,95.94
2707.00,95.96
2706.00,95.98
2705.00,95.99
2704.00,95.99
2703.00,95.99
2702.00,95.98
2701.00,95.96
2700.00,95.94
2699.00,95.93
2698.00,95.94
2697.00,95.96
2696.00,95.98
2695.00,95.99
2694.00,95.99
2693.00,95.98
2692.00,95.98
2691.00,95.99
2690.00,96.00
2689.00,96.01
2688.00,96.01
2687.00,96.01
2686.00,96.00
2685.00,96.01
2684.00,96.03
2683.00,96.04
2682.00,96.04
2681.00,96.05
2680.00,96.05
2679.00,96.07
2678.00,96.07
2677.00,96.08
2676.00,96.08
2675.00,96.09
2674.00,96.09
2673.00,96.09
2672.00,96.09
2671.00,96.09
2670.00,96.09
2669.00,96.09
2668.00,96.11
2667.00,96.12
2666.00,96.12
2665.00,96.12
2664.00,96.13
2663.00,96.13
2662.00,96.13
2661.00,96.11
2660.00,96.09
2659.00,96.06
2658.00,96.05
2657.00,96.05
2656.00,96.05
2655.00,96.05
2654.00,96.03
2653.00,96.01
2652.00,96.01
2651.00,96.01
2650.00,96.02
2649.00,96.02
2648.00,96.01
2647.00,95.99
2646.00,95.98
2645.00,95.96
2644.00,95.96
2643.00,95.96
2642.00,95.96
2641.00,95.95
2640.00,95.95
2639.00,95.94
2638.00,95.94
2637.00,95.93
2636.00,95.93
2635.00,95.92
2634.00,95.92
2633.00,95.90
2632.00,95.89
2631.00,95.87
2630.00,95.85
2629.00,95.84
2628.00,95.83
2627.00,95.83
2626.00,95.82
2625.00,95.82
2624.00,95.82
2623.00,95.82
2622.00,95.82
2621.00,95.81
2620.00,95.80
2619.00,95.79
2618.00,95.78
2617.00,95.78
2616.00,95.76
2615.00,95.74
2614.00,95.71
2613.00,95.69
2612.00,95.68
2611.00,95.69
2610.00,95.68
2609.00,95.68
2608.00,95.67
2607.00,95.67
2606.00,95.66
2605.00,95.63
2604.00,95.60
2603.00,95.58
2602.00,95.57
2601.00,95.57
2600.00,95.56
2599.00,95.55
2598.00,95.53
2597.00,95.53
2596.00,95.54
2595.00,95.56
2594.00,95.57
2593.00,95.55
2592.00,95.53
2591.00,95.51
2590.00,95.50
2589.00,95.51
2588.00,95.51
2587.00,95.50
2586.00,95.48
2585.00,95.46
2584.00,95.45
2583.00,95.47
2582.00,95.49
2581.00,95.50
2580.00,95.49
2579.00,95.49
2578.00,95.47
2577.00,95.47
2576.00,95.46
2575.00,95.46
2574.00,95.46
2573.00,95.45
2572.00,95.44
2571.00,95.43
2570.00,95.44
2569.00,95.47
2568.00,95.48
2567.00,95.48
2566.00,95.47
2565.00,95.46
2564.00,95.46
2563.00,95.48
2562.00,95.51
2561.00,95.52
2560.00,95.52
2559.00,95.51
2558.00,95.51
2557.00,95.51
2556.00,95.52
2555.00,95.52
2554.00,95.51
2553.00,95.48
2552.00,95.46
2551.00,95.46
2550.00,95.47
2549.00,95.48
2548.00,95.50
2547.00,95.51
2546.00,95.51
2545.00,95.51
2544.00,95.51
2543.00,95.49
2542.00,95.48
2541.00,95.47
2540.00,95.47
2539.00,95.48
2538.00,95.48
2537.00,95.49
2536.00,95.48
2535.00,95.49
2534.00,95.49
2533.00,95.50
2532.00,95.52
2531.00,95.53
2530.00,95.55
2529.00,95.56
2528.00,95.56
2527.00,95.57
2526.00,95.56
2525.00,95.54
2524.00,95.52
2523.00,95.50
2522.00,95.48
2521.00,95.48
2520.00,95.50
2519.00,95.51
2518.00,95.52
2517.00,95.52
2516.00,95.53
2515.00,95.54
2514.00,95.55
2513.00,95.58
2512.00,95.60
2511.00,95.61
2510.00,95.60
2509.00,95.58
2508.00,95.56
2507.00,95.55
2506.00,95.55
2505.00,95.57
2504.00,95.59
2503.00,95.61
2502.00,95.62
2501.00,95.62
2500.00,95.63
2499.00,95.63
2498.00,95.63
2497.00,95.62
2496.00,95.61
2495.00,95.59
2494.00,95.58
2493.00,95.57
2492.00,95.56
2491.00,95.55
2490.00,95.53
2489.00,95.53
2488.00,95.55
2487.00,95.59
2486.00,95.62
2485.00,95.64
2484.00,95.63
2483.00,95.60
2482.00,95.58
2481.00,95.55
2480.00,95.54
2479.00,95.53
2478.00,95.54
2477.00,95.56
2476.00,95.58
2475.00,95.59
2474.00,95.59
2473.00,95.60
2472.00,95.60
2471.00,95.61
2470.00,95.61
2469.00,95.61
2468.00,95.62
2467.00,95.62
2466.00,95.62
2465.00,95.60
2464.00,95.58
2463.00,95.57
2462.00,95.58
2461.00,95.59
2460.00,95.62
2459.00,95.64
2458.00,95.65
2457.00,95.66
2456.00,95.67
2455.00,95.67
2454.00,95.67
2453.00,95.65
2452.00,95.64
2451.00,95.63
2450.00,95.63
2449.00,95.64
2448.00,95.65
2447.00,95.65
2446.00,95.65
2445.00,95.66
2444.00,95.67
2443.00,95.68
2442.00,95.67
2441.00,95.66
2440.00,95.65
2439.00,95.67
2438.00,95.69
2437.00,95.71
2436.00,95.73
2435.00,95.74
2434.00,95.75
2433.00,95.76
2432.00,95.75
2431.00,95.74
2430.00,95.74
2429.00,95.73
2428.00,95.73
2427.00,95.73
2426.00,95.73
2425.00,95.73
2424.00,95.74
2423.00,95.74
2422.00,95.74
2421.00,95.74
2420.00,95.75
2419.00,95.76
2418.00,95.78
2417.00,95.78
2416.00,95.78
2415.00,95.78
2414.00,95.79
2413.00,95.80
2412.00,95.81
2411.00,95.81
2410.00,95.80
2409.00,95.81
2408.00,95.84
2407.00,95.87
2406.00,95.88
2405.00,95.89
2404.00,95.90
2403.00,95.92
2402.00,95.94
2401.00,95.95
2400.00,95.96
2399.00,95.96
2398.00,95.97
2397.00,95.98
2396.00,95.98
2395.00,95.98
2394.00,95.98
2393.00,95.99
2392.00,96.00
2391.00,96.01
2390.00,96.02
2389.00,96.03
2388.00,96.05
2387.00,96.07
2386.00,96.10
2385.00,96.11
2384.00,96.12
2383.00,96.13
2382.00,96.15
2381.00,96.18
2380.00,96.22
2379.00,96.27
2378.00,96.32
2377.00,96.37
2376.00,96.42
2375.00,96.47
2374.00,96.51
2373.00,96.54
2372.00,96.58
2371.00,96.61
2370.00,96.63
2369.00,96.63
2368.00,96.59
2367.00,96.49
2366.00,96.34
2365.00,96.22
2364.00,96.20
2363.00,96.28
2362.00,96.39
2361.00,96.49
2360.00,96.57
2359.00,96.64
2358.00,96.65
2357.00,96.61
2356.00,96.57
2355.00,96.56
2354.00,96.55
2353.00,96.55
2352.00,96.55
2351.00,96.57
2350.00,96.56
2349.00,96.54
2348.00,96.53
2347.00,96.52
2346.00,96.52
2345.00,96.51
2344.00,96.48
2343.00,96.47
2342.00,96.48
2341.00,96.49
2340.00,96.51
2339.00,96.53
2338.00,96.55
2337.00,96.53
2336.00,96.49
2335.00,96.45
2334.00,96.41
2333.00,96.39
2332.00,96.38
2331.00,96.39
2330.00,96.39
2329.00,96.38
2328.00,96.33
2327.00,96.27
2326.00,96.18
2325.00,96.11
2324.00,96.08
2323.00,96.07
2322.00,96.07
2321.00,96.05
2320.00,96.05
2319.00,96.07
2318.00,96.10
2317.00,96.12
2316.00,96.13
2315.00,96.13
2314.00,96.10
2313.00,96.07
2312.00,96.02
2311.00,96.00
2310.00,96.00
2309.00,96.01
2308.00,96.00
2307.00,95.98
2306.00,95.94
2305.00,95.88
2304.00,95.82
2303.00,95.78
2302.00,95.77
2301.00,95.76
2300.00,95.75
2299.00,95.74
2298.00,95.70
2297.00,95.66
2296.00,95.62
2295.00,95.58
2294.00,95.54
2293.00,95.50
2292.00,95.47
2291.00,95.45
2290.00,95.42
2289.00,95.37
2288.00,95.30
2287.00,95.25
2286.00,95.22
2285.00,95.21
2284.00,95.21
2283.00,95.19
2282.00,95.17
2281.00,95.15
2280.00,95.14
2279.00,95.14
2278.00,95.14
2277.00,95.12
2276.00,95.09
2275.00,95.06
2274.00,95.02
2273.00,94.96
2272.00,94.92
2271.00,94.88
2270.00,94.86
2269.00,94.84
2268.00,94.80
2267.00,94.75
2266.00,94.70
2265.00,94.66
2264.00,94.65
2263.00,94.67
2262.00,94.70
2261.00,94.70
2260.00,94.68
2259.00,94.63
2258.00,94.57
2257.00,94.52
2256.00,94.50
2255.00,94.50
2254.00,94.52
2253.00,94.51
2252.00,94.50
2251.00,94.46
2250.00,94.42
2249.00,94.39
2248.00,94.39
2247.00,94.43
2246.00,94.48
2245.00,94.51
2244.00,94.51
2243.00,94.47
2242.00,94.42
2241.00,94.38
2240.00,94.33
2239.00,94.30
2238.00,94.27
2237.00,94.27
2236.00,94.27
2235.00,94.25
2234.00,94.23
2233.00,94.20
2232.00,94.19
2231.00,94.19
2230.00,94.17
2229.00,94.14
2228.00,94.11
2227.00,94.09
2226.00,94.07
2225.00,94.06
2224.00,94.04
2223.00,94.02
2222.00,94.01
2221.00,94.01
2220.00,94.03
2219.00,94.06
2218.00,94.09
2217.00,94.11
2216.00,94.10
2215.00,94.07
2214.00,94.01
2213.00,93.94
2212.00,93.88
2211.00,93.83
2210.00,93.79
2209.00,93.77
2208.00,93.76
2207.00,93.75
2206.00,93.74
2205.00,93.73
2204.00,93.71
2203.00,93.69
2202.00,93.65
2201.00,93.61
2200.00,93.59
2199.00,93.59
2198.00,93.58
2197.00,93.53
2196.00,93.46
2195.00,93.40
2194.00,93.36
2193.00,93.37
2192.00,93.41
2191.00,93.44
2190.00,93.43
2189.00,93.40
2188.00,93.35
2187.00,93.29
2186.00,93.22
2185.00,93.16
2184.00,93.14
2183.00,93.15
2182.00,93.16
2181.00,93.16
2180.00,93.17
2179.00,93.20
2178.00,93.26
2177.00,93.29
2176.00,93.28
2175.00,93.22
2174.00,93.12
2173.00,93.03
2172.00,92.98
2171.00,92.95
2170.00,92.88
2169.00,92.76
2168.00,92.62
2167.00,92.52
2166.00,92.45
2165.00,92.41
2164.00,92.35
2163.00,92.26
2162.00,92.16
2161.00,92.14
2160.00,92.25
2159.00,92.49
2158.00,92.74
2157.00,92.93
2156.00,93.05
2155.00,93.15
2154.00,93.22
2153.00,93.27
2152.00,93.30
2151.00,93.34
2150.00,93.40
2149.00,93.48
2148.00,93.57
2147.00,93.66
2146.00,93.75
2145.00,93.82
2144.00,93.87
2143.00,93.90
2142.00,93.91
2141.00,93.93
2140.00,93.98
2139.00,94.06
2138.00,94.15
2137.00,94.25
2136.00,94.33
2135.00,94.39
2134.00,94.44
2133.00,94.47
2132.00,94.52
2131.00,94.56
2130.00,94.62
2129.00,94.69
2128.00,94.75
2127.00,94.79
2126.00,94.81
2125.00,94.81
2124.00,94.81
2123.00,94.81
2122.00,94.80
2121.00,94.76
2120.00,94.74
2119.00,94.74
2118.00,94.76
2117.00,94.77
2116.00,94.77
2115.00,94.74
2114.00,94.70
2113.00,94.68
2112.00,94.69
2111.00,94.71
2110.00,94.72
2109.00,94.72
2108.00,94.71
2107.00,94.72
2106.00,94.73
2105.00,94.74
2104.00,94.73
2103.00,94.71
2102.00,94.68
2101.00,94.67
2100.00,94.67
2099.00,94.68
2098.00,94.70
2097.00,94.74
2096.00,94.79
2095.00,94.85
2094.00,94.86
2093.00,94.84
2092.00,94.79
2091.00,94.75
2090.00,94.71
2089.00,94.67
2088.00,94.65
2087.00,94.64
2086.00,94.65
2085.00,94.67
2084.00,94.68
2083.00,94.68
2082.00,94.68
2081.00,94.68
2080.00,94.68
2079.00,94.68
2078.00,94.67
2077.00,94.63
2076.00,94.60
2075.00,94.58
2074.00,94.56
2073.00,94.52
2072.00,94.44
2071.00,94.37
2070.00,94.32
2069.00,94.30
2068.00,94.30
2067.00,94.31
2066.00,94.31
2065.00,94.31
2064.00,94.32
2063.00,94.33
2062.00,94.34
2061.00,94.33
2060.00,94.30
2059.00,94.26
2058.00,94.21
2057.00,94.17
2056.00,94.16
2055.00,94.17
2054.00,94.19
2053.00,94.14
2052.00,94.04
2051.00,93.92
2050.00,93.84
2049.00,93.82
2048.00,93.82
2047.00,93.79
2046.00,93.72
2045.00,93.65
2044.00,93.59
2043.00,93.55
2042.00,93.47
2041.00,93.37
2040.00,93.30
2039.00,93.28
2038.00,93.27
2037.00,93.26
2036.00,93.25
2035.00,93.24
2034.00,93.23
2033.00,93.21
2032.00,93.20
2031.00,93.19
2030.00,93.20
2029.00,93.22
2028.00,93.26
2027.00,93.31
2026.00,93.34
2025.00,93.33
2024.00,93.30
2023.00,93.28
2022.00,93.29
2021.00,93.32
2020.00,93.34
2019.00,93.33
2018.00,93.31
2017.00,93.32
2016.00,93.36
2015.00,93.40
2014.00,93.37
2013.00,93.31
2012.00,93.28
2011.00,93.32
2010.00,93.40
2009.00,93.49
2008.00,93.57
2007.00,93.64
2006.00,93.70
2005.00,93.74
2004.00,93.77
2003.00,93.81
2002.00,93.84
2001.00,93.88
2000.00,93.94
1999.00,94.00
1998.00,94.01
1997.00,93.95
1996.00,93.87
1995.00,93.84
1994.00,93.84
1993.00,93.85
1992.00,93.85
1991.00,93.85
1990.00,93.86
1989.00,93.87
1988.00,93.86
1987.00,93.82
1986.00,93.76
1985.00,93.67
1984.00,93.57
1983.00,93.45
1982.00,93.32
1981.00,93.20
1980.00,93.13
1979.00,93.14
1978.00,93.22
1977.00,93.32
1976.00,93.43
1975.00,93.53
1974.00,93.62
1973.00,93.71
1972.00,93.80
1971.00,93.89
1970.00,93.94
1969.00,93.96
1968.00,93.95
1967.00,93.95
1966.00,93.96
1965.00,93.97
1964.00,93.96
1963.00,93.98
1962.00,94.02
1961.00,94.09
1960.00,94.17
1959.00,94.22
1958.00,94.26
1957.00,94.29
1956.00,94.32
1955.00,94.36
1954.00,94.39
1953.00,94.42
1952.00,94.45
1951.00,94.48
1950.00,94.51
1949.00,94.54
1948.00,94.61
1947.00,94.69
1946.00,94.76
1945.00,94.81
1944.00,94.84
1943.00,94.87
1942.00,94.91
1941.00,94.93
1940.00,94.94
1939.00,94.95
1938.00,94.96
1937.00,95.00
1936.00,95.04
1935.00,95.09
1934.00,95.13
1933.00,95.16
1932.00,95.19
1931.00,95.21
1930.00,95.21
1929.00,95.19
1928.00,95.19
1927.00,95.21
1926.00,95.23
1925.00,95.26
1924.00,95.29
1923.00,95.34
1922.00,95.37
1921.00,95.39
1920.00,95.41
1919.00,95.44
1918.00,95.47
1917.00,95.49
1916.00,95.51
1915.00,95.54
1914.00,95.56
1913.00,95.56
1912.00,95.54
1911.00,95.53
1910.00,95.53
1909.00,95.55
1908.00,95.57
1907.00,95.59
1906.00,95.60
1905.00,95.62
1904.00,95.65
1903.00,95.69
1902.00,95.73
1901.00,95.73
1900.00,95.72
1899.00,95.71
1898.00,95.72
1897.00,95.75
1896.00,95.78
1895.00,95.80
1894.00,95.80
1893.00,95.79
1892.00,95.79
1891.00,95.81
1890.00,95.85
1889.00,95.89
1888.00,95.92
1887.00,95.94
1886.00,95.94
1885.00,95.93
1884.00,95.92
1883.00,95.91
1882.00,95.90
1881.00,95.90
1880.00,95.91
1879.00,95.92
1878.00,95.93
1877.00,95.92
1876.00,95.93
1875.00,95.95
1874.00,95.99
1873.00,96.02
1872.00,96.03
1871.00,96.05
1870.00,96.07
1869.00,96.06
1868.00,96.04
1867.00,96.02
1866.00,96.02
1865.00,96.04
1864.00,96.07
1863.00,96.09
1862.00,96.10
1861.00,96.09
1860.00,96.07
1859.00,96.09
1858.00,96.12
1857.00,96.15
1856.00,96.18
1855.00,96.19
1854.00,96.19
1853.00,96.19
1852.00,96.19
1851.00,96.19
1850.00,96.18
1849.00,96.18
1848.00,96.19
1847.00,96.21
1846.00,96.24
1845.00,96.26
1844.00,96.26
1843.00,96.27
1842.00,96.29
1841.00,96.31
1840.00,96.32
1839.00,96.33
1838.00,96.34
1837.00,96.35
1836.00,96.36
1835.00,96.37
1834.00,96.37
1833.00,96.37
1832.00,96.38
1831.00,96.41
1830.00,96.44
1829.00,96.43
1828.00,96.42
1827.00,96.41
1826.00,96.42
1825.00,96.44
1824.00,96.45
1823.00,96.46
1822.00,96.45
1821.00,96.45
1820.00,96.46
1819.00,96.48
1818.00,96.50
1817.00,96.52
1816.00,96.53
1815.00,96.54
1814.00,96.55
1813.00,96.56
1812.00,96.59
1811.00,96.61
1810.00,96.63
1809.00,96.63
1808.00,96.62
1807.00,96.61
1806.00,96.60
1805.00,96.59
1804.00,96.60
1803.00,96.61
1802.00,96.63
1801.00,96.64
1800.00,96.65
1799.00,96.65
1798.00,96.64
1797.00,96.63
1796.00,96.63
1795.00,96.64
1794.00,96.66
1793.00,96.67
1792.00,96.69
1791.00,96.70
1790.00,96.71
1789.00,96.72
1788.00,96.72
1787.00,96.73
1786.00,96.73
1785.00,96.74
1784.00,96.74
1783.00,96.73
1782.00,96.73
1781.00,96.72
1780.00,96.72
1779.00,96.72
1778.00,96.71
1777.00,96.71
1776.00,96.71
1775.00,96.73
1774.00,96.73
1773.00,96.72
1772.00,96.70
1771.00,96.69
1770.00,96.69
1769.00,96.69
1768.00,96.69
1767.00,96.69
1766.00,96.68
1765.00,96.65
1764.00,96.63
1763.00,96.62
1762.00,96.62
1761.00,96.61
1760.00,96.59
1759.00,96.58
1758.00,96.56
1757.00,96.55
1756.00,96.52
1755.00,96.49
1754.00,96.46
1753.00,96.43
1752.00,96.39
1751.00,96.36
1750.00,96.33
1749.00,96.31
1748.00,96.30
1747.00,96.28
1746.00,96.26
1745.00,96.21
1744.00,96.16
1743.00,96.12
1742.00,96.08
1741.00,96.04
1740.00,96.00
1739.00,95.97
1738.00,95.96
1737.00,95.96
1736.00,95.95
1735.00,95.96
1734.00,95.96
1733.00,95.97
1732.00,95.97
1731.00,95.97
1730.00,95.97
1729.00,95.97
1728.00,95.98
1727.00,96.00
1726.00,96.02
1725.00,96.03
1724.00,96.05
1723.00,96.08
1722.00,96.10
1721.00,96.11
1720.00,96.11
1719.00,96.10
1718.00,96.10
1717.00,96.11
1716.00,96.12
1715.00,96.12
1714.00,96.12
1713.00,96.10
1712.00,96.08
1711.00,96.09
1710.00,96.11
1709.00,96.13
1708.00,96.14
1707.00,96.13
1706.00,96.13
1705.00,96.11
1704.00,96.11
1703.00,96.11
1702.00,96.11
1701.00,96.11
1700.00,96.09
1699.00,96.09
1698.00,96.10
1697.00,96.08
1696.00,96.04
1695.00,95.99
1694.00,95.95
1693.00,95.90
1692.00,95.82
1691.00,95.73
1690.00,95.62
1689.00,95.49
1688.00,95.36
1687.00,95.23
1686.00,95.04
1685.00,94.72
1684.00,94.28
1683.00,93.88
1682.00,93.56
1681.00,93.21
1680.00,92.81
1679.00,92.41
1678.00,92.03
1677.00,91.62
1676.00,91.11
1675.00,90.55
1674.00,90.05
1673.00,89.61
1672.00,89.17
1671.00,88.63
1670.00,87.98
1669.00,87.23
1668.00,86.50
1667.00,85.84
1666.00,85.24
1665.00,84.57
1664.00,83.76
1663.00,82.81
1662.00,81.85
1661.00,80.95
1660.00,80.10
1659.00,79.27
1658.00,78.49
1657.00,77.76
1656.00,77.06
1655.00,76.24
1654.00,74.93
1653.00,73.09
1652.00,71.54
1651.00,70.61
1650.00,69.93
1649.00,69.12
1648.00,67.90
1647.00,66.27
1646.00,64.61
1645.00,63.20
1644.00,62.01
1643.00,60.91
1642.00,59.85
1641.00,58.80
1640.00,57.81
1639.00,56.94
1638.00,56.19
1637.00,55.42
1636.00,54.59
1635.00,53.93
1634.00,53.65
1633.00,53.68
1632.00,53.90
1631.00,54.28
1630.00,54.82
1629.00,55.50
1628.00,56.27
1627.00,57.05
1626.00,57.85
1625.00,58.68
1624.00,59.61
1623.00,60.62
1622.00,61.65
1621.00,62.64
1620.00,63.59
1619.00,64.60
1618.00,65.77
1617.00,67.15
1616.00,68.54
1615.00,69.74
1614.00,70.76
1613.00,71.71
1612.00,72.66
1611.00,73.61
1610.00,74.52
1609.00,75.38
1608.00,76.22
1607.00,77.03
1606.00,77.79
1605.00,78.53
1604.00,79.28
1603.00,80.03
1602.00,80.72
1601.00,81.35
1600.00,81.94
1599.00,82.48
1598.00,82.95
1597.00,83.37
1596.00,83.76
1595.00,84.09
1594.00,84.35
1593.00,84.56
1592.00,84.77
1591.00,84.94
1590.00,85.04
1589.00,85.10
1588.00,85.15
1587.00,85.16
1586.00,85.11
1585.00,85.02
1584.00,84.90
1583.00,84.75
1582.00,84.53
1581.00,84.28
1580.00,84.05
1579.00,83.81
1578.00,83.47
1577.00,82.99
1576.00,82.42
1575.00,81.88
1574.00,81.42
1573.00,81.00
1572.00,80.58
1571.00,80.03
1570.00,79.31
1569.00,78.54
1568.00,77.90
1567.00,77.35
1566.00,76.75
1565.00,76.08
1564.00,75.44
1563.00,74.91
1562.00,74.46
1561.00,73.95
1560.00,73.14
1559.00,71.97
1558.00,70.94
1557.00,70.31
1556.00,69.85
1555.00,69.33
1554.00,68.71
1553.00,68.09
1552.00,67.50
1551.00,66.89
1550.00,66.20
1549.00,65.49
1548.00,64.86
1547.00,64.28
1546.00,63.63
1545.00,62.88
1544.00,62.14
1543.00,61.43
1542.00,60.70
1541.00,59.79
1540.00,58.70
1539.00,57.74
1538.00,57.09
1537.00,56.69
1536.00,56.39
1535.00,56.08
1534.00,55.72
1533.00,55.46
1532.00,55.41
1531.00,55.56
1530.00,55.85
1529.00,56.27
1528.00,56.82
1527.00,57.50
1526.00,58.27
1525.00,59.08
1524.00,59.89
1523.00,60.76
1522.00,61.81
1521.00,62.94
1520.00,63.95
1519.00,64.83
1518.00,65.72
1517.00,66.69
1516.00,67.65
1515.00,68.53
1514.00,69.34
1513.00,70.14
1512.00,70.94
1511.00,71.70
1510.00,72.40
1509.00,73.08
1508.00,73.79
1507.00,74.63
1506.00,75.47
1505.00,76.14
1504.00,76.65
1503.00,77.12
1502.00,77.61
1501.00,78.12
1500.00,78.60
1499.00,79.08
1498.00,79.57
1497.00,80.05
1496.00,80.50
1495.00,80.89
1494.00,81.24
1493.00,81.56
1492.00,81.86
1491.00,82.17
1490.00,82.47
1489.00,82.70
1488.00,82.83
1487.00,82.89
1486.00,82.88
1485.00,82.76
1484.00,82.50
1483.00,82.07
1482.00,81.47
1481.00,80.70
1480.00,79.84
1479.00,78.99
1478.00,78.17
1477.00,77.40
1476.00,76.76
1475.00,76.35
1474.00,76.24
1473.00,76.40
1472.00,76.69
1471.00,76.90
1470.00,76.89
1469.00,76.64
1468.00,76.17
1467.00,75.53
1466.00,74.84
1465.00,74.29
1464.00,74.06
1463.00,74.19
1462.00,74.55
1461.00,75.01
1460.00,75.50
1459.00,75.98
1458.00,76.45
1457.00,76.90
1456.00,77.28
1455.00,77.58
1454.00,77.86
1453.00,78.16
1452.00,78.45
1451.00,78.71
1450.00,78.94
1449.00,79.13
1448.00,79.26
1447.00,79.31
1446.00,79.32
1445.00,79.29
1444.00,79.22
1443.00,79.12
1442.00,79.02
1441.00,78.91
1440.00,78.79
1439.00,78.69
1438.00,78.61
1437.00,78.55
1436.00,78.55
1435.00,78.62
1434.00,78.77
1433.00,78.96
1432.00,79.18
1431.00,79.43
1430.00,79.69
1429.00,79.93
1428.00,80.08
1427.00,80.14
1426.00,80.12
1425.00,80.00
1424.00,79.77
1423.00,79.46
1422.00,79.10
1421.00,78.61
1420.00,77.93
1419.00,77.13
1418.00,76.51
1417.00,76.29
1416.00,76.45
1415.00,76.96
1414.00,77.74
1413.00,78.68
1412.00,79.66
1411.00,80.60
1410.00,81.44
1409.00,82.16
1408.00,82.75
1407.00,83.24
1406.00,83.63
1405.00,83.97
1404.00,84.24
1403.00,84.44
1402.00,84.60
1401.00,84.73
1400.00,84.81
1399.00,84.86
1398.00,84.87
1397.00,84.85
1396.00,84.78
1395.00,84.64
1394.00,84.47
1393.00,84.29
1392.00,84.11
1391.00,83.92
1390.00,83.72
1389.00,83.50
1388.00,83.27
1387.00,83.03
1386.00,82.82
1385.00,82.62
1384.00,82.42
1383.00,82.19
1382.00,81.95
1381.00,81.69
1380.00,81.39
1379.00,81.06
1378.00,80.69
1377.00,80.31
1376.00,79.91
1375.00,79.49
1374.00,79.08
1373.00,78.75
1372.00,78.52
1371.00,78.37
1370.00,78.32
1369.00,78.35
1368.00,78.45
1367.00,78.58
1366.00,78.74
1365.00,78.91
1364.00,79.09
1363.00,79.27
1362.00,79.45
1361.00,79.64
1360.00,79.83
1359.00,80.04
1358.00,80.28
1357.00,80.52
1356.00,80.75
1355.00,80.97
1354.00,81.20
1353.00,81.42
1352.00,81.62
1351.00,81.81
1350.00,82.00
1349.00,82.15
1348.00,82.25
1347.00,82.25
1346.00,82.20
1345.00,82.15
1344.00,82.20
1343.00,82.39
1342.00,82.69
1341.00,83.03
1340.00,83.34
1339.00,83.59
1338.00,83.79
1337.00,83.93
1336.00,84.04
1335.00,84.12
1334.00,84.20
1333.00,84.27
1332.00,84.32
1331.00,84.34
1330.00,84.35
1329.00,84.37
1328.00,84.40
1327.00,84.45
1326.00,84.51
1325.00,84.59
1324.00,84.67
1323.00,84.74
1322.00,84.81
1321.00,84.87
1320.00,84.90
1319.00,84.89
1318.00,84.86
1317.00,84.80
1316.00,84.72
1315.00,84.63
1314.00,84.52
1313.00,84.41
1312.00,84.28
1311.00,84.14
1310.00,84.01
1309.00,83.88
1308.00,83.75
1307.00,83.62
1306.00,83.49
1305.00,83.37
1304.00,83.26
1303.00,83.17
1302.00,83.11
1301.00,83.08
1300.00,83.06
1299.00,83.04
1298.00,83.02
1297.00,82.96
1296.00,82.88
1295.00,82.78
1294.00,82.68
1293.00,82.56
1292.00,82.41
1291.00,82.23
1290.00,82.03
1289.00,81.78
1288.00,81.47
1287.00,81.11
1286.00,80.71
1285.00,80.24
1284.00,79.71
1283.00,79.13
1282.00,78.49
1281.00,77.81
1280.00,77.11
1279.00,76.40
1278.00,75.74
1277.00,75.15
1276.00,74.67
1275.00,74.32
1274.00,74.10
1273.00,74.01
1272.00,74.00
1271.00,74.08
1270.00,74.23
1269.00,74.43
1268.00,74.68
1267.00,74.95
1266.00,75.26
1265.00,75.58
1264.00,75.91
1263.00,76.23
1262.00,76.54
1261.00,76.85
1260.00,77.13
1259.00,77.39
1258.00,77.63
1257.00,77.85
1256.00,78.04
1255.00,78.23
1254.00,78.43
1253.00,78.62
1252.00,78.79
1251.00,78.94
1250.00,79.08
1249.00,79.21
1248.00,79.32
1247.00,79.41
1246.00,79.50
1245.00,79.57
1244.00,79.64
1243.00,79.72
1242.00,79.83
1241.00,79.94
1240.00,80.06
1239.00,80.17
1238.00,80.28
1237.00,80.39
1236.00,80.52
1235.00,80.68
1234.00,80.87
1233.00,81.08
1232.00,81.30
1231.00,81.52
1230.00,81.75
1229.00,81.95
1228.00,82.10
1227.00,82.19
1226.00,82.23
1225.00,82.26
1224.00,82.32
1223.00,82.46
1222.00,82.68
1221.00,82.94
1220.00,83.20
1219.00,83.42
1218.00,83.58
1217.00,83.68
1216.00,83.72
1215.00,83.72
1214.00,83.71
1213.00,83.68
1212.00,83.62
1211.00,83.51
1210.00,83.34
1209.00,83.10
1208.00,82.78
1207.00,82.38
1206.00,81.87
1205.00,81.25
1204.00,80.52
1203.00,79.68
1202.00,78.78
1201.00,77.90
1200.00,77.11
1199.00,76.51
1198.00,76.20
1197.00,76.20
1196.00,76.51
1195.00,77.06
1194.00,77.77
1193.00,78.51
1192.00,79.21
1191.00,79.82
1190.00,80.32
1189.00,80.71
1188.00,80.95
1187.00,81.05
1186.00,81.02
1185.00,80.87
1184.00,80.65
1183.00,80.40
1182.00,80.17
1181.00,79.98
1180.00,79.89
1179.00,79.92
1178.00,80.10
1177.00,80.43
1176.00,80.90
1175.00,81.45
1174.00,82.06
1173.00,82.66
1172.00,83.20
1171.00,83.68
1170.00,84.08
1169.00,84.43
1168.00,84.73
1167.00,85.01
1166.00,85.25
1165.00,85.45
1164.00,85.60
1163.00,85.70
1162.00,85.76
1161.00,85.79
1160.00,85.79
1159.00,85.74
1158.00,85.65
1157.00,85.49
1156.00,85.26
1155.00,84.95
1154.00,84.61
1153.00,84.24
1152.00,83.87
1151.00,83.51
1150.00,83.20
1149.00,82.96
1148.00,82.77
1147.00,82.62
1146.00,82.52
1145.00,82.46
1144.00,82.41
1143.00,82.36
1142.00,82.30
1141.00,82.25
1140.00,82.23
1139.00,82.28
1138.00,82.44
1137.00,82.71
1136.00,83.06
1135.00,83.44
1134.00,83.83
1133.00,84.20
1132.00,84.52
1131.00,84.78
1130.00,84.97
1129.00,85.10
1128.00,85.15
1127.00,85.14
1126.00,85.07
1125.00,84.96
1124.00,84.81
1123.00,84.63
1122.00,84.44
1121.00,84.27
1120.00,84.12
1119.00,84.01
1118.00,83.94
1117.00,83.92
1116.00,83.98
1115.00,84.10
1114.00,84.26
1113.00,84.44
1112.00,84.60
1111.00,84.75
1110.00,84.90
1109.00,85.04
1108.00,85.19
1107.00,85.34
1106.00,85.51
1105.00,85.70
1104.00,85.87
1103.00,86.04
1102.00,86.18
1101.00,86.31
1100.00,86.43
1099.00,86.55
1098.00,86.67
1097.00,86.78
1096.00,86.89
1095.00,86.99
1094.00,87.08
1093.00,87.16
1092.00,87.25
1091.00,87.35
1090.00,87.45
1089.00,87.53
1088.00,87.58
1087.00,87.64
1086.00,87.72
1085.00,87.84
1084.00,87.96
1083.00,88.06
1082.00,88.15
1081.00,88.21
1080.00,88.27
1079.00,88.32
1078.00,88.37
1077.00,88.43
1076.00,88.48
1075.00,88.50
1074.00,88.49
1073.00,88.45
1072.00,88.38
1071.00,88.30
1070.00,88.21
1069.00,88.10
1068.00,87.98
1067.00,87.85
1066.00,87.74
1065.00,87.66
1064.00,87.59
1063.00,87.54
1062.00,87.51
1061.00,87.53
1060.00,87.58
1059.00,87.67
1058.00,87.79
1057.00,87.90
1056.00,87.97
1055.00,88.00
1054.00,88.02
1053.00,88.06
1052.00,88.10
1051.00,88.12
1050.00,88.11
1049.00,88.08
1048.00,88.05
1047.00,88.03
1046.00,88.03
1045.00,88.02
1044.00,88.01
1043.00,87.98
1042.00,87.96
1041.00,87.94
1040.00,87.93
1039.00,87.95
1038.00,88.02
1037.00,88.13
1036.00,88.23
1035.00,88.32
1034.00,88.39
1033.00,88.46
1032.00,88.53
1031.00,88.60
1030.00,88.66
1029.00,88.72
1028.00,88.78
1027.00,88.85
1026.00,88.91
1025.00,88.99
1024.00,89.06
1023.00,89.11
1022.00,89.15
1021.00,89.18
1020.00,89.19
1019.00,89.20
1018.00,89.22
1017.00,89.24
1016.00,89.25
1015.00,89.25
1014.00,89.26
1013.00,89.28
1012.00,89.32
1011.00,89.35
1010.00,89.38
1009.00,89.41
1008.00,89.44
1007.00,89.48
1006.00,89.51
1005.00,89.55
1004.00,89.61
1003.00,89.66
1002.00,89.71
1001.00,89.75
1000.00,89.77
999.00,89.80
998.00,89.84
997.00,89.89
996.00,89.95
995.00,90.02
994.00,90.08
993.00,90.12
992.00,90.15
991.00,90.16
990.00,90.17
989.00,90.19
988.00,90.21
987.00,90.24
986.00,90.28
985.00,90.34
984.00,90.42
983.00,90.51
982.00,90.61
981.00,90.70
980.00,90.77
979.00,90.81
978.00,90.83
977.00,90.85
976.00,90.86
975.00,90.85
974.00,90.84
973.00,90.84
972.00,90.83
971.00,90.80
970.00,90.71
969.00,90.59
968.00,90.45
967.00,90.33
966.00,90.25
965.00,90.21
964.00,90.21
963.00,90.23
962.00,90.25
961.00,90.28
960.00,90.31
959.00,90.32
958.00,90.31
957.00,90.27
956.00,90.19
955.00,90.11
954.00,90.03
953.00,89.95
952.00,89.87
951.00,89.79
950.00,89.71
949.00,89.62
948.00,89.50
947.00,89.36
946.00,89.18
945.00,88.97
944.00,88.71
943.00,88.39
942.00,88.02
941.00,87.57
940.00,87.01
939.00,86.35
938.00,85.65
937.00,84.99
936.00,84.45
935.00,84.12
934.00,84.05
933.00,84.20
932.00,84.51
931.00,84.92
930.00,85.39
929.00,85.87
928.00,86.31
927.00,86.69
926.00,87.01
925.00,87.28
924.00,87.53
923.00,87.75
922.00,87.97
921.00,88.17
920.00,88.34
919.00,88.49
918.00,88.63
917.00,88.77
916.00,88.90
915.00,89.01
914.00,89.07
913.00,89.11
912.00,89.13
911.00,89.13
910.00,89.10
909.00,89.01
908.00,88.87
907.00,88.74
906.00,88.68
905.00,88.71
904.00,88.84
903.00,89.04
902.00,89.26
901.00,89.49
900.00,89.68
899.00,89.85
898.00,89.99
897.00,90.12
896.00,90.24
895.00,90.33
894.00,90.41
893.00,90.49
892.00,90.56
891.00,90.62
890.00,90.65
889.00,90.67
888.00,90.68
887.00,90.69
886.00,90.71
885.00,90.74
884.00,90.76
883.00,90.77
882.00,90.77
881.00,90.76
880.00,90.77
879.00,90.79
878.00,90.82
877.00,90.86
876.00,90.89
875.00,90.91
874.00,90.93
873.00,90.95
872.00,90.97
871.00,91.00
870.00,91.02
869.00,91.05
868.00,91.07
867.00,91.08
866.00,91.09
865.00,91.09
864.00,91.06
863.00,91.02
862.00,90.99
861.00,90.96
860.00,90.93
859.00,90.91
858.00,90.90
857.00,90.88
856.00,90.86
855.00,90.82
854.00,90.79
853.00,90.76
852.00,90.74
851.00,90.70
850.00,90.66
849.00,90.62
848.00,90.57
847.00,90.52
846.00,90.45
845.00,90.38
844.00,90.31
843.00,90.25
842.00,90.23
841.00,90.25
840.00,90.32
839.00,90.40
838.00,90.47
837.00,90.50
836.00,90.50
835.00,90.46
834.00,90.43
833.00,90.42
832.00,90.42
831.00,90.42
830.00,90.40
829.00,90.39
828.00,90.38
827.00,90.39
826.00,90.38
825.00,90.37
824.00,90.34
823.00,90.30
822.00,90.25
821.00,90.20
820.00,90.13
819.00,90.06
818.00,90.00
817.00,89.95
816.00,89.89
815.00,89.81
814.00,89.74
813.00,89.70
812.00,89.67
811.00,89.63
810.00,89.56
809.00,89.47
808.00,89.38
807.00,89.30
806.00,89.23
805.00,89.17
804.00,89.09
803.00,88.96
802.00,88.82
801.00,88.69
800.00,88.57
799.00,88.46
798.00,88.36
797.00,88.26
796.00,88.18
795.00,88.12
794.00,88.08
793.00,88.04
792.00,88.02
791.00,88.01
790.00,88.01
789.00,87.99
788.00,87.96
787.00,87.91
786.00,87.86
785.00,87.79
784.00,87.70
783.00,87.58
782.00,87.46
781.00,87.36
780.00,87.28
779.00,87.20
778.00,87.12
777.00,87.03
776.00,86.94
775.00,86.86
774.00,86.77
773.00,86.67
772.00,86.55
771.00,86.43
770.00,86.31
769.00,86.18
768.00,86.04
767.00,85.90
766.00,85.78
765.00,85.65
764.00,85.51
763.00,85.36
762.00,85.21
761.00,85.06
760.00,84.91
759.00,84.76
758.00,84.64
757.00,84.54
756.00,84.44
755.00,84.34
754.00,84.23
753.00,84.13
752.00,84.02
751.00,83.89
750.00,83.77
749.00,83.65
748.00,83.51
747.00,83.39
746.00,83.26
745.00,83.14
744.00,83.00
743.00,82.83
742.00,82.64
741.00,82.39
740.00,82.03
739.00,81.56
738.00,81.00
737.00,80.39
736.00,79.77
735.00,79.15
734.00,78.53
733.00,77.90
732.00,77.28
731.00,76.72
730.00,76.26
729.00,75.90
728.00,75.67
727.00,75.55
726.00,75.54
725.00,75.60
724.00,75.69
723.00,75.77
722.00,75.84
721.00,75.87
720.00,75.86
719.00,75.84
718.00,75.80
717.00,75.74
716.00,75.68
715.00,75.61
714.00,75.54
713.00,75.45
712.00,75.30
711.00,75.12
710.00,74.94
709.00,74.78
708.00,74.63
707.00,74.50
706.00,74.36
705.00,74.21
704.00,74.03
703.00,73.80
702.00,73.53
701.00,73.22
700.00,72.87
699.00,72.53
698.00,72.21
697.00,71.90
696.00,71.57
695.00,71.21
694.00,70.83
693.00,70.45
692.00,70.08
691.00,69.77
690.00,69.51
689.00,69.30
688.00,69.10
687.00,68.91
686.00,68.75
685.00,68.64
684.00,68.57
683.00,68.56
682.00,68.57
681.00,68.57
680.00,68.58
679.00,68.65
678.00,68.79
677.00,68.94
676.00,69.08
675.00,69.21
674.00,69.35
673.00,69.51
672.00,69.70
671.00,69.93
670.00,70.22
669.00,70.56
668.00,70.86
667.00,71.04
666.00,71.17
665.00,71.32
664.00,71.52
663.00,71.76
662.00,72.03
661.00,72.29
660.00,72.52
659.00,72.73
658.00,72.93
657.00,73.13
656.00,73.33
655.00,73.54
654.00,73.78
653.00,74.03
652.00,74.27
651.00,74.49
650.00,74.69
649.00,74.86
648.00,75.01
647.00,75.14
646.00,75.25
645.00,75.37
644.00,75.47
643.00,75.51
642.00,75.51
641.00,75.54
640.00,75.63
639.00,75.77
638.00,75.87
637.00,75.90
636.00,75.92
635.00,76.02
634.00,76.20
633.00,76.38
632.00,76.47
631.00,76.49
630.00,76.50
629.00,76.52
628.00,76.52
627.00,76.52
626.00,76.57
625.00,76.67
624.00,76.79
623.00,76.89
622.00,77.02
621.00,77.18
620.00,77.29
619.00,77.19
618.00,76.87
617.00,76.43
616.00,76.05
615.00,75.85
614.00,75.92
613.00,76.21
612.00,76.56
611.00,76.80
610.00,76.83
609.00,76.70
608.00,76.48
607.00,76.25
606.00,76.06
605.00,75.89
604.00,75.56
603.00,74.86
602.00,73.82
601.00,72.87
600.00,72.52
599.00,72.87
598.00,73.53
597.00,73.99
596.00,74.15
595.00,74.13
594.00,73.93
593.00,73.46
592.00,72.80
591.00,72.23
590.00,71.89
589.00,71.60
588.00,71.23
587.00,70.84
586.00,70.47
585.00,69.97
584.00,69.25
583.00,68.42
582.00,67.54
581.00,66.52
580.00,65.58
579.00,65.22
578.00,65.58
577.00,66.03
576.00,66.06
575.00,65.93
574.00,66.12
573.00,66.62
572.00,67.17
571.00,67.65
570.00,68.03
569.00,68.19
568.00,68.14
567.00,68.09
566.00,68.28
565.00,68.74
564.00,69.56
563.00,70.73
562.00,71.87
561.00,72.44
560.00,72.40
559.00,72.18
558.00,72.18
557.00,72.30
556.00,72.30
555.00,72.18
554.00,72.14
553.00,72.26
552.00,72.50
551.00,72.71
550.00,72.81
