Created as New Dataset,80. Nylon Allied Signal Fibers Dyed
cm-1,%T
4000.00,100.06
3999.00,100.05
3998.00,100.04
3997.00,100.03
3996.00,100.01
3995.00,100.00
3994.00,99.99
3993.00,100.00
3992.00,100.02
3991.00,100.04
3990.00,100.05
3989.00,100.05
3988.00,100.04
3987.00,100.04
3986.00,100.04
3985.00,100.05
3984.00,100.06
3983.00,100.06
3982.00,100.07
3981.00,100.07
3980.00,100.07
3979.00,100.05
3978.00,100.04
3977.00,100.02
3976.00,100.01
3975.00,100.01
3974.00,100.03
3973.00,100.05
3972.00,100.07
3971.00,100.07
3970.00,100.05
3969.00,100.03
3968.00,100.02
3967.00,100.03
3966.00,100.05
3965.00,100.08
3964.00,100.09
3963.00,100.09
3962.00,100.08
3961.00,100.07
3960.00,100.06
3959.00,100.06
3958.00,100.07
3957.00,100.07
3956.00,100.07
3955.00,100.07
3954.00,100.06
3953.00,100.05
3952.00,100.04
3951.00,100.03
3950.00,100.03
3949.00,100.04
3948.00,100.06
3947.00,100.07
3946.00,100.07
3945.00,100.06
3944.00,100.06
3943.00,100.06
3942.00,100.05
3941.00,100.05
3940.00,100.04
3939.00,100.02
3938.00,100.02
3937.00,100.03
3936.00,100.03
3935.00,100.05
3934.00,100.06
3933.00,100.08
3932.00,100.07
3931.00,100.06
3930.00,100.05
3929.00,100.05
3928.00,100.05
3927.00,100.06
3926.00,100.06
3925.00,100.05
3924.00,100.02
3923.00,99.98
3922.00,99.95
3921.00,99.94
3920.00,99.96
3919.00,99.99
3918.00,100.00
3917.00,99.99
3916.00,99.98
3915.00,99.97
3914.00,99.96
3913.00,99.98
3912.00,100.01
3911.00,100.04
3910.00,100.07
3909.00,100.09
3908.00,100.10
3907.00,100.10
3906.00,100.08
3905.00,100.05
3904.00,100.01
3903.00,99.97
3902.00,99.93
3901.00,99.92
3900.00,99.93
3899.00,99.94
3898.00,99.94
3897.00,99.94
3896.00,99.93
3895.00,99.92
3894.00,99.92
3893.00,99.92
3892.00,99.94
3891.00,99.96
3890.00,99.96
3889.00,99.94
3888.00,99.92
3887.00,99.93
3886.00,99.95
3885.00,99.96
3884.00,99.94
3883.00,99.92
3882.00,99.92
3881.00,99.95
3880.00,99.98
3879.00,99.99
3878.00,99.99
3877.00,99.99
3876.00,100.01
3875.00,100.04
3874.00,100.04
3873.00,100.01
3872.00,99.97
3871.00,99.97
3870.00,99.98
3869.00,99.97
3868.00,99.92
3867.00,99.88
3866.00,99.87
3865.00,99.90
3864.00,99.92
3863.00,99.92
3862.00,99.91
3861.00,99.91
3860.00,99.93
3859.00,99.94
3858.00,99.94
3857.00,99.91
3856.00,99.88
3855.00,99.85
3854.00,99.83
3853.00,99.80
3852.00,99.77
3851.00,99.78
3850.00,99.82
3849.00,99.88
3848.00,99.93
3847.00,99.97
3846.00,99.99
3845.00,100.01
3844.00,100.02
3843.00,100.02
3842.00,100.00
3841.00,99.97
3840.00,99.94
3839.00,99.92
3838.00,99.89
3837.00,99.87
3836.00,99.85
3835.00,99.85
3834.00,99.86
3833.00,99.88
3832.00,99.91
3831.00,99.93
3830.00,99.93
3829.00,99.94
3828.00,99.95
3827.00,99.96
3826.00,99.96
3825.00,99.94
3824.00,99.91
3823.00,99.88
3822.00,99.88
3821.00,99.87
3820.00,99.84
3819.00,99.80
3818.00,99.78
3817.00,99.80
3816.00,99.84
3815.00,99.85
3814.00,99.85
3813.00,99.87
3812.00,99.91
3811.00,99.94
3810.00,99.95
3809.00,99.94
3808.00,99.94
3807.00,99.95
3806.00,99.95
3805.00,99.93
3804.00,99.89
3803.00,99.89
3802.00,99.91
3801.00,99.92
3800.00,99.89
3799.00,99.85
3798.00,99.86
3797.00,99.90
3796.00,99.96
3795.00,99.99
3794.00,99.99
3793.00,99.98
3792.00,99.96
3791.00,99.96
3790.00,99.95
3789.00,99.95
3788.00,99.95
3787.00,99.97
3786.00,99.99
3785.00,100.00
3784.00,100.00
3783.00,99.99
3782.00,99.97
3781.00,99.96
3780.00,99.96
3779.00,99.97
3778.00,99.96
3777.00,99.95
3776.00,99.95
3775.00,99.97
3774.00,99.98
3773.00,99.98
3772.00,99.97
3771.00,99.96
3770.00,99.96
3769.00,99.95
3768.00,99.94
3767.00,99.94
3766.00,99.95
3765.00,99.96
3764.00,99.94
3763.00,99.91
3762.00,99.89
3761.00,99.91
3760.00,99.93
3759.00,99.95
3758.00,99.94
3757.00,99.92
3756.00,99.89
3755.00,99.86
3754.00,99.84
3753.00,99.85
3752.00,99.87
3751.00,99.87
3750.00,99.86
3749.00,99.83
3748.00,99.77
3747.00,99.70
3746.00,99.66
3745.00,99.68
3744.00,99.71
3743.00,99.72
3742.00,99.72
3741.00,99.74
3740.00,99.78
3739.00,99.82
3738.00,99.84
3737.00,99.84
3736.00,99.82
3735.00,99.79
3734.00,99.76
3733.00,99.76
3732.00,99.80
3731.00,99.84
3730.00,99.86
3729.00,99.86
3728.00,99.86
3727.00,99.87
3726.00,99.89
3725.00,99.89
3724.00,99.88
3723.00,99.88
3722.00,99.89
3721.00,99.92
3720.00,99.95
3719.00,99.97
3718.00,99.97
3717.00,99.95
3716.00,99.91
3715.00,99.86
3714.00,99.83
3713.00,99.83
3712.00,99.84
3711.00,99.83
3710.00,99.81
3709.00,99.80
3708.00,99.81
3707.00,99.82
3706.00,99.84
3705.00,99.86
3704.00,99.88
3703.00,99.90
3702.00,99.91
3701.00,99.92
3700.00,99.92
3699.00,99.91
3698.00,99.92
3697.00,99.94
3696.00,99.95
3695.00,99.96
3694.00,99.98
3693.00,99.99
3692.00,99.99
3691.00,99.95
3690.00,99.89
3689.00,99.83
3688.00,99.80
3687.00,99.80
3686.00,99.81
3685.00,99.84
3684.00,99.89
3683.00,99.92
3682.00,99.93
3681.00,99.92
3680.00,99.88
3679.00,99.82
3678.00,99.77
3677.00,99.75
3676.00,99.75
3675.00,99.74
3674.00,99.69
3673.00,99.64
3672.00,99.61
3671.00,99.64
3670.00,99.69
3669.00,99.73
3668.00,99.75
3667.00,99.76
3666.00,99.78
3665.00,99.81
3664.00,99.85
3663.00,99.88
3662.00,99.88
3661.00,99.86
3660.00,99.82
3659.00,99.79
3658.00,99.77
3657.00,99.77
3656.00,99.77
3655.00,99.76
3654.00,99.73
3653.00,99.69
3652.00,99.66
3651.00,99.64
3650.00,99.62
3649.00,99.60
3648.00,99.61
3647.00,99.64
3646.00,99.69
3645.00,99.72
3644.00,99.75
3643.00,99.78
3642.00,99.81
3641.00,99.82
3640.00,99.82
3639.00,99.80
3638.00,99.78
3637.00,99.75
3636.00,99.73
3635.00,99.72
3634.00,99.73
3633.00,99.72
3632.00,99.71
3631.00,99.71
3630.00,99.71
3629.00,99.69
3628.00,99.64
3627.00,99.60
3626.00,99.60
3625.00,99.63
3624.00,99.66
3623.00,99.68
3622.00,99.69
3621.00,99.68
3620.00,99.68
3619.00,99.67
3618.00,99.66
3617.00,99.64
3616.00,99.61
3615.00,99.59
3614.00,99.58
3613.00,99.58
3612.00,99.57
3611.00,99.58
3610.00,99.61
3609.00,99.64
3608.00,99.65
3607.00,99.62
3606.00,99.58
3605.00,99.55
3604.00,99.54
3603.00,99.56
3602.00,99.58
3601.00,99.58
3600.00,99.56
3599.00,99.53
3598.00,99.52
3597.00,99.53
3596.00,99.54
3595.00,99.54
3594.00,99.53
3593.00,99.52
3592.00,99.52
3591.00,99.52
3590.00,99.54
3589.00,99.57
3588.00,99.58
3587.00,99.58
3586.00,99.57
3585.00,99.56
3584.00,99.57
3583.00,99.58
3582.00,99.59
3581.00,99.59
3580.00,99.57
3579.00,99.55
3578.00,99.51
3577.00,99.48
3576.00,99.46
3575.00,99.45
3574.00,99.45
3573.00,99.45
3572.00,99.43
3571.00,99.41
3570.00,99.38
3569.00,99.37
3568.00,99.36
3567.00,99.34
3566.00,99.33
3565.00,99.32
3564.00,99.32
3563.00,99.33
3562.00,99.35
3561.00,99.37
3560.00,99.39
3559.00,99.41
3558.00,99.42
3557.00,99.41
3556.00,99.40
3555.00,99.37
3554.00,99.33
3553.00,99.30
3552.00,99.28
3551.00,99.28
3550.00,99.29
3549.00,99.30
3548.00,99.31
3547.00,99.29
3546.00,99.25
3545.00,99.23
3544.00,99.22
3543.00,99.24
3542.00,99.26
3541.00,99.25
3540.00,99.24
3539.00,99.21
3538.00,99.19
3537.00,99.17
3536.00,99.15
3535.00,99.14
3534.00,99.13
3533.00,99.13
3532.00,99.13
3531.00,99.13
3530.00,99.13
3529.00,99.11
3528.00,99.08
3527.00,99.06
3526.00,99.04
3525.00,99.05
3524.00,99.06
3523.00,99.07
3522.00,99.08
3521.00,99.07
3520.00,99.06
3519.00,99.06
3518.00,99.06
3517.00,99.08
3516.00,99.08
3515.00,99.07
3514.00,99.04
3513.00,99.01
3512.00,99.01
3511.00,99.02
3510.00,99.03
3509.00,99.03
3508.00,99.02
3507.00,99.00
3506.00,98.99
3505.00,98.98
3504.00,98.99
3503.00,99.01
3502.00,99.03
3501.00,99.03
3500.00,99.02
3499.00,99.00
3498.00,98.97
3497.00,98.95
3496.00,98.95
3495.00,98.95
3494.00,98.96
3493.00,98.97
3492.00,98.96
3491.00,98.95
3490.00,98.92
3489.00,98.89
3488.00,98.85
3487.00,98.83
3486.00,98.82
3485.00,98.82
3484.00,98.84
3483.00,98.86
3482.00,98.87
3481.00,98.87
3480.00,98.86
3479.00,98.84
3478.00,98.83
3477.00,98.83
3476.00,98.83
3475.00,98.83
3474.00,98.83
3473.00,98.82
3472.00,98.82
3471.00,98.81
3470.00,98.81
3469.00,98.80
3468.00,98.79
3467.00,98.77
3466.00,98.75
3465.00,98.72
3464.00,98.71
3463.00,98.72
3462.00,98.74
3461.00,98.76
3460.00,98.77
3459.00,98.75
3458.00,98.73
3457.00,98.70
3456.00,98.69
3455.00,98.68
3454.00,98.67
3453.00,98.66
3452.00,98.66
3451.00,98.66
3450.00,98.66
3449.00,98.66
3448.00,98.65
3447.00,98.64
3446.00,98.64
3445.00,98.65
3444.00,98.66
3443.00,98.67
3442.00,98.66
3441.00,98.65
3440.00,98.63
3439.00,98.61
3438.00,98.59
3437.00,98.58
3436.00,98.57
3435.00,98.56
3434.00,98.56
3433.00,98.56
3432.00,98.54
3431.00,98.54
3430.00,98.54
3429.00,98.56
3428.00,98.58
3427.00,98.59
3426.00,98.60
3425.00,98.60
3424.00,98.59
3423.00,98.58
3422.00,98.56
3421.00,98.54
3420.00,98.54
3419.00,98.54
3418.00,98.53
3417.00,98.52
3416.00,98.49
3415.00,98.46
3414.00,98.44
3413.00,98.43
3412.00,98.43
3411.00,98.44
3410.00,98.44
3409.00,98.44
3408.00,98.44
3407.00,98.44
3406.00,98.44
3405.00,98.44
3404.00,98.45
3403.00,98.45
3402.00,98.45
3401.00,98.43
3400.00,98.40
3399.00,98.36
3398.00,98.33
3397.00,98.31
3396.00,98.30
3395.00,98.30
3394.00,98.31
3393.00,98.31
3392.00,98.29
3391.00,98.26
3390.00,98.24
3389.00,98.23
3388.00,98.23
3387.00,98.23
3386.00,98.23
3385.00,98.23
3384.00,98.22
3383.00,98.19
3382.00,98.15
3381.00,98.12
3380.00,98.09
3379.00,98.07
3378.00,98.05
3377.00,98.02
3376.00,97.98
3375.00,97.95
3374.00,97.92
3373.00,97.91
3372.00,97.91
3371.00,97.92
3370.00,97.91
3369.00,97.90
3368.00,97.87
3367.00,97.85
3366.00,97.81
3365.00,97.77
3364.00,97.73
3363.00,97.68
3362.00,97.64
3361.00,97.62
3360.00,97.61
3359.00,97.60
3358.00,97.59
3357.00,97.55
3356.00,97.50
3355.00,97.43
3354.00,97.37
3353.00,97.32
3352.00,97.29
3351.00,97.26
3350.00,97.22
3349.00,97.16
3348.00,97.08
3347.00,97.01
3346.00,96.95
3345.00,96.90
3344.00,96.85
3343.00,96.78
3342.00,96.70
3341.00,96.60
3340.00,96.51
3339.00,96.43
3338.00,96.34
3337.00,96.25
3336.00,96.16
3335.00,96.06
3334.00,95.97
3333.00,95.87
3332.00,95.75
3331.00,95.62
3330.00,95.47
3329.00,95.33
3328.00,95.20
3327.00,95.07
3326.00,94.92
3325.00,94.75
3324.00,94.56
3323.00,94.36
3322.00,94.15
3321.00,93.95
3320.00,93.76
3319.00,93.58
3318.00,93.40
3317.00,93.22
3316.00,93.04
3315.00,92.85
3314.00,92.66
3313.00,92.45
3312.00,92.22
3311.00,91.96
3310.00,91.67
3309.00,91.38
3308.00,91.07
3307.00,90.74
3306.00,90.39
3305.00,90.04
3304.00,89.69
3303.00,89.36
3302.00,89.08
3301.00,88.82
3300.00,88.59
3299.00,88.39
3298.00,88.21
3297.00,88.08
3296.00,88.01
3295.00,87.98
3294.00,87.99
3293.00,88.03
3292.00,88.12
3291.00,88.24
3290.00,88.39
3289.00,88.58
3288.00,88.78
3287.00,88.99
3286.00,89.21
3285.00,89.43
3284.00,89.66
3283.00,89.88
3282.00,90.11
3281.00,90.34
3280.00,90.56
3279.00,90.79
3278.00,91.01
3277.00,91.21
3276.00,91.39
3275.00,91.55
3274.00,91.72
3273.00,91.88
3272.00,92.04
3271.00,92.20
3270.00,92.35
3269.00,92.51
3268.00,92.66
3267.00,92.80
3266.00,92.95
3265.00,93.09
3264.00,93.24
3263.00,93.37
3262.00,93.51
3261.00,93.64
3260.00,93.77
3259.00,93.90
3258.00,94.03
3257.00,94.15
3256.00,94.26
3255.00,94.35
3254.00,94.45
3253.00,94.54
3252.00,94.63
3251.00,94.73
3250.00,94.83
3249.00,94.93
3248.00,95.03
3247.00,95.13
3246.00,95.22
3245.00,95.31
3244.00,95.40
3243.00,95.48
3242.00,95.57
3241.00,95.64
3240.00,95.71
3239.00,95.78
3238.00,95.84
3237.00,95.91
3236.00,95.99
3235.00,96.06
3234.00,96.13
3233.00,96.18
3232.00,96.23
3231.00,96.27
3230.00,96.32
3229.00,96.37
3228.00,96.42
3227.00,96.46
3226.00,96.50
3225.00,96.52
3224.00,96.55
3223.00,96.57
3222.00,96.61
3221.00,96.66
3220.00,96.72
3219.00,96.77
3218.00,96.81
3217.00,96.82
3216.00,96.83
3215.00,96.82
3214.00,96.82
3213.00,96.82
3212.00,96.83
3211.00,96.86
3210.00,96.88
3209.00,96.89
3208.00,96.89
3207.00,96.88
3206.00,96.89
3205.00,96.91
3204.00,96.93
3203.00,96.96
3202.00,96.98
3201.00,97.00
3200.00,97.02
3199.00,97.05
3198.00,97.08
3197.00,97.11
3196.00,97.12
3195.00,97.13
3194.00,97.13
3193.00,97.15
3192.00,97.17
3191.00,97.19
3190.00,97.22
3189.00,97.25
3188.00,97.28
3187.00,97.31
3186.00,97.33
3185.00,97.34
3184.00,97.35
3183.00,97.37
3182.00,97.39
3181.00,97.42
3180.00,97.45
3179.00,97.48
3178.00,97.51
3177.00,97.54
3176.00,97.59
3175.00,97.64
3174.00,97.68
3173.00,97.72
3172.00,97.75
3171.00,97.77
3170.00,97.78
3169.00,97.80
3168.00,97.83
3167.00,97.88
3166.00,97.92
3165.00,97.95
3164.00,97.97
3163.00,97.98
3162.00,98.00
3161.00,98.02
3160.00,98.03
3159.00,98.05
3158.00,98.07
3157.00,98.09
3156.00,98.13
3155.00,98.16
3154.00,98.19
3153.00,98.20
3152.00,98.20
3151.00,98.20
3150.00,98.22
3149.00,98.26
3148.00,98.28
3147.00,98.28
3146.00,98.27
3145.00,98.26
3144.00,98.26
3143.00,98.26
3142.00,98.27
3141.00,98.29
3140.00,98.31
3139.00,98.33
3138.00,98.35
3137.00,98.37
3136.00,98.37
3135.00,98.35
3134.00,98.34
3133.00,98.33
3132.00,98.32
3131.00,98.31
3130.00,98.31
3129.00,98.29
3128.00,98.28
3127.00,98.27
3126.00,98.28
3125.00,98.30
3124.00,98.32
3123.00,98.32
3122.00,98.29
3121.00,98.25
3120.00,98.22
3119.00,98.21
3118.00,98.22
3117.00,98.23
3116.00,98.22
3115.00,98.21
3114.00,98.18
3113.00,98.16
3112.00,98.15
3111.00,98.13
3110.00,98.10
3109.00,98.08
3108.00,98.05
3107.00,98.03
3106.00,98.00
3105.00,97.98
3104.00,97.96
3103.00,97.93
3102.00,97.90
3101.00,97.87
3100.00,97.84
3099.00,97.80
3098.00,97.75
3097.00,97.71
3096.00,97.69
3095.00,97.67
3094.00,97.67
3093.00,97.67
3092.00,97.66
3091.00,97.66
3090.00,97.65
3089.00,97.64
3088.00,97.62
3087.00,97.60
3086.00,97.57
3085.00,97.54
3084.00,97.52
3083.00,97.50
3082.00,97.49
3081.00,97.49
3080.00,97.47
3079.00,97.45
3078.00,97.44
3077.00,97.42
3076.00,97.41
3075.00,97.40
3074.00,97.39
3073.00,97.38
3072.00,97.38
3071.00,97.37
3070.00,97.36
3069.00,97.35
3068.00,97.34
3067.00,97.32
3066.00,97.31
3065.00,97.31
3064.00,97.32
3063.00,97.34
3062.00,97.35
3061.00,97.36
3060.00,97.37
3059.00,97.39
3058.00,97.42
3057.00,97.46
3056.00,97.49
3055.00,97.53
3054.00,97.56
3053.00,97.60
3052.00,97.64
3051.00,97.69
3050.00,97.73
3049.00,97.77
3048.00,97.82
3047.00,97.87
3046.00,97.94
3045.00,98.01
3044.00,98.07
3043.00,98.12
3042.00,98.15
3041.00,98.19
3040.00,98.22
3039.00,98.26
3038.00,98.32
3037.00,98.37
3036.00,98.41
3035.00,98.44
3034.00,98.46
3033.00,98.48
3032.00,98.50
3031.00,98.53
3030.00,98.55
3029.00,98.57
3028.00,98.58
3027.00,98.59
3026.00,98.60
3025.00,98.62
3024.00,98.63
3023.00,98.63
3022.00,98.64
3021.00,98.65
3020.00,98.66
3019.00,98.68
3018.00,98.69
3017.00,98.70
3016.00,98.69
3015.00,98.67
3014.00,98.65
3013.00,98.65
3012.00,98.66
3011.00,98.68
3010.00,98.69
3009.00,98.68
3008.00,98.67
3007.00,98.65
3006.00,98.63
3005.00,98.61
3004.00,98.60
3003.00,98.60
3002.00,98.61
3001.00,98.63
3000.00,98.64
2999.00,98.64
2998.00,98.62
2997.00,98.60
2996.00,98.59
2995.00,98.58
2994.00,98.57
2993.00,98.56
2992.00,98.55
2991.00,98.54
2990.00,98.54
2989.00,98.52
2988.00,98.49
2987.00,98.46
2986.00,98.41
2985.00,98.37
2984.00,98.33
2983.00,98.29
2982.00,98.25
2981.00,98.21
2980.00,98.17
2979.00,98.13
2978.00,98.08
2977.00,98.02
2976.00,97.94
2975.00,97.86
2974.00,97.76
2973.00,97.67
2972.00,97.58
2971.00,97.47
2970.00,97.36
2969.00,97.24
2968.00,97.12
2967.00,97.00
2966.00,96.88
2965.00,96.76
2964.00,96.64
2963.00,96.52
2962.00,96.39
2961.00,96.25
2960.00,96.10
2959.00,95.93
2958.00,95.75
2957.00,95.53
2956.00,95.29
2955.00,95.01
2954.00,94.72
2953.00,94.41
2952.00,94.07
2951.00,93.72
2950.00,93.35
2949.00,92.99
2948.00,92.64
2947.00,92.31
2946.00,92.01
2945.00,91.75
2944.00,91.52
2943.00,91.34
2942.00,91.20
2941.00,91.08
2940.00,90.98
2939.00,90.89
2938.00,90.81
2937.00,90.74
2936.00,90.69
2935.00,90.67
2934.00,90.70
2933.00,90.76
2932.00,90.85
2931.00,90.95
2930.00,91.06
2929.00,91.20
2928.00,91.35
2927.00,91.50
2926.00,91.65
2925.00,91.79
2924.00,91.94
2923.00,92.09
2922.00,92.25
2921.00,92.41
2920.00,92.57
2919.00,92.72
2918.00,92.88
2917.00,93.04
2916.00,93.19
2915.00,93.34
2914.00,93.48
2913.00,93.61
2912.00,93.74
2911.00,93.85
2910.00,93.95
2909.00,94.05
2908.00,94.13
2907.00,94.21
2906.00,94.28
2905.00,94.33
2904.00,94.35
2903.00,94.37
2902.00,94.37
2901.00,94.37
2900.00,94.40
2899.00,94.45
2898.00,94.52
2897.00,94.62
2896.00,94.74
2895.00,94.87
2894.00,95.01
2893.00,95.15
2892.00,95.28
2891.00,95.38
2890.00,95.46
2889.00,95.52
2888.00,95.56
2887.00,95.58
2886.00,95.58
2885.00,95.55
2884.00,95.48
2883.00,95.40
2882.00,95.29
2881.00,95.16
2880.00,94.99
2879.00,94.80
2878.00,94.59
2877.00,94.38
2876.00,94.18
2875.00,93.97
2874.00,93.78
2873.00,93.60
2872.00,93.43
2871.00,93.29
2870.00,93.18
2869.00,93.09
2868.00,93.03
2867.00,93.00
2866.00,93.00
2865.00,93.02
2864.00,93.06
2863.00,93.11
2862.00,93.16
2861.00,93.22
2860.00,93.30
2859.00,93.38
2858.00,93.47
2857.00,93.57
2856.00,93.67
2855.00,93.78
2854.00,93.89
2853.00,94.02
2852.00,94.18
2851.00,94.37
2850.00,94.60
2849.00,94.85
2848.00,95.13
2847.00,95.43
2846.00,95.73
2845.00,96.01
2844.00,96.26
2843.00,96.49
2842.00,96.68
2841.00,96.85
2840.00,97.00
2839.00,97.14
2838.00,97.26
2837.00,97.36
2836.00,97.45
2835.00,97.53
2834.00,97.59
2833.00,97.63
2832.00,97.67
2831.00,97.70
2830.00,97.73
2829.00,97.76
2828.00,97.81
2827.00,97.86
2826.00,97.91
2825.00,97.94
2824.00,97.96
2823.00,97.96
2822.00,97.97
2821.00,97.97
2820.00,97.99
2819.00,98.01
2818.00,98.03
2817.00,98.07
2816.00,98.11
2815.00,98.15
2814.00,98.19
2813.00,98.21
2812.00,98.23
2811.00,98.25
2810.00,98.28
2809.00,98.31
2808.00,98.34
2807.00,98.36
2806.00,98.37
2805.00,98.37
2804.00,98.36
2803.00,98.36
2802.00,98.37
2801.00,98.39
2800.00,98.41
2799.00,98.44
2798.00,98.46
2797.00,98.49
2796.00,98.51
2795.00,98.54
2794.00,98.55
2793.00,98.57
2792.00,98.58
2791.00,98.58
2790.00,98.58
2789.00,98.58
2788.00,98.58
2787.00,98.59
2786.00,98.60
2785.00,98.61
2784.00,98.60
2783.00,98.60
2782.00,98.62
2781.00,98.64
2780.00,98.67
2779.00,98.69
2778.00,98.70
2777.00,98.70
2776.00,98.70
2775.00,98.71
2774.00,98.72
2773.00,98.73
2772.00,98.74
2771.00,98.75
2770.00,98.76
2769.00,98.77
2768.00,98.79
2767.00,98.80
2766.00,98.81
2765.00,98.81
2764.00,98.81
2763.00,98.82
2762.00,98.82
2761.00,98.82
2760.00,98.81
2759.00,98.80
2758.00,98.80
2757.00,98.79
2756.00,98.79
2755.00,98.79
2754.00,98.79
2753.00,98.80
2752.00,98.80
2751.00,98.80
2750.00,98.79
2749.00,98.79
2748.00,98.78
2747.00,98.78
2746.00,98.78
2745.00,98.79
2744.00,98.80
2743.00,98.81
2742.00,98.82
2741.00,98.82
2740.00,98.82
2739.00,98.82
2738.00,98.83
2737.00,98.84
2736.00,98.85
2735.00,98.85
2734.00,98.85
2733.00,98.85
2732.00,98.85
2731.00,98.87
2730.00,98.89
2729.00,98.91
2728.00,98.93
2727.00,98.95
2726.00,98.96
2725.00,98.97
2724.00,98.98
2723.00,99.00
2722.00,99.01
2721.00,99.00
2720.00,99.00
2719.00,98.99
2718.00,99.01
2717.00,99.03
2716.00,99.05
2715.00,99.06
2714.00,99.06
2713.00,99.06
2712.00,99.05
2711.00,99.05
2710.00,99.05
2709.00,99.05
2708.00,99.05
2707.00,99.05
2706.00,99.06
2705.00,99.07
2704.00,99.08
2703.00,99.10
2702.00,99.11
2701.00,99.12
2700.00,99.13
2699.00,99.14
2698.00,99.14
2697.00,99.13
2696.00,99.12
2695.00,99.12
2694.00,99.13
2693.00,99.14
2692.00,99.15
2691.00,99.15
2690.00,99.15
2689.00,99.15
2688.00,99.16
2687.00,99.17
2686.00,99.17
2685.00,99.18
2684.00,99.19
2683.00,99.19
2682.00,99.20
2681.00,99.19
2680.00,99.18
2679.00,99.17
2678.00,99.16
2677.00,99.16
2676.00,99.16
2675.00,99.17
2674.00,99.18
2673.00,99.20
2672.00,99.20
2671.00,99.21
2670.00,99.21
2669.00,99.22
2668.00,99.22
2667.00,99.21
2666.00,99.21
2665.00,99.20
2664.00,99.18
2663.00,99.17
2662.00,99.16
2661.00,99.16
2660.00,99.16
2659.00,99.16
2658.00,99.16
2657.00,99.15
2656.00,99.15
2655.00,99.16
2654.00,99.17
2653.00,99.18
2652.00,99.18
2651.00,99.16
2650.00,99.15
2649.00,99.14
2648.00,99.13
2647.00,99.13
2646.00,99.13
2645.00,99.13
2644.00,99.13
2643.00,99.14
2642.00,99.14
2641.00,99.13
2640.00,99.12
2639.00,99.11
2638.00,99.10
2637.00,99.11
2636.00,99.11
2635.00,99.11
2634.00,99.12
2633.00,99.12
2632.00,99.13
2631.00,99.13
2630.00,99.12
2629.00,99.11
2628.00,99.11
2627.00,99.11
2626.00,99.12
2625.00,99.12
2624.00,99.11
2623.00,99.10
2622.00,99.09
2621.00,99.09
2620.00,99.10
2619.00,99.11
2618.00,99.11
2617.00,99.10
2616.00,99.10
2615.00,99.10
2614.00,99.10
2613.00,99.10
2612.00,99.10
2611.00,99.09
2610.00,99.08
2609.00,99.07
2608.00,99.07
2607.00,99.07
2606.00,99.07
2605.00,99.06
2604.00,99.05
2603.00,99.05
2602.00,99.05
2601.00,99.04
2600.00,99.04
2599.00,99.04
2598.00,99.05
2597.00,99.07
2596.00,99.09
2595.00,99.09
2594.00,99.09
2593.00,99.09
2592.00,99.09
2591.00,99.09
2590.00,99.08
2589.00,99.06
2588.00,99.05
2587.00,99.06
2586.00,99.08
2585.00,99.10
2584.00,99.10
2583.00,99.09
2582.00,99.08
2581.00,99.08
2580.00,99.09
2579.00,99.10
2578.00,99.11
2577.00,99.10
2576.00,99.09
2575.00,99.10
2574.00,99.11
2573.00,99.12
2572.00,99.11
2571.00,99.09
2570.00,99.07
2569.00,99.06
2568.00,99.08
2567.00,99.11
2566.00,99.13
2565.00,99.13
2564.00,99.12
2563.00,99.12
2562.00,99.12
2561.00,99.12
2560.00,99.11
2559.00,99.10
2558.00,99.09
2557.00,99.08
2556.00,99.08
2555.00,99.07
2554.00,99.07
2553.00,99.07
2552.00,99.08
2551.00,99.09
2550.00,99.10
2549.00,99.11
2548.00,99.11
2547.00,99.12
2546.00,99.12
2545.00,99.11
2544.00,99.11
2543.00,99.10
2542.00,99.09
2541.00,99.09
2540.00,99.10
2539.00,99.11
2538.00,99.10
2537.00,99.08
2536.00,99.06
2535.00,99.05
2534.00,99.07
2533.00,99.08
2532.00,99.09
2531.00,99.11
2530.00,99.13
2529.00,99.15
2528.00,99.15
2527.00,99.15
2526.00,99.13
2525.00,99.12
2524.00,99.12
2523.00,99.13
2522.00,99.14
2521.00,99.13
2520.00,99.13
2519.00,99.12
2518.00,99.12
2517.00,99.12
2516.00,99.14
2515.00,99.16
2514.00,99.17
2513.00,99.19
2512.00,99.20
2511.00,99.20
2510.00,99.20
2509.00,99.20
2508.00,99.20
2507.00,99.19
2506.00,99.19
2505.00,99.19
2504.00,99.20
2503.00,99.22
2502.00,99.24
2501.00,99.24
2500.00,99.22
2499.00,99.20
2498.00,99.20
2497.00,99.21
2496.00,99.23
2495.00,99.24
2494.00,99.25
2493.00,99.25
2492.00,99.25
2491.00,99.25
2490.00,99.25
2489.00,99.25
2488.00,99.24
2487.00,99.24
2486.00,99.22
2485.00,99.20
2484.00,99.19
2483.00,99.19
2482.00,99.20
2481.00,99.21
2480.00,99.23
2479.00,99.22
2478.00,99.20
2477.00,99.19
2476.00,99.19
2475.00,99.19
2474.00,99.19
2473.00,99.20
2472.00,99.22
2471.00,99.24
2470.00,99.26
2469.00,99.26
2468.00,99.24
2467.00,99.23
2466.00,99.23
2465.00,99.24
2464.00,99.24
2463.00,99.24
2462.00,99.23
2461.00,99.23
2460.00,99.22
2459.00,99.22
2458.00,99.23
2457.00,99.24
2456.00,99.24
2455.00,99.24
2454.00,99.25
2453.00,99.25
2452.00,99.26
2451.00,99.27
2450.00,99.28
2449.00,99.28
2448.00,99.27
2447.00,99.26
2446.00,99.25
2445.00,99.24
2444.00,99.24
2443.00,99.25
2442.00,99.25
2441.00,99.26
2440.00,99.26
2439.00,99.25
2438.00,99.23
2437.00,99.22
2436.00,99.24
2435.00,99.26
2434.00,99.27
2433.00,99.28
2432.00,99.29
2431.00,99.30
2430.00,99.32
2429.00,99.32
2428.00,99.33
2427.00,99.33
2426.00,99.33
2425.00,99.34
2424.00,99.34
2423.00,99.33
2422.00,99.33
2421.00,99.34
2420.00,99.35
2419.00,99.36
2418.00,99.36
2417.00,99.36
2416.00,99.34
2415.00,99.33
2414.00,99.33
2413.00,99.34
2412.00,99.36
2411.00,99.38
2410.00,99.39
2409.00,99.41
2408.00,99.41
2407.00,99.42
2406.00,99.42
2405.00,99.42
2404.00,99.41
2403.00,99.40
2402.00,99.40
2401.00,99.40
2400.00,99.40
2399.00,99.39
2398.00,99.37
2397.00,99.37
2396.00,99.38
2395.00,99.40
2394.00,99.42
2393.00,99.43
2392.00,99.43
2391.00,99.42
2390.00,99.41
2389.00,99.40
2388.00,99.38
2387.00,99.36
2386.00,99.35
2385.00,99.35
2384.00,99.36
2383.00,99.39
2382.00,99.42
2381.00,99.46
2380.00,99.49
2379.00,99.51
2378.00,99.50
2377.00,99.48
2376.00,99.45
2375.00,99.43
2374.00,99.43
2373.00,99.45
2372.00,99.49
2371.00,99.51
2370.00,99.50
2369.00,99.49
2368.00,99.47
2367.00,99.46
2366.00,99.46
2365.00,99.48
2364.00,99.54
2363.00,99.59
2362.00,99.59
2361.00,99.53
2360.00,99.45
2359.00,99.38
2358.00,99.33
2357.00,99.33
2356.00,99.37
2355.00,99.42
2354.00,99.45
2353.00,99.44
2352.00,99.43
2351.00,99.44
2350.00,99.46
2349.00,99.49
2348.00,99.53
2347.00,99.58
2346.00,99.59
2345.00,99.54
2344.00,99.46
2343.00,99.42
2342.00,99.40
2341.00,99.39
2340.00,99.39
2339.00,99.39
2338.00,99.38
2337.00,99.37
2336.00,99.36
2335.00,99.37
2334.00,99.39
2333.00,99.38
2332.00,99.36
2331.00,99.34
2330.00,99.34
2329.00,99.33
2328.00,99.30
2327.00,99.24
2326.00,99.17
2325.00,99.14
2324.00,99.16
2323.00,99.23
2322.00,99.29
2321.00,99.33
2320.00,99.35
2319.00,99.35
2318.00,99.34
2317.00,99.33
2316.00,99.31
2315.00,99.29
2314.00,99.26
2313.00,99.24
2312.00,99.22
2311.00,99.21
2310.00,99.21
2309.00,99.23
2308.00,99.25
2307.00,99.28
2306.00,99.30
2305.00,99.33
2304.00,99.37
2303.00,99.39
2302.00,99.38
2301.00,99.36
2300.00,99.33
2299.00,99.32
2298.00,99.32
2297.00,99.32
2296.00,99.33
2295.00,99.32
2294.00,99.30
2293.00,99.28
2292.00,99.29
2291.00,99.31
2290.00,99.31
2289.00,99.28
2288.00,99.25
2287.00,99.23
2286.00,99.24
2285.00,99.24
2284.00,99.24
2283.00,99.24
2282.00,99.23
2281.00,99.22
2280.00,99.21
2279.00,99.20
2278.00,99.19
2277.00,99.19
2276.00,99.19
2275.00,99.19
2274.00,99.19
2273.00,99.20
2272.00,99.20
2271.00,99.21
2270.00,99.20
2269.00,99.19
2268.00,99.17
2267.00,99.17
2266.00,99.18
2265.00,99.19
2264.00,99.19
2263.00,99.20
2262.00,99.19
2261.00,99.18
2260.00,99.15
2259.00,99.13
2258.00,99.13
2257.00,99.14
2256.00,99.15
2255.00,99.16
2254.00,99.17
2253.00,99.17
2252.00,99.17
2251.00,99.16
2250.00,99.15
2249.00,99.15
2248.00,99.15
2247.00,99.17
2246.00,99.19
2245.00,99.18
2244.00,99.15
2243.00,99.12
2242.00,99.11
2241.00,99.13
2240.00,99.15
2239.00,99.16
2238.00,99.15
2237.00,99.13
2236.00,99.13
2235.00,99.14
2234.00,99.15
2233.00,99.12
2232.00,99.08
2231.00,99.05
2230.00,99.06
2229.00,99.09
2228.00,99.12
2227.00,99.14
2226.00,99.14
2225.00,99.13
2224.00,99.11
2223.00,99.09
2222.00,99.05
2221.00,99.02
2220.00,99.03
2219.00,99.06
2218.00,99.11
2217.00,99.14
2216.00,99.13
2215.00,99.10
2214.00,99.06
2213.00,99.02
2212.00,98.97
2211.00,98.92
2210.00,98.88
2209.00,98.85
2208.00,98.84
2207.00,98.85
2206.00,98.85
2205.00,98.87
2204.00,98.90
2203.00,98.93
2202.00,98.92
2201.00,98.89
2200.00,98.88
2199.00,98.91
2198.00,98.93
2197.00,98.93
2196.00,98.90
2195.00,98.89
2194.00,98.90
2193.00,98.93
2192.00,98.95
2191.00,98.98
2190.00,98.98
2189.00,98.95
2188.00,98.91
2187.00,98.90
2186.00,98.90
2185.00,98.89
2184.00,98.86
2183.00,98.83
2182.00,98.78
2181.00,98.73
2180.00,98.70
2179.00,98.71
2178.00,98.75
2177.00,98.77
2176.00,98.77
2175.00,98.77
2174.00,98.81
2173.00,98.86
2172.00,98.89
2171.00,98.87
2170.00,98.81
2169.00,98.76
2168.00,98.71
2167.00,98.68
2166.00,98.66
2165.00,98.66
2164.00,98.66
2163.00,98.66
2162.00,98.62
2161.00,98.57
2160.00,98.57
2159.00,98.67
2158.00,98.85
2157.00,99.01
2156.00,99.13
2155.00,99.17
2154.00,99.15
2153.00,99.08
2152.00,98.99
2151.00,98.91
2150.00,98.86
2149.00,98.87
2148.00,98.94
2147.00,99.03
2146.00,99.11
2145.00,99.16
2144.00,99.18
2143.00,99.20
2142.00,99.19
2141.00,99.15
2140.00,99.09
2139.00,99.05
2138.00,99.05
2137.00,99.09
2136.00,99.16
2135.00,99.23
2134.00,99.30
2133.00,99.34
2132.00,99.35
2131.00,99.33
2130.00,99.34
2129.00,99.36
2128.00,99.39
2127.00,99.39
2126.00,99.35
2125.00,99.29
2124.00,99.25
2123.00,99.24
2122.00,99.26
2121.00,99.28
2120.00,99.29
2119.00,99.29
2118.00,99.27
2117.00,99.26
2116.00,99.23
2115.00,99.18
2114.00,99.13
2113.00,99.11
2112.00,99.11
2111.00,99.12
2110.00,99.14
2109.00,99.17
2108.00,99.20
2107.00,99.23
2106.00,99.25
2105.00,99.26
2104.00,99.25
2103.00,99.23
2102.00,99.20
2101.00,99.16
2100.00,99.15
2099.00,99.18
2098.00,99.22
2097.00,99.26
2096.00,99.29
2095.00,99.33
2094.00,99.37
2093.00,99.40
2092.00,99.41
2091.00,99.39
2090.00,99.37
2089.00,99.33
2088.00,99.30
2087.00,99.27
2086.00,99.25
2085.00,99.23
2084.00,99.22
2083.00,99.23
2082.00,99.24
2081.00,99.26
2080.00,99.26
2079.00,99.24
2078.00,99.20
2077.00,99.16
2076.00,99.13
2075.00,99.14
2074.00,99.19
2073.00,99.23
2072.00,99.25
2071.00,99.23
2070.00,99.18
2069.00,99.12
2068.00,99.09
2067.00,99.09
2066.00,99.11
2065.00,99.12
2064.00,99.12
2063.00,99.13
2062.00,99.15
2061.00,99.15
2060.00,99.14
2059.00,99.14
2058.00,99.14
2057.00,99.13
2056.00,99.13
2055.00,99.14
2054.00,99.14
2053.00,99.13
2052.00,99.11
2051.00,99.10
2050.00,99.09
2049.00,99.07
2048.00,99.05
2047.00,99.03
2046.00,99.01
2045.00,98.98
2044.00,98.94
2043.00,98.92
2042.00,98.93
2041.00,98.94
2040.00,98.95
2039.00,98.94
2038.00,98.93
2037.00,98.92
2036.00,98.92
2035.00,98.94
2034.00,98.97
2033.00,99.01
2032.00,99.04
2031.00,99.07
2030.00,99.07
2029.00,99.06
2028.00,99.04
2027.00,99.04
2026.00,99.03
2025.00,99.02
2024.00,99.01
2023.00,99.01
2022.00,99.00
2021.00,98.99
2020.00,98.98
2019.00,98.96
2018.00,98.94
2017.00,98.91
2016.00,98.90
2015.00,98.91
2014.00,98.94
2013.00,98.97
2012.00,98.98
2011.00,98.99
2010.00,98.99
2009.00,98.98
2008.00,98.98
2007.00,99.00
2006.00,99.04
2005.00,99.06
2004.00,99.05
2003.00,99.04
2002.00,99.04
2001.00,99.06
2000.00,99.10
1999.00,99.14
1998.00,99.19
1997.00,99.21
1996.00,99.21
1995.00,99.18
1994.00,99.15
1993.00,99.12
1992.00,99.10
1991.00,99.07
1990.00,99.03
1989.00,98.98
1988.00,98.92
1987.00,98.89
1986.00,98.90
1985.00,98.94
1984.00,98.98
1983.00,98.99
1982.00,98.98
1981.00,98.99
1980.00,99.03
1979.00,99.10
1978.00,99.14
1977.00,99.13
1976.00,99.10
1975.00,99.08
1974.00,99.08
1973.00,99.10
1972.00,99.13
1971.00,99.15
1970.00,99.14
1969.00,99.10
1968.00,99.06
1967.00,99.04
1966.00,99.05
1965.00,99.04
1964.00,99.03
1963.00,99.04
1962.00,99.09
1961.00,99.15
1960.00,99.18
1959.00,99.18
1958.00,99.18
1957.00,99.19
1956.00,99.19
1955.00,99.20
1954.00,99.20
1953.00,99.19
1952.00,99.20
1951.00,99.22
1950.00,99.25
1949.00,99.29
1948.00,99.32
1947.00,99.36
1946.00,99.38
1945.00,99.37
1944.00,99.34
1943.00,99.30
1942.00,99.28
1941.00,99.27
1940.00,99.28
1939.00,99.32
1938.00,99.37
1937.00,99.43
1936.00,99.46
1935.00,99.47
1934.00,99.47
1933.00,99.47
1932.00,99.46
1931.00,99.46
1930.00,99.45
1929.00,99.46
1928.00,99.49
1927.00,99.52
1926.00,99.54
1925.00,99.54
1924.00,99.52
1923.00,99.49
1922.00,99.46
1921.00,99.44
1920.00,99.45
1919.00,99.48
1918.00,99.53
1917.00,99.57
1916.00,99.59
1915.00,99.59
1914.00,99.58
1913.00,99.54
1912.00,99.51
1911.00,99.49
1910.00,99.50
1909.00,99.51
1908.00,99.51
1907.00,99.50
1906.00,99.49
1905.00,99.51
1904.00,99.53
1903.00,99.55
1902.00,99.57
1901.00,99.57
1900.00,99.58
1899.00,99.59
1898.00,99.61
1897.00,99.63
1896.00,99.64
1895.00,99.64
1894.00,99.64
1893.00,99.63
1892.00,99.62
1891.00,99.62
1890.00,99.61
1889.00,99.59
1888.00,99.59
1887.00,99.61
1886.00,99.64
1885.00,99.66
1884.00,99.66
1883.00,99.66
1882.00,99.65
1881.00,99.63
1880.00,99.62
1879.00,99.63
1878.00,99.66
1877.00,99.70
1876.00,99.72
1875.00,99.72
1874.00,99.72
1873.00,99.71
1872.00,99.69
1871.00,99.69
1870.00,99.68
1869.00,99.68
1868.00,99.69
1867.00,99.71
1866.00,99.72
1865.00,99.73
1864.00,99.72
1863.00,99.70
1862.00,99.69
1861.00,99.70
1860.00,99.71
1859.00,99.73
1858.00,99.76
1857.00,99.77
1856.00,99.79
1855.00,99.81
1854.00,99.83
1853.00,99.84
1852.00,99.83
1851.00,99.80
1850.00,99.77
1849.00,99.75
1848.00,99.74
1847.00,99.74
1846.00,99.76
1845.00,99.78
1844.00,99.79
1843.00,99.79
1842.00,99.79
1841.00,99.78
1840.00,99.77
1839.00,99.76
1838.00,99.77
1837.00,99.78
1836.00,99.79
1835.00,99.81
1834.00,99.83
1833.00,99.85
1832.00,99.83
1831.00,99.81
1830.00,99.78
1829.00,99.77
1828.00,99.77
1827.00,99.78
1826.00,99.80
1825.00,99.80
1824.00,99.80
1823.00,99.81
1822.00,99.82
1821.00,99.83
1820.00,99.85
1819.00,99.87
1818.00,99.90
1817.00,99.92
1816.00,99.93
1815.00,99.93
1814.00,99.92
1813.00,99.91
1812.00,99.90
1811.00,99.89
1810.00,99.88
1809.00,99.88
1808.00,99.88
1807.00,99.89
1806.00,99.90
1805.00,99.91
1804.00,99.92
1803.00,99.92
1802.00,99.92
1801.00,99.91
1800.00,99.89
1799.00,99.88
1798.00,99.87
1797.00,99.87
1796.00,99.87
1795.00,99.89
1794.00,99.90
1793.00,99.91
1792.00,99.91
1791.00,99.90
1790.00,99.88
1789.00,99.87
1788.00,99.86
1787.00,99.86
1786.00,99.86
1785.00,99.85
1784.00,99.85
1783.00,99.86
1782.00,99.89
1781.00,99.91
1780.00,99.91
1779.00,99.90
1778.00,99.89
1777.00,99.87
1776.00,99.85
1775.00,99.85
1774.00,99.85
1773.00,99.85
1772.00,99.85
1771.00,99.85
1770.00,99.84
1769.00,99.84
1768.00,99.84
1767.00,99.83
1766.00,99.83
1765.00,99.83
1764.00,99.83
1763.00,99.83
1762.00,99.82
1761.00,99.79
1760.00,99.76
1759.00,99.73
1758.00,99.72
1757.00,99.72
1756.00,99.70
1755.00,99.69
1754.00,99.68
1753.00,99.66
1752.00,99.61
1751.00,99.55
1750.00,99.49
1749.00,99.44
1748.00,99.40
1747.00,99.37
1746.00,99.31
1745.00,99.24
1744.00,99.14
1743.00,99.05
1742.00,98.97
1741.00,98.90
1740.00,98.85
1739.00,98.80
1738.00,98.75
1737.00,98.71
1736.00,98.67
1735.00,98.63
1734.00,98.57
1733.00,98.49
1732.00,98.39
1731.00,98.32
1730.00,98.29
1729.00,98.29
1728.00,98.29
1727.00,98.29
1726.00,98.29
1725.00,98.30
1724.00,98.32
1723.00,98.34
1722.00,98.36
1721.00,98.36
1720.00,98.37
1719.00,98.39
1718.00,98.44
1717.00,98.46
1716.00,98.47
1715.00,98.47
1714.00,98.49
1713.00,98.52
1712.00,98.54
1711.00,98.56
1710.00,98.58
1709.00,98.58
1708.00,98.57
1707.00,98.58
1706.00,98.61
1705.00,98.65
1704.00,98.66
1703.00,98.67
1702.00,98.66
1701.00,98.66
1700.00,98.66
1699.00,98.66
1698.00,98.67
1697.00,98.68
1696.00,98.68
1695.00,98.64
1694.00,98.58
1693.00,98.51
1692.00,98.45
1691.00,98.40
1690.00,98.34
1689.00,98.28
1688.00,98.21
1687.00,98.13
1686.00,98.02
1685.00,97.85
1684.00,97.65
1683.00,97.47
1682.00,97.31
1681.00,97.15
1680.00,96.98
1679.00,96.79
1678.00,96.61
1677.00,96.43
1676.00,96.23
1675.00,96.01
1674.00,95.78
1673.00,95.52
1672.00,95.22
1671.00,94.89
1670.00,94.52
1669.00,94.10
1668.00,93.65
1667.00,93.21
1666.00,92.79
1665.00,92.38
1664.00,91.97
1663.00,91.58
1662.00,91.24
1661.00,90.93
1660.00,90.60
1659.00,90.29
1658.00,90.00
1657.00,89.72
1656.00,89.41
1655.00,89.06
1654.00,88.71
1653.00,88.29
1652.00,87.77
1651.00,87.19
1650.00,86.61
1649.00,86.00
1648.00,85.33
1647.00,84.62
1646.00,83.90
1645.00,83.18
1644.00,82.42
1643.00,81.65
1642.00,80.89
1641.00,80.16
1640.00,79.45
1639.00,78.78
1638.00,78.21
1637.00,77.84
1636.00,77.75
1635.00,77.89
1634.00,78.03
1633.00,78.10
1632.00,78.17
1631.00,78.30
1630.00,78.54
1629.00,78.90
1628.00,79.33
1627.00,79.74
1626.00,80.08
1625.00,80.41
1624.00,80.85
1623.00,81.41
1622.00,81.96
1621.00,82.38
1620.00,82.70
1619.00,83.03
1618.00,83.54
1617.00,84.28
1616.00,85.05
1615.00,85.63
1614.00,86.02
1613.00,86.34
1612.00,86.68
1611.00,87.07
1610.00,87.49
1609.00,87.93
1608.00,88.40
1607.00,88.87
1606.00,89.33
1605.00,89.78
1604.00,90.22
1603.00,90.67
1602.00,91.08
1601.00,91.46
1600.00,91.82
1599.00,92.16
1598.00,92.45
1597.00,92.71
1596.00,92.95
1595.00,93.19
1594.00,93.39
1593.00,93.55
1592.00,93.70
1591.00,93.82
1590.00,93.91
1589.00,93.96
1588.00,94.00
1587.00,94.04
1586.00,94.05
1585.00,94.03
1584.00,94.00
1583.00,93.95
1582.00,93.87
1581.00,93.75
1580.00,93.62
1579.00,93.48
1578.00,93.32
1577.00,93.15
1576.00,92.99
1575.00,92.82
1574.00,92.60
1573.00,92.35
1572.00,92.09
1571.00,91.82
1570.00,91.55
1569.00,91.30
1568.00,91.06
1567.00,90.80
1566.00,90.52
1565.00,90.23
1564.00,89.95
1563.00,89.68
1562.00,89.37
1561.00,89.00
1560.00,88.64
1559.00,88.39
1558.00,88.18
1557.00,87.88
1556.00,87.52
1555.00,87.13
1554.00,86.71
1553.00,86.25
1552.00,85.76
1551.00,85.24
1550.00,84.69
1549.00,84.14
1548.00,83.59
1547.00,83.03
1546.00,82.47
1545.00,81.94
1544.00,81.45
1543.00,81.03
1542.00,80.70
1541.00,80.53
1540.00,80.58
1539.00,80.69
1538.00,80.69
1537.00,80.58
1536.00,80.48
1535.00,80.53
1534.00,80.82
1533.00,81.26
1532.00,81.66
1531.00,81.93
1530.00,82.17
1529.00,82.46
1528.00,82.83
1527.00,83.27
1526.00,83.74
1525.00,84.15
1524.00,84.49
1523.00,84.85
1522.00,85.37
1521.00,85.97
1520.00,86.44
1519.00,86.75
1518.00,87.08
1517.00,87.51
1516.00,87.97
1515.00,88.34
1514.00,88.65
1513.00,88.95
1512.00,89.26
1511.00,89.54
1510.00,89.78
1509.00,90.00
1508.00,90.33
1507.00,90.85
1506.00,91.41
1505.00,91.76
1504.00,91.91
1503.00,92.02
1502.00,92.15
1501.00,92.33
1500.00,92.53
1499.00,92.75
1498.00,93.00
1497.00,93.28
1496.00,93.53
1495.00,93.71
1494.00,93.82
1493.00,93.89
1492.00,93.94
1491.00,94.02
1490.00,94.10
1489.00,94.14
1488.00,94.08
1487.00,93.92
1486.00,93.68
1485.00,93.34
1484.00,92.89
1483.00,92.38
1482.00,91.86
1481.00,91.38
1480.00,90.98
1479.00,90.68
1478.00,90.51
1477.00,90.47
1476.00,90.55
1475.00,90.72
1474.00,90.98
1473.00,91.31
1472.00,91.61
1471.00,91.73
1470.00,91.64
1469.00,91.38
1468.00,90.98
1467.00,90.48
1466.00,89.94
1465.00,89.43
1464.00,89.09
1463.00,88.96
1462.00,88.98
1461.00,89.12
1460.00,89.33
1459.00,89.62
1458.00,90.04
1457.00,90.54
1456.00,90.91
1455.00,91.07
1454.00,91.10
1453.00,91.12
1452.00,91.16
1451.00,91.21
1450.00,91.28
1449.00,91.40
1448.00,91.54
1447.00,91.67
1446.00,91.76
1445.00,91.81
1444.00,91.83
1443.00,91.84
1442.00,91.85
1441.00,91.84
1440.00,91.81
1439.00,91.79
1438.00,91.79
1437.00,91.84
1436.00,91.90
1435.00,91.93
1434.00,91.96
1433.00,92.01
1432.00,92.11
1431.00,92.26
1430.00,92.42
1429.00,92.54
1428.00,92.58
1427.00,92.53
1426.00,92.42
1425.00,92.25
1424.00,92.01
1423.00,91.73
1422.00,91.41
1421.00,91.06
1420.00,90.71
1419.00,90.40
1418.00,90.16
1417.00,90.01
1416.00,89.94
1415.00,89.97
1414.00,90.10
1413.00,90.33
1412.00,90.66
1411.00,91.07
1410.00,91.51
1409.00,91.95
1408.00,92.36
1407.00,92.74
1406.00,93.10
1405.00,93.43
1404.00,93.71
1403.00,93.91
1402.00,94.05
1401.00,94.17
1400.00,94.28
1399.00,94.38
1398.00,94.45
1397.00,94.48
1396.00,94.49
1395.00,94.49
1394.00,94.47
1393.00,94.42
1392.00,94.34
1391.00,94.24
1390.00,94.14
1389.00,94.04
1388.00,93.94
1387.00,93.82
1386.00,93.70
1385.00,93.55
1384.00,93.38
1383.00,93.19
1382.00,92.99
1381.00,92.80
1380.00,92.60
1379.00,92.40
1378.00,92.21
1377.00,92.03
1376.00,91.87
1375.00,91.76
1374.00,91.69
1373.00,91.67
1372.00,91.68
1371.00,91.70
1370.00,91.75
1369.00,91.85
1368.00,91.96
1367.00,92.07
1366.00,92.16
1365.00,92.25
1364.00,92.35
1363.00,92.47
1362.00,92.59
1361.00,92.68
1360.00,92.76
1359.00,92.83
1358.00,92.91
1357.00,93.00
1356.00,93.09
1355.00,93.18
1354.00,93.27
1353.00,93.35
1352.00,93.43
1351.00,93.50
1350.00,93.56
1349.00,93.62
1348.00,93.66
1347.00,93.71
1346.00,93.75
1345.00,93.80
1344.00,93.84
1343.00,93.88
1342.00,93.92
1341.00,93.98
1340.00,94.06
1339.00,94.15
1338.00,94.21
1337.00,94.25
1336.00,94.29
1335.00,94.32
1334.00,94.36
1333.00,94.40
1332.00,94.45
1331.00,94.50
1330.00,94.56
1329.00,94.62
1328.00,94.68
1327.00,94.73
1326.00,94.77
1325.00,94.80
1324.00,94.83
1323.00,94.84
1322.00,94.85
1321.00,94.84
1320.00,94.81
1319.00,94.78
1318.00,94.74
1317.00,94.72
1316.00,94.69
1315.00,94.66
1314.00,94.64
1313.00,94.62
1312.00,94.60
1311.00,94.58
1310.00,94.54
1309.00,94.48
1308.00,94.41
1307.00,94.33
1306.00,94.26
1305.00,94.20
1304.00,94.13
1303.00,94.07
1302.00,94.03
1301.00,94.00
1300.00,93.98
1299.00,93.96
1298.00,93.93
1297.00,93.88
1296.00,93.80
1295.00,93.70
1294.00,93.60
1293.00,93.51
1292.00,93.46
1291.00,93.46
1290.00,93.48
1289.00,93.51
1288.00,93.53
1287.00,93.51
1286.00,93.47
1285.00,93.41
1284.00,93.34
1283.00,93.27
1282.00,93.20
1281.00,93.13
1280.00,93.06
1279.00,93.01
1278.00,92.97
1277.00,92.93
1276.00,92.88
1275.00,92.80
1274.00,92.69
1273.00,92.53
1272.00,92.32
1271.00,92.05
1270.00,91.72
1269.00,91.35
1268.00,90.95
1267.00,90.56
1266.00,90.22
1265.00,89.98
1264.00,89.84
1263.00,89.83
1262.00,89.90
1261.00,90.04
1260.00,90.21
1259.00,90.39
1258.00,90.59
1257.00,90.78
1256.00,90.98
1255.00,91.18
1254.00,91.37
1253.00,91.56
1252.00,91.74
1251.00,91.90
1250.00,92.04
1249.00,92.16
1248.00,92.26
1247.00,92.33
1246.00,92.39
1245.00,92.42
1244.00,92.44
1243.00,92.44
1242.00,92.45
1241.00,92.45
1240.00,92.46
1239.00,92.48
1238.00,92.53
1237.00,92.62
1236.00,92.74
1235.00,92.89
1234.00,93.07
1233.00,93.28
1232.00,93.49
1231.00,93.70
1230.00,93.91
1229.00,94.12
1228.00,94.32
1227.00,94.51
1226.00,94.68
1225.00,94.82
1224.00,94.92
1223.00,94.97
1222.00,94.96
1221.00,94.91
1220.00,94.81
1219.00,94.65
1218.00,94.45
1217.00,94.22
1216.00,93.99
1215.00,93.81
1214.00,93.70
1213.00,93.66
1212.00,93.67
1211.00,93.70
1210.00,93.71
1209.00,93.69
1208.00,93.62
1207.00,93.47
1206.00,93.24
1205.00,92.91
1204.00,92.49
1203.00,92.01
1202.00,91.56
1201.00,91.21
1200.00,91.04
1199.00,91.06
1198.00,91.25
1197.00,91.57
1196.00,91.94
1195.00,92.31
1194.00,92.67
1193.00,93.00
1192.00,93.29
1191.00,93.54
1190.00,93.76
1189.00,93.94
1188.00,94.11
1187.00,94.24
1186.00,94.34
1185.00,94.42
1184.00,94.48
1183.00,94.52
1182.00,94.53
1181.00,94.49
1180.00,94.40
1179.00,94.26
1178.00,94.09
1177.00,93.89
1176.00,93.67
1175.00,93.45
1174.00,93.22
1173.00,93.01
1172.00,92.83
1171.00,92.70
1170.00,92.62
1169.00,92.62
1168.00,92.68
1167.00,92.78
1166.00,92.92
1165.00,93.09
1164.00,93.31
1163.00,93.55
1162.00,93.80
1161.00,94.04
1160.00,94.28
1159.00,94.51
1158.00,94.71
1157.00,94.87
1156.00,94.99
1155.00,95.09
1154.00,95.19
1153.00,95.30
1152.00,95.41
1151.00,95.52
1150.00,95.63
1149.00,95.76
1148.00,95.90
1147.00,96.03
1146.00,96.16
1145.00,96.27
1144.00,96.39
1143.00,96.51
1142.00,96.62
1141.00,96.73
1140.00,96.80
1139.00,96.86
1138.00,96.90
1137.00,96.93
1136.00,96.95
1135.00,96.96
1134.00,96.96
1133.00,96.94
1132.00,96.90
1131.00,96.83
1130.00,96.72
1129.00,96.58
1128.00,96.41
1127.00,96.24
1126.00,96.09
1125.00,95.99
1124.00,95.91
1123.00,95.86
1122.00,95.83
1121.00,95.82
1120.00,95.84
1119.00,95.87
1118.00,95.91
1117.00,95.96
1116.00,95.98
1115.00,95.99
1114.00,95.99
1113.00,95.99
1112.00,96.01
1111.00,96.04
1110.00,96.07
1109.00,96.11
1108.00,96.18
1107.00,96.25
1106.00,96.35
1105.00,96.46
1104.00,96.57
1103.00,96.66
1102.00,96.72
1101.00,96.77
1100.00,96.82
1099.00,96.90
1098.00,96.99
1097.00,97.06
1096.00,97.10
1095.00,97.11
1094.00,97.12
1093.00,97.14
1092.00,97.18
1091.00,97.21
1090.00,97.23
1089.00,97.25
1088.00,97.26
1087.00,97.27
1086.00,97.26
1085.00,97.24
1084.00,97.22
1083.00,97.20
1082.00,97.18
1081.00,97.15
1080.00,97.13
1079.00,97.13
1078.00,97.13
1077.00,97.13
1076.00,97.12
1075.00,97.10
1074.00,97.10
1073.00,97.13
1072.00,97.17
1071.00,97.21
1070.00,97.22
1069.00,97.24
1068.00,97.27
1067.00,97.33
1066.00,97.38
1065.00,97.43
1064.00,97.47
1063.00,97.52
1062.00,97.59
1061.00,97.67
1060.00,97.76
1059.00,97.84
1058.00,97.93
1057.00,98.02
1056.00,98.11
1055.00,98.18
1054.00,98.22
1053.00,98.25
1052.00,98.28
1051.00,98.32
1050.00,98.36
1049.00,98.38
1048.00,98.40
1047.00,98.42
1046.00,98.43
1045.00,98.44
1044.00,98.44
1043.00,98.44
1042.00,98.42
1041.00,98.41
1040.00,98.38
1039.00,98.35
1038.00,98.31
1037.00,98.26
1036.00,98.21
1035.00,98.16
1034.00,98.08
1033.00,97.99
1032.00,97.89
1031.00,97.80
1030.00,97.75
1029.00,97.76
1028.00,97.81
1027.00,97.88
1026.00,97.96
1025.00,98.05
1024.00,98.16
1023.00,98.26
1022.00,98.35
1021.00,98.42
1020.00,98.48
1019.00,98.53
1018.00,98.57
1017.00,98.60
1016.00,98.64
1015.00,98.67
1014.00,98.71
1013.00,98.75
1012.00,98.78
1011.00,98.79
1010.00,98.79
1009.00,98.79
1008.00,98.81
1007.00,98.84
1006.00,98.86
1005.00,98.87
1004.00,98.87
1003.00,98.87
1002.00,98.88
1001.00,98.90
1000.00,98.91
999.00,98.91
998.00,98.89
997.00,98.87
996.00,98.84
995.00,98.81
994.00,98.78
993.00,98.75
992.00,98.72
991.00,98.70
990.00,98.70
989.00,98.71
988.00,98.72
987.00,98.70
986.00,98.65
985.00,98.60
984.00,98.55
983.00,98.52
982.00,98.49
981.00,98.47
980.00,98.45
979.00,98.43
978.00,98.41
977.00,98.38
976.00,98.35
975.00,98.33
974.00,98.32
973.00,98.32
972.00,98.30
971.00,98.27
970.00,98.24
969.00,98.21
968.00,98.19
967.00,98.17
966.00,98.10
965.00,97.99
964.00,97.83
963.00,97.64
962.00,97.45
961.00,97.29
960.00,97.19
959.00,97.17
958.00,97.22
957.00,97.32
956.00,97.45
955.00,97.56
954.00,97.63
953.00,97.67
952.00,97.71
951.00,97.73
950.00,97.77
949.00,97.84
948.00,97.96
947.00,98.13
946.00,98.31
945.00,98.46
944.00,98.56
943.00,98.63
942.00,98.70
941.00,98.76
940.00,98.80
939.00,98.81
938.00,98.78
937.00,98.74
936.00,98.69
935.00,98.63
934.00,98.56
933.00,98.47
932.00,98.36
931.00,98.23
930.00,98.11
929.00,98.03
928.00,98.02
927.00,98.08
926.00,98.20
925.00,98.34
924.00,98.51
923.00,98.67
922.00,98.82
921.00,98.93
920.00,98.99
919.00,99.04
918.00,99.08
917.00,99.12
916.00,99.17
915.00,99.21
914.00,99.26
913.00,99.31
912.00,99.35
911.00,99.38
910.00,99.40
909.00,99.43
908.00,99.47
907.00,99.51
906.00,99.55
905.00,99.57
904.00,99.57
903.00,99.57
902.00,99.56
901.00,99.56
900.00,99.57
899.00,99.57
898.00,99.58
897.00,99.61
896.00,99.63
895.00,99.63
894.00,99.62
893.00,99.62
892.00,99.63
891.00,99.65
890.00,99.67
889.00,99.69
888.00,99.70
887.00,99.70
886.00,99.71
885.00,99.72
884.00,99.73
883.00,99.73
882.00,99.74
881.00,99.76
880.00,99.78
879.00,99.80
878.00,99.82
877.00,99.85
876.00,99.89
875.00,99.92
874.00,99.94
873.00,99.94
872.00,99.95
871.00,99.95
870.00,99.95
869.00,99.94
868.00,99.93
867.00,99.92
866.00,99.91
865.00,99.91
864.00,99.92
863.00,99.94
862.00,99.96
861.00,99.97
860.00,99.97
859.00,99.98
858.00,99.99
857.00,100.00
856.00,100.00
855.00,99.98
854.00,99.95
853.00,99.95
852.00,99.96
851.00,99.97
850.00,99.96
849.00,99.96
848.00,99.95
847.00,99.92
846.00,99.86
845.00,99.79
844.00,99.72
843.00,99.69
842.00,99.69
841.00,99.70
840.00,99.68
839.00,99.62
838.00,99.51
837.00,99.39
836.00,99.26
835.00,99.15
834.00,99.05
833.00,99.00
832.00,99.02
831.00,99.11
830.00,99.24
829.00,99.34
828.00,99.39
827.00,99.41
826.00,99.43
825.00,99.49
824.00,99.56
823.00,99.61
822.00,99.63
821.00,99.62
820.00,99.60
819.00,99.58
818.00,99.57
817.00,99.57
816.00,99.56
815.00,99.56
814.00,99.56
813.00,99.57
812.00,99.58
811.00,99.58
810.00,99.54
809.00,99.49
808.00,99.44
807.00,99.38
806.00,99.34
805.00,99.32
804.00,99.31
803.00,99.29
802.00,99.25
801.00,99.19
800.00,99.14
799.00,99.09
798.00,99.03
797.00,98.97
796.00,98.90
795.00,98.85
794.00,98.83
793.00,98.86
792.00,98.89
791.00,98.90
790.00,98.86
789.00,98.78
788.00,98.73
787.00,98.71
786.00,98.71
785.00,98.69
784.00,98.66
783.00,98.61
782.00,98.55
781.00,98.50
780.00,98.45
779.00,98.43
778.00,98.42
777.00,98.41
776.00,98.38
775.00,98.34
774.00,98.30
773.00,98.25
772.00,98.19
771.00,98.15
770.00,98.12
769.00,98.09
768.00,98.05
767.00,97.99
766.00,97.94
765.00,97.90
764.00,97.85
763.00,97.81
762.00,97.77
761.00,97.74
760.00,97.69
759.00,97.63
758.00,97.56
757.00,97.50
756.00,97.46
755.00,97.42
754.00,97.36
753.00,97.27
752.00,97.17
751.00,97.11
750.00,97.07
749.00,97.03
748.00,96.96
747.00,96.88
746.00,96.80
745.00,96.72
744.00,96.62
743.00,96.50
742.00,96.37
741.00,96.26
740.00,96.12
739.00,95.92
738.00,95.66
737.00,95.36
736.00,95.03
735.00,94.70
734.00,94.34
733.00,93.96
732.00,93.58
731.00,93.25
730.00,93.02
729.00,92.93
728.00,92.95
727.00,93.04
726.00,93.15
725.00,93.26
724.00,93.34
723.00,93.38
722.00,93.39
721.00,93.40
720.00,93.40
719.00,93.37
718.00,93.27
717.00,93.10
716.00,92.91
715.00,92.75
714.00,92.63
713.00,92.52
712.00,92.43
711.00,92.36
710.00,92.28
709.00,92.19
708.00,92.11
707.00,92.03
706.00,91.96
705.00,91.85
704.00,91.68
703.00,91.48
702.00,91.27
701.00,91.07
700.00,90.86
699.00,90.62
698.00,90.34
697.00,90.04
696.00,89.74
695.00,89.44
694.00,89.15
693.00,88.86
692.00,88.55
691.00,88.27
690.00,88.04
689.00,87.86
688.00,87.74
687.00,87.68
686.00,87.68
685.00,87.72
684.00,87.75
683.00,87.76
682.00,87.75
681.00,87.73
680.00,87.72
679.00,87.76
678.00,87.86
677.00,87.98
676.00,88.13
675.00,88.30
674.00,88.52
673.00,88.74
672.00,88.87
671.00,88.91
670.00,88.90
669.00,88.99
668.00,89.25
667.00,89.53
666.00,89.73
665.00,89.85
664.00,89.91
663.00,89.94
662.00,89.96
661.00,90.01
660.00,90.14
659.00,90.35
658.00,90.59
657.00,90.78
656.00,90.89
655.00,90.95
654.00,91.01
653.00,91.12
652.00,91.29
651.00,91.48
650.00,91.66
649.00,91.80
648.00,91.91
647.00,91.99
646.00,92.05
645.00,92.12
644.00,92.23
643.00,92.36
642.00,92.52
641.00,92.66
640.00,92.76
639.00,92.81
638.00,92.82
637.00,92.83
636.00,92.81
635.00,92.72
634.00,92.62
633.00,92.58
632.00,92.62
631.00,92.72
630.00,92.84
629.00,92.94
628.00,93.00
627.00,93.03
626.00,93.08
625.00,93.16
624.00,93.24
623.00,93.21
622.00,93.09
621.00,93.00
620.00,93.03
619.00,93.12
618.00,93.17
617.00,93.15
616.00,93.12
615.00,93.13
614.00,93.21
613.00,93.40
612.00,93.66
611.00,93.81
610.00,93.77
609.00,93.58
608.00,93.32
607.00,93.03
606.00,92.76
605.00,92.56
604.00,92.33
603.00,91.79
602.00,90.90
601.00,90.08
600.00,89.91
599.00,90.50
598.00,91.35
597.00,91.82
596.00,91.78
595.00,91.56
594.00,91.44
593.00,91.44
592.00,91.46
591.00,91.49
590.00,91.54
589.00,91.57
588.00,91.56
587.00,91.48
586.00,91.21
585.00,90.65
584.00,89.96
583.00,89.53
582.00,89.44
581.00,89.35
580.00,88.89
579.00,88.21
578.00,87.78
577.00,87.85
576.00,88.28
575.00,88.72
574.00,88.83
573.00,88.59
572.00,88.23
571.00,88.03
570.00,88.00
569.00,87.98
568.00,87.98
567.00,88.21
566.00,88.65
565.00,89.04
564.00,89.24
563.00,89.36
562.00,89.58
561.00,89.92
560.00,90.31
559.00,90.58
558.00,90.56
557.00,90.35
556.00,90.28
555.00,90.54
554.00,90.85
553.00,90.82
552.00,90.57
551.00,90.55
550.00,90.90
