Created as New Dataset,94. Du Pont
cm-1,%T
4000.00,99.82
3999.00,99.81
3998.00,99.79
3997.00,99.78
3996.00,99.78
3995.00,99.78
3994.00,99.78
3993.00,99.77
3992.00,99.76
3991.00,99.76
3990.00,99.78
3989.00,99.80
3988.00,99.81
3987.00,99.82
3986.00,99.81
3985.00,99.80
3984.00,99.78
3983.00,99.75
3982.00,99.74
3981.00,99.74
3980.00,99.76
3979.00,99.78
3978.00,99.80
3977.00,99.81
3976.00,99.82
3975.00,99.82
3974.00,99.82
3973.00,99.81
3972.00,99.80
3971.00,99.80
3970.00,99.79
3969.00,99.80
3968.00,99.81
3967.00,99.82
3966.00,99.82
3965.00,99.83
3964.00,99.83
3963.00,99.83
3962.00,99.82
3961.00,99.80
3960.00,99.78
3959.00,99.78
3958.00,99.79
3957.00,99.80
3956.00,99.81
3955.00,99.81
3954.00,99.81
3953.00,99.82
3952.00,99.84
3951.00,99.86
3950.00,99.87
3949.00,99.88
3948.00,99.87
3947.00,99.86
3946.00,99.84
3945.00,99.84
3944.00,99.84
3943.00,99.83
3942.00,99.82
3941.00,99.81
3940.00,99.81
3939.00,99.81
3938.00,99.82
3937.00,99.82
3936.00,99.82
3935.00,99.82
3934.00,99.81
3933.00,99.81
3932.00,99.82
3931.00,99.83
3930.00,99.83
3929.00,99.83
3928.00,99.82
3927.00,99.81
3926.00,99.82
3925.00,99.84
3924.00,99.86
3923.00,99.88
3922.00,99.88
3921.00,99.88
3920.00,99.86
3919.00,99.85
3918.00,99.83
3917.00,99.82
3916.00,99.82
3915.00,99.82
3914.00,99.81
3913.00,99.80
3912.00,99.79
3911.00,99.78
3910.00,99.77
3909.00,99.76
3908.00,99.75
3907.00,99.76
3906.00,99.77
3905.00,99.80
3904.00,99.83
3903.00,99.86
3902.00,99.87
3901.00,99.88
3900.00,99.88
3899.00,99.87
3898.00,99.87
3897.00,99.86
3896.00,99.86
3895.00,99.86
3894.00,99.85
3893.00,99.84
3892.00,99.82
3891.00,99.81
3890.00,99.80
3889.00,99.80
3888.00,99.79
3887.00,99.78
3886.00,99.77
3885.00,99.77
3884.00,99.77
3883.00,99.76
3882.00,99.76
3881.00,99.76
3880.00,99.77
3879.00,99.78
3878.00,99.79
3877.00,99.79
3876.00,99.79
3875.00,99.80
3874.00,99.80
3873.00,99.80
3872.00,99.79
3871.00,99.78
3870.00,99.77
3869.00,99.78
3868.00,99.79
3867.00,99.79
3866.00,99.79
3865.00,99.79
3864.00,99.79
3863.00,99.79
3862.00,99.80
3861.00,99.80
3860.00,99.81
3859.00,99.81
3858.00,99.81
3857.00,99.81
3856.00,99.81
3855.00,99.80
3854.00,99.78
3853.00,99.77
3852.00,99.76
3851.00,99.74
3850.00,99.73
3849.00,99.73
3848.00,99.75
3847.00,99.77
3846.00,99.80
3845.00,99.81
3844.00,99.79
3843.00,99.77
3842.00,99.74
3841.00,99.73
3840.00,99.72
3839.00,99.72
3838.00,99.74
3837.00,99.75
3836.00,99.75
3835.00,99.75
3834.00,99.73
3833.00,99.73
3832.00,99.72
3831.00,99.73
3830.00,99.74
3829.00,99.75
3828.00,99.76
3827.00,99.77
3826.00,99.77
3825.00,99.77
3824.00,99.76
3823.00,99.75
3822.00,99.74
3821.00,99.74
3820.00,99.75
3819.00,99.75
3818.00,99.75
3817.00,99.74
3816.00,99.72
3815.00,99.69
3814.00,99.68
3813.00,99.68
3812.00,99.68
3811.00,99.69
3810.00,99.70
3809.00,99.71
3808.00,99.72
3807.00,99.72
3806.00,99.72
3805.00,99.72
3804.00,99.71
3803.00,99.67
3802.00,99.64
3801.00,99.62
3800.00,99.63
3799.00,99.66
3798.00,99.68
3797.00,99.69
3796.00,99.71
3795.00,99.73
3794.00,99.73
3793.00,99.72
3792.00,99.69
3791.00,99.67
3790.00,99.65
3789.00,99.65
3788.00,99.66
3787.00,99.66
3786.00,99.66
3785.00,99.66
3784.00,99.65
3783.00,99.64
3782.00,99.64
3781.00,99.64
3780.00,99.64
3779.00,99.65
3778.00,99.65
3777.00,99.65
3776.00,99.64
3775.00,99.64
3774.00,99.65
3773.00,99.67
3772.00,99.69
3771.00,99.69
3770.00,99.68
3769.00,99.67
3768.00,99.66
3767.00,99.65
3766.00,99.65
3765.00,99.65
3764.00,99.65
3763.00,99.64
3762.00,99.63
3761.00,99.62
3760.00,99.62
3759.00,99.63
3758.00,99.63
3757.00,99.64
3756.00,99.64
3755.00,99.63
3754.00,99.64
3753.00,99.65
3752.00,99.65
3751.00,99.65
3750.00,99.62
3749.00,99.58
3748.00,99.53
3747.00,99.49
3746.00,99.47
3745.00,99.47
3744.00,99.49
3743.00,99.51
3742.00,99.52
3741.00,99.54
3740.00,99.58
3739.00,99.62
3738.00,99.65
3737.00,99.67
3736.00,99.67
3735.00,99.66
3734.00,99.67
3733.00,99.66
3732.00,99.65
3731.00,99.62
3730.00,99.60
3729.00,99.58
3728.00,99.58
3727.00,99.58
3726.00,99.58
3725.00,99.60
3724.00,99.61
3723.00,99.63
3722.00,99.64
3721.00,99.65
3720.00,99.65
3719.00,99.63
3718.00,99.61
3717.00,99.59
3716.00,99.57
3715.00,99.56
3714.00,99.55
3713.00,99.53
3712.00,99.51
3711.00,99.50
3710.00,99.49
3709.00,99.48
3708.00,99.47
3707.00,99.46
3706.00,99.46
3705.00,99.46
3704.00,99.46
3703.00,99.48
3702.00,99.50
3701.00,99.53
3700.00,99.55
3699.00,99.56
3698.00,99.56
3697.00,99.54
3696.00,99.52
3695.00,99.51
3694.00,99.50
3693.00,99.50
3692.00,99.50
3691.00,99.48
3690.00,99.46
3689.00,99.44
3688.00,99.44
3687.00,99.43
3686.00,99.43
3685.00,99.41
3684.00,99.40
3683.00,99.38
3682.00,99.38
3681.00,99.38
3680.00,99.40
3679.00,99.41
3678.00,99.40
3677.00,99.37
3676.00,99.34
3675.00,99.33
3674.00,99.35
3673.00,99.39
3672.00,99.41
3671.00,99.41
3670.00,99.40
3669.00,99.40
3668.00,99.40
3667.00,99.40
3666.00,99.39
3665.00,99.39
3664.00,99.38
3663.00,99.37
3662.00,99.36
3661.00,99.34
3660.00,99.32
3659.00,99.32
3658.00,99.31
3657.00,99.31
3656.00,99.31
3655.00,99.31
3654.00,99.32
3653.00,99.34
3652.00,99.37
3651.00,99.40
3650.00,99.41
3649.00,99.40
3648.00,99.39
3647.00,99.38
3646.00,99.36
3645.00,99.34
3644.00,99.32
3643.00,99.30
3642.00,99.30
3641.00,99.30
3640.00,99.30
3639.00,99.31
3638.00,99.32
3637.00,99.33
3636.00,99.34
3635.00,99.35
3634.00,99.35
3633.00,99.34
3632.00,99.32
3631.00,99.31
3630.00,99.30
3629.00,99.31
3628.00,99.32
3627.00,99.31
3626.00,99.30
3625.00,99.28
3624.00,99.27
3623.00,99.26
3622.00,99.24
3621.00,99.20
3620.00,99.16
3619.00,99.13
3618.00,99.14
3617.00,99.15
3616.00,99.16
3615.00,99.17
3614.00,99.17
3613.00,99.19
3612.00,99.22
3611.00,99.23
3610.00,99.22
3609.00,99.19
3608.00,99.17
3607.00,99.16
3606.00,99.16
3605.00,99.16
3604.00,99.14
3603.00,99.12
3602.00,99.11
3601.00,99.13
3600.00,99.15
3599.00,99.16
3598.00,99.16
3597.00,99.14
3596.00,99.13
3595.00,99.13
3594.00,99.15
3593.00,99.17
3592.00,99.17
3591.00,99.15
3590.00,99.10
3589.00,99.05
3588.00,99.01
3587.00,99.00
3586.00,99.02
3585.00,99.03
3584.00,99.03
3583.00,99.01
3582.00,98.99
3581.00,98.97
3580.00,98.96
3579.00,98.95
3578.00,98.95
3577.00,98.94
3576.00,98.93
3575.00,98.91
3574.00,98.90
3573.00,98.88
3572.00,98.87
3571.00,98.87
3570.00,98.89
3569.00,98.90
3568.00,98.90
3567.00,98.89
3566.00,98.88
3565.00,98.86
3564.00,98.83
3563.00,98.80
3562.00,98.78
3561.00,98.77
3560.00,98.76
3559.00,98.76
3558.00,98.76
3557.00,98.75
3556.00,98.74
3555.00,98.72
3554.00,98.71
3553.00,98.70
3552.00,98.69
3551.00,98.69
3550.00,98.68
3549.00,98.67
3548.00,98.66
3547.00,98.66
3546.00,98.66
3545.00,98.66
3544.00,98.65
3543.00,98.64
3542.00,98.61
3541.00,98.58
3540.00,98.54
3539.00,98.50
3538.00,98.48
3537.00,98.48
3536.00,98.49
3535.00,98.50
3534.00,98.49
3533.00,98.49
3532.00,98.50
3531.00,98.52
3530.00,98.52
3529.00,98.51
3528.00,98.48
3527.00,98.45
3526.00,98.42
3525.00,98.39
3524.00,98.35
3523.00,98.30
3522.00,98.26
3521.00,98.24
3520.00,98.25
3519.00,98.27
3518.00,98.30
3517.00,98.31
3516.00,98.32
3515.00,98.30
3514.00,98.28
3513.00,98.25
3512.00,98.22
3511.00,98.19
3510.00,98.18
3509.00,98.18
3508.00,98.17
3507.00,98.17
3506.00,98.18
3505.00,98.18
3504.00,98.17
3503.00,98.16
3502.00,98.15
3501.00,98.14
3500.00,98.13
3499.00,98.11
3498.00,98.09
3497.00,98.07
3496.00,98.05
3495.00,98.04
3494.00,98.03
3493.00,98.02
3492.00,98.01
3491.00,98.00
3490.00,97.99
3489.00,97.99
3488.00,97.99
3487.00,97.99
3486.00,97.99
3485.00,97.98
3484.00,97.98
3483.00,98.00
3482.00,98.02
3481.00,98.05
3480.00,98.07
3479.00,98.07
3478.00,98.06
3477.00,98.04
3476.00,98.01
3475.00,97.96
3474.00,97.91
3473.00,97.88
3472.00,97.90
3471.00,97.93
3470.00,97.95
3469.00,97.93
3468.00,97.89
3467.00,97.85
3466.00,97.84
3465.00,97.86
3464.00,97.89
3463.00,97.89
3462.00,97.89
3461.00,97.88
3460.00,97.87
3459.00,97.87
3458.00,97.86
3457.00,97.86
3456.00,97.86
3455.00,97.87
3454.00,97.87
3453.00,97.87
3452.00,97.86
3451.00,97.85
3450.00,97.84
3449.00,97.83
3448.00,97.82
3447.00,97.81
3446.00,97.80
3445.00,97.81
3444.00,97.82
3443.00,97.83
3442.00,97.83
3441.00,97.82
3440.00,97.80
3439.00,97.77
3438.00,97.75
3437.00,97.75
3436.00,97.77
3435.00,97.80
3434.00,97.81
3433.00,97.81
3432.00,97.79
3431.00,97.78
3430.00,97.77
3429.00,97.78
3428.00,97.77
3427.00,97.76
3426.00,97.75
3425.00,97.75
3424.00,97.76
3423.00,97.77
3422.00,97.76
3421.00,97.72
3420.00,97.69
3419.00,97.66
3418.00,97.66
3417.00,97.67
3416.00,97.68
3415.00,97.68
3414.00,97.66
3413.00,97.63
3412.00,97.60
3411.00,97.57
3410.00,97.56
3409.00,97.55
3408.00,97.56
3407.00,97.58
3406.00,97.59
3405.00,97.60
3404.00,97.60
3403.00,97.59
3402.00,97.57
3401.00,97.55
3400.00,97.54
3399.00,97.54
3398.00,97.54
3397.00,97.53
3396.00,97.52
3395.00,97.49
3394.00,97.47
3393.00,97.46
3392.00,97.46
3391.00,97.45
3390.00,97.43
3389.00,97.41
3388.00,97.38
3387.00,97.35
3386.00,97.33
3385.00,97.32
3384.00,97.31
3383.00,97.30
3382.00,97.28
3381.00,97.26
3380.00,97.24
3379.00,97.22
3378.00,97.20
3377.00,97.17
3376.00,97.14
3375.00,97.11
3374.00,97.07
3373.00,97.02
3372.00,96.98
3371.00,96.94
3370.00,96.90
3369.00,96.86
3368.00,96.83
3367.00,96.80
3366.00,96.77
3365.00,96.73
3364.00,96.69
3363.00,96.65
3362.00,96.60
3361.00,96.55
3360.00,96.50
3359.00,96.43
3358.00,96.36
3357.00,96.29
3356.00,96.23
3355.00,96.17
3354.00,96.13
3353.00,96.08
3352.00,96.03
3351.00,95.96
3350.00,95.88
3349.00,95.79
3348.00,95.69
3347.00,95.59
3346.00,95.49
3345.00,95.38
3344.00,95.28
3343.00,95.17
3342.00,95.06
3341.00,94.92
3340.00,94.79
3339.00,94.66
3338.00,94.53
3337.00,94.42
3336.00,94.30
3335.00,94.16
3334.00,94.00
3333.00,93.80
3332.00,93.60
3331.00,93.39
3330.00,93.19
3329.00,92.98
3328.00,92.76
3327.00,92.52
3326.00,92.25
3325.00,91.96
3324.00,91.65
3323.00,91.34
3322.00,91.01
3321.00,90.68
3320.00,90.32
3319.00,89.93
3318.00,89.50
3317.00,89.05
3316.00,88.56
3315.00,88.07
3314.00,87.56
3313.00,87.06
3312.00,86.55
3311.00,86.04
3310.00,85.53
3309.00,85.02
3308.00,84.52
3307.00,84.04
3306.00,83.59
3305.00,83.19
3304.00,82.84
3303.00,82.55
3302.00,82.31
3301.00,82.14
3300.00,82.03
3299.00,81.98
3298.00,81.99
3297.00,82.05
3296.00,82.17
3295.00,82.34
3294.00,82.56
3293.00,82.80
3292.00,83.07
3291.00,83.35
3290.00,83.66
3289.00,83.99
3288.00,84.33
3287.00,84.66
3286.00,84.98
3285.00,85.31
3284.00,85.63
3283.00,85.94
3282.00,86.23
3281.00,86.50
3280.00,86.76
3279.00,87.03
3278.00,87.31
3277.00,87.59
3276.00,87.86
3275.00,88.09
3274.00,88.30
3273.00,88.49
3272.00,88.66
3271.00,88.81
3270.00,88.95
3269.00,89.08
3268.00,89.21
3267.00,89.35
3266.00,89.51
3265.00,89.67
3264.00,89.83
3263.00,89.99
3262.00,90.15
3261.00,90.32
3260.00,90.49
3259.00,90.66
3258.00,90.83
3257.00,90.99
3256.00,91.15
3255.00,91.31
3254.00,91.47
3253.00,91.61
3252.00,91.75
3251.00,91.88
3250.00,92.00
3249.00,92.13
3248.00,92.25
3247.00,92.38
3246.00,92.52
3245.00,92.65
3244.00,92.77
3243.00,92.89
3242.00,93.00
3241.00,93.10
3240.00,93.19
3239.00,93.28
3238.00,93.37
3237.00,93.47
3236.00,93.57
3235.00,93.67
3234.00,93.77
3233.00,93.86
3232.00,93.94
3231.00,94.02
3230.00,94.09
3229.00,94.16
3228.00,94.23
3227.00,94.30
3226.00,94.38
3225.00,94.44
3224.00,94.49
3223.00,94.54
3222.00,94.59
3221.00,94.63
3220.00,94.67
3219.00,94.70
3218.00,94.72
3217.00,94.75
3216.00,94.78
3215.00,94.83
3214.00,94.87
3213.00,94.91
3212.00,94.95
3211.00,94.99
3210.00,95.03
3209.00,95.06
3208.00,95.08
3207.00,95.09
3206.00,95.10
3205.00,95.12
3204.00,95.14
3203.00,95.17
3202.00,95.20
3201.00,95.23
3200.00,95.25
3199.00,95.28
3198.00,95.30
3197.00,95.32
3196.00,95.35
3195.00,95.39
3194.00,95.43
3193.00,95.47
3192.00,95.51
3191.00,95.54
3190.00,95.56
3189.00,95.58
3188.00,95.59
3187.00,95.62
3186.00,95.67
3185.00,95.72
3184.00,95.77
3183.00,95.82
3182.00,95.85
3181.00,95.87
3180.00,95.90
3179.00,95.94
3178.00,96.00
3177.00,96.06
3176.00,96.12
3175.00,96.17
3174.00,96.20
3173.00,96.23
3172.00,96.25
3171.00,96.29
3170.00,96.33
3169.00,96.37
3168.00,96.42
3167.00,96.45
3166.00,96.49
3165.00,96.53
3164.00,96.59
3163.00,96.65
3162.00,96.71
3161.00,96.75
3160.00,96.79
3159.00,96.83
3158.00,96.86
3157.00,96.89
3156.00,96.91
3155.00,96.92
3154.00,96.93
3153.00,96.94
3152.00,96.97
3151.00,96.99
3150.00,96.99
3149.00,96.99
3148.00,96.98
3147.00,96.99
3146.00,97.00
3145.00,97.02
3144.00,97.04
3143.00,97.06
3142.00,97.07
3141.00,97.09
3140.00,97.10
3139.00,97.11
3138.00,97.12
3137.00,97.13
3136.00,97.13
3135.00,97.13
3134.00,97.13
3133.00,97.14
3132.00,97.14
3131.00,97.13
3130.00,97.13
3129.00,97.12
3128.00,97.13
3127.00,97.12
3126.00,97.11
3125.00,97.08
3124.00,97.07
3123.00,97.07
3122.00,97.07
3121.00,97.06
3120.00,97.03
3119.00,96.99
3118.00,96.95
3117.00,96.92
3116.00,96.90
3115.00,96.88
3114.00,96.86
3113.00,96.84
3112.00,96.81
3111.00,96.78
3110.00,96.73
3109.00,96.67
3108.00,96.62
3107.00,96.57
3106.00,96.54
3105.00,96.51
3104.00,96.49
3103.00,96.46
3102.00,96.43
3101.00,96.39
3100.00,96.35
3099.00,96.32
3098.00,96.29
3097.00,96.26
3096.00,96.22
3095.00,96.17
3094.00,96.12
3093.00,96.08
3092.00,96.04
3091.00,96.01
3090.00,95.99
3089.00,95.96
3088.00,95.94
3087.00,95.93
3086.00,95.91
3085.00,95.89
3084.00,95.87
3083.00,95.84
3082.00,95.80
3081.00,95.78
3080.00,95.77
3079.00,95.77
3078.00,95.78
3077.00,95.78
3076.00,95.78
3075.00,95.76
3074.00,95.74
3073.00,95.72
3072.00,95.71
3071.00,95.71
3070.00,95.72
3069.00,95.72
3068.00,95.73
3067.00,95.74
3066.00,95.75
3065.00,95.74
3064.00,95.73
3063.00,95.72
3062.00,95.73
3061.00,95.74
3060.00,95.77
3059.00,95.81
3058.00,95.87
3057.00,95.93
3056.00,95.99
3055.00,96.04
3054.00,96.09
3053.00,96.14
3052.00,96.20
3051.00,96.27
3050.00,96.35
3049.00,96.43
3048.00,96.52
3047.00,96.61
3046.00,96.69
3045.00,96.76
3044.00,96.84
3043.00,96.92
3042.00,96.99
3041.00,97.04
3040.00,97.08
3039.00,97.13
3038.00,97.17
3037.00,97.22
3036.00,97.26
3035.00,97.31
3034.00,97.35
3033.00,97.38
3032.00,97.41
3031.00,97.45
3030.00,97.49
3029.00,97.53
3028.00,97.56
3027.00,97.58
3026.00,97.60
3025.00,97.61
3024.00,97.62
3023.00,97.63
3022.00,97.65
3021.00,97.66
3020.00,97.68
3019.00,97.70
3018.00,97.73
3017.00,97.76
3016.00,97.78
3015.00,97.80
3014.00,97.81
3013.00,97.82
3012.00,97.83
3011.00,97.83
3010.00,97.83
3009.00,97.83
3008.00,97.83
3007.00,97.83
3006.00,97.83
3005.00,97.84
3004.00,97.84
3003.00,97.85
3002.00,97.85
3001.00,97.84
3000.00,97.84
2999.00,97.84
2998.00,97.83
2997.00,97.83
2996.00,97.83
2995.00,97.84
2994.00,97.85
2993.00,97.85
2992.00,97.84
2991.00,97.82
2990.00,97.79
2989.00,97.76
2988.00,97.74
2987.00,97.71
2986.00,97.68
2985.00,97.62
2984.00,97.55
2983.00,97.48
2982.00,97.41
2981.00,97.35
2980.00,97.29
2979.00,97.23
2978.00,97.15
2977.00,97.07
2976.00,96.98
2975.00,96.87
2974.00,96.75
2973.00,96.62
2972.00,96.50
2971.00,96.36
2970.00,96.21
2969.00,96.05
2968.00,95.87
2967.00,95.69
2966.00,95.50
2965.00,95.32
2964.00,95.15
2963.00,94.98
2962.00,94.82
2961.00,94.65
2960.00,94.45
2959.00,94.23
2958.00,93.97
2957.00,93.69
2956.00,93.40
2955.00,93.08
2954.00,92.74
2953.00,92.35
2952.00,91.92
2951.00,91.45
2950.00,90.95
2949.00,90.44
2948.00,89.92
2947.00,89.42
2946.00,88.96
2945.00,88.55
2944.00,88.20
2943.00,87.87
2942.00,87.55
2941.00,87.22
2940.00,86.88
2939.00,86.54
2938.00,86.20
2937.00,85.90
2936.00,85.64
2935.00,85.44
2934.00,85.30
2933.00,85.23
2932.00,85.23
2931.00,85.32
2930.00,85.48
2929.00,85.70
2928.00,85.94
2927.00,86.20
2926.00,86.46
2925.00,86.71
2924.00,86.97
2923.00,87.24
2922.00,87.50
2921.00,87.77
2920.00,88.04
2919.00,88.31
2918.00,88.58
2917.00,88.84
2916.00,89.08
2915.00,89.31
2914.00,89.51
2913.00,89.69
2912.00,89.86
2911.00,90.03
2910.00,90.19
2909.00,90.35
2908.00,90.51
2907.00,90.68
2906.00,90.88
2905.00,91.09
2904.00,91.30
2903.00,91.52
2902.00,91.74
2901.00,91.97
2900.00,92.19
2899.00,92.40
2898.00,92.61
2897.00,92.81
2896.00,93.01
2895.00,93.18
2894.00,93.32
2893.00,93.44
2892.00,93.53
2891.00,93.60
2890.00,93.65
2889.00,93.67
2888.00,93.66
2887.00,93.62
2886.00,93.54
2885.00,93.43
2884.00,93.27
2883.00,93.07
2882.00,92.83
2881.00,92.56
2880.00,92.28
2879.00,92.00
2878.00,91.73
2877.00,91.49
2876.00,91.28
2875.00,91.12
2874.00,90.98
2873.00,90.87
2872.00,90.77
2871.00,90.69
2870.00,90.62
2869.00,90.56
2868.00,90.49
2867.00,90.39
2866.00,90.25
2865.00,90.06
2864.00,89.85
2863.00,89.64
2862.00,89.45
2861.00,89.31
2860.00,89.23
2859.00,89.21
2858.00,89.26
2857.00,89.38
2856.00,89.60
2855.00,89.89
2854.00,90.25
2853.00,90.64
2852.00,91.05
2851.00,91.48
2850.00,91.92
2849.00,92.35
2848.00,92.77
2847.00,93.17
2846.00,93.55
2845.00,93.90
2844.00,94.22
2843.00,94.50
2842.00,94.74
2841.00,94.95
2840.00,95.13
2839.00,95.29
2838.00,95.43
2837.00,95.55
2836.00,95.64
2835.00,95.72
2834.00,95.79
2833.00,95.86
2832.00,95.93
2831.00,95.99
2830.00,96.04
2829.00,96.08
2828.00,96.11
2827.00,96.15
2826.00,96.19
2825.00,96.23
2824.00,96.28
2823.00,96.32
2822.00,96.36
2821.00,96.40
2820.00,96.44
2819.00,96.48
2818.00,96.53
2817.00,96.58
2816.00,96.63
2815.00,96.67
2814.00,96.69
2813.00,96.71
2812.00,96.73
2811.00,96.76
2810.00,96.79
2809.00,96.81
2808.00,96.84
2807.00,96.86
2806.00,96.88
2805.00,96.91
2804.00,96.95
2803.00,96.99
2802.00,97.02
2801.00,97.04
2800.00,97.05
2799.00,97.06
2798.00,97.07
2797.00,97.08
2796.00,97.09
2795.00,97.11
2794.00,97.14
2793.00,97.16
2792.00,97.19
2791.00,97.22
2790.00,97.25
2789.00,97.27
2788.00,97.28
2787.00,97.29
2786.00,97.30
2785.00,97.30
2784.00,97.29
2783.00,97.28
2782.00,97.28
2781.00,97.30
2780.00,97.33
2779.00,97.36
2778.00,97.39
2777.00,97.40
2776.00,97.40
2775.00,97.39
2774.00,97.39
2773.00,97.40
2772.00,97.41
2771.00,97.42
2770.00,97.44
2769.00,97.45
2768.00,97.46
2767.00,97.47
2766.00,97.47
2765.00,97.48
2764.00,97.48
2763.00,97.48
2762.00,97.49
2761.00,97.49
2760.00,97.50
2759.00,97.51
2758.00,97.52
2757.00,97.53
2756.00,97.53
2755.00,97.53
2754.00,97.54
2753.00,97.54
2752.00,97.54
2751.00,97.54
2750.00,97.52
2749.00,97.51
2748.00,97.50
2747.00,97.51
2746.00,97.52
2745.00,97.54
2744.00,97.56
2743.00,97.56
2742.00,97.56
2741.00,97.57
2740.00,97.58
2739.00,97.61
2738.00,97.63
2737.00,97.64
2736.00,97.64
2735.00,97.65
2734.00,97.65
2733.00,97.66
2732.00,97.66
2731.00,97.67
2730.00,97.68
2729.00,97.70
2728.00,97.72
2727.00,97.75
2726.00,97.77
2725.00,97.79
2724.00,97.80
2723.00,97.82
2722.00,97.83
2721.00,97.83
2720.00,97.83
2719.00,97.83
2718.00,97.84
2717.00,97.86
2716.00,97.88
2715.00,97.89
2714.00,97.90
2713.00,97.90
2712.00,97.91
2711.00,97.90
2710.00,97.90
2709.00,97.89
2708.00,97.88
2707.00,97.89
2706.00,97.90
2705.00,97.91
2704.00,97.92
2703.00,97.93
2702.00,97.94
2701.00,97.95
2700.00,97.95
2699.00,97.94
2698.00,97.93
2697.00,97.92
2696.00,97.91
2695.00,97.91
2694.00,97.91
2693.00,97.92
2692.00,97.93
2691.00,97.93
2690.00,97.93
2689.00,97.93
2688.00,97.92
2687.00,97.91
2686.00,97.92
2685.00,97.93
2684.00,97.95
2683.00,97.96
2682.00,97.97
2681.00,97.97
2680.00,97.97
2679.00,97.97
2678.00,97.97
2677.00,97.97
2676.00,97.96
2675.00,97.96
2674.00,97.96
2673.00,97.97
2672.00,97.97
2671.00,97.98
2670.00,97.99
2669.00,98.00
2668.00,98.01
2667.00,98.01
2666.00,98.01
2665.00,98.00
2664.00,97.98
2663.00,97.98
2662.00,97.97
2661.00,97.97
2660.00,97.96
2659.00,97.96
2658.00,97.96
2657.00,97.96
2656.00,97.95
2655.00,97.94
2654.00,97.94
2653.00,97.93
2652.00,97.93
2651.00,97.93
2650.00,97.93
2649.00,97.92
2648.00,97.92
2647.00,97.90
2646.00,97.89
2645.00,97.89
2644.00,97.88
2643.00,97.88
2642.00,97.88
2641.00,97.89
2640.00,97.90
2639.00,97.89
2638.00,97.88
2637.00,97.85
2636.00,97.83
2635.00,97.82
2634.00,97.81
2633.00,97.82
2632.00,97.83
2631.00,97.84
2630.00,97.83
2629.00,97.81
2628.00,97.79
2627.00,97.78
2626.00,97.76
2625.00,97.76
2624.00,97.76
2623.00,97.76
2622.00,97.76
2621.00,97.76
2620.00,97.75
2619.00,97.75
2618.00,97.74
2617.00,97.73
2616.00,97.72
2615.00,97.73
2614.00,97.73
2613.00,97.73
2612.00,97.72
2611.00,97.71
2610.00,97.70
2609.00,97.69
2608.00,97.68
2607.00,97.66
2606.00,97.64
2605.00,97.62
2604.00,97.61
2603.00,97.61
2602.00,97.62
2601.00,97.64
2600.00,97.66
2599.00,97.66
2598.00,97.65
2597.00,97.62
2596.00,97.61
2595.00,97.60
2594.00,97.61
2593.00,97.60
2592.00,97.59
2591.00,97.58
2590.00,97.57
2589.00,97.56
2588.00,97.55
2587.00,97.55
2586.00,97.56
2585.00,97.57
2584.00,97.58
2583.00,97.57
2582.00,97.56
2581.00,97.54
2580.00,97.53
2579.00,97.52
2578.00,97.52
2577.00,97.52
2576.00,97.53
2575.00,97.52
2574.00,97.52
2573.00,97.51
2572.00,97.53
2571.00,97.54
2570.00,97.54
2569.00,97.52
2568.00,97.50
2567.00,97.49
2566.00,97.48
2565.00,97.47
2564.00,97.49
2563.00,97.52
2562.00,97.56
2561.00,97.58
2560.00,97.59
2559.00,97.59
2558.00,97.60
2557.00,97.60
2556.00,97.60
2555.00,97.60
2554.00,97.59
2553.00,97.59
2552.00,97.58
2551.00,97.58
2550.00,97.59
2549.00,97.60
2548.00,97.60
2547.00,97.59
2546.00,97.57
2545.00,97.54
2544.00,97.53
2543.00,97.54
2542.00,97.56
2541.00,97.58
2540.00,97.60
2539.00,97.62
2538.00,97.63
2537.00,97.63
2536.00,97.62
2535.00,97.61
2534.00,97.60
2533.00,97.59
2532.00,97.59
2531.00,97.59
2530.00,97.59
2529.00,97.60
2528.00,97.60
2527.00,97.59
2526.00,97.58
2525.00,97.57
2524.00,97.56
2523.00,97.56
2522.00,97.58
2521.00,97.59
2520.00,97.60
2519.00,97.59
2518.00,97.57
2517.00,97.56
2516.00,97.56
2515.00,97.57
2514.00,97.57
2513.00,97.56
2512.00,97.54
2511.00,97.54
2510.00,97.54
2509.00,97.56
2508.00,97.57
2507.00,97.58
2506.00,97.58
2505.00,97.57
2504.00,97.57
2503.00,97.59
2502.00,97.59
2501.00,97.59
2500.00,97.59
2499.00,97.59
2498.00,97.61
2497.00,97.63
2496.00,97.63
2495.00,97.61
2494.00,97.59
2493.00,97.57
2492.00,97.56
2491.00,97.56
2490.00,97.58
2489.00,97.60
2488.00,97.62
2487.00,97.62
2486.00,97.61
2485.00,97.62
2484.00,97.63
2483.00,97.65
2482.00,97.66
2481.00,97.66
2480.00,97.66
2479.00,97.65
2478.00,97.63
2477.00,97.61
2476.00,97.60
2475.00,97.61
2474.00,97.63
2473.00,97.65
2472.00,97.65
2471.00,97.66
2470.00,97.66
2469.00,97.66
2468.00,97.65
2467.00,97.63
2466.00,97.62
2465.00,97.61
2464.00,97.61
2463.00,97.62
2462.00,97.62
2461.00,97.62
2460.00,97.62
2459.00,97.61
2458.00,97.59
2457.00,97.59
2456.00,97.59
2455.00,97.61
2454.00,97.64
2453.00,97.66
2452.00,97.67
2451.00,97.67
2450.00,97.66
2449.00,97.64
2448.00,97.62
2447.00,97.63
2446.00,97.65
2445.00,97.66
2444.00,97.65
2443.00,97.63
2442.00,97.62
2441.00,97.63
2440.00,97.65
2439.00,97.66
2438.00,97.68
2437.00,97.69
2436.00,97.69
2435.00,97.68
2434.00,97.68
2433.00,97.68
2432.00,97.68
2431.00,97.70
2430.00,97.72
2429.00,97.73
2428.00,97.74
2427.00,97.75
2426.00,97.76
2425.00,97.75
2424.00,97.73
2423.00,97.71
2422.00,97.70
2421.00,97.70
2420.00,97.71
2419.00,97.72
2418.00,97.74
2417.00,97.76
2416.00,97.77
2415.00,97.78
2414.00,97.78
2413.00,97.77
2412.00,97.75
2411.00,97.73
2410.00,97.73
2409.00,97.73
2408.00,97.74
2407.00,97.75
2406.00,97.77
2405.00,97.78
2404.00,97.80
2403.00,97.82
2402.00,97.82
2401.00,97.81
2400.00,97.80
2399.00,97.80
2398.00,97.80
2397.00,97.79
2396.00,97.80
2395.00,97.80
2394.00,97.80
2393.00,97.79
2392.00,97.79
2391.00,97.81
2390.00,97.83
2389.00,97.86
2388.00,97.87
2387.00,97.88
2386.00,97.90
2385.00,97.92
2384.00,97.95
2383.00,97.98
2382.00,98.01
2381.00,98.05
2380.00,98.09
2379.00,98.12
2378.00,98.15
2377.00,98.18
2376.00,98.19
2375.00,98.18
2374.00,98.14
2373.00,98.10
2372.00,98.11
2371.00,98.16
2370.00,98.24
2369.00,98.31
2368.00,98.37
2367.00,98.43
2366.00,98.46
2365.00,98.45
2364.00,98.43
2363.00,98.39
2362.00,98.35
2361.00,98.32
2360.00,98.29
2359.00,98.27
2358.00,98.26
2357.00,98.27
2356.00,98.29
2355.00,98.34
2354.00,98.36
2353.00,98.37
2352.00,98.38
2351.00,98.41
2350.00,98.43
2349.00,98.44
2348.00,98.42
2347.00,98.38
2346.00,98.35
2345.00,98.35
2344.00,98.41
2343.00,98.49
2342.00,98.52
2341.00,98.48
2340.00,98.39
2339.00,98.29
2338.00,98.23
2337.00,98.23
2336.00,98.25
2335.00,98.28
2334.00,98.30
2333.00,98.31
2332.00,98.32
2331.00,98.31
2330.00,98.27
2329.00,98.23
2328.00,98.18
2327.00,98.15
2326.00,98.12
2325.00,98.09
2324.00,98.05
2323.00,98.04
2322.00,98.05
2321.00,98.05
2320.00,98.03
2319.00,97.99
2318.00,97.96
2317.00,97.94
2316.00,97.93
2315.00,97.93
2314.00,97.91
2313.00,97.90
2312.00,97.88
2311.00,97.87
2310.00,97.86
2309.00,97.84
2308.00,97.82
2307.00,97.80
2306.00,97.78
2305.00,97.77
2304.00,97.75
2303.00,97.74
2302.00,97.73
2301.00,97.73
2300.00,97.73
2299.00,97.71
2298.00,97.66
2297.00,97.60
2296.00,97.56
2295.00,97.53
2294.00,97.51
2293.00,97.50
2292.00,97.49
2291.00,97.47
2290.00,97.45
2289.00,97.41
2288.00,97.35
2287.00,97.30
2286.00,97.25
2285.00,97.22
2284.00,97.20
2283.00,97.20
2282.00,97.21
2281.00,97.22
2280.00,97.21
2279.00,97.18
2278.00,97.15
2277.00,97.13
2276.00,97.12
2275.00,97.12
2274.00,97.10
2273.00,97.08
2272.00,97.08
2271.00,97.09
2270.00,97.10
2269.00,97.10
2268.00,97.10
2267.00,97.10
2266.00,97.11
2265.00,97.09
2264.00,97.06
2263.00,97.00
2262.00,96.93
2261.00,96.88
2260.00,96.84
2259.00,96.83
2258.00,96.85
2257.00,96.87
2256.00,96.90
2255.00,96.92
2254.00,96.92
2253.00,96.91
2252.00,96.90
2251.00,96.90
2250.00,96.89
2249.00,96.87
2248.00,96.86
2247.00,96.84
2246.00,96.82
2245.00,96.78
2244.00,96.73
2243.00,96.68
2242.00,96.65
2241.00,96.65
2240.00,96.67
2239.00,96.69
2238.00,96.71
2237.00,96.71
2236.00,96.70
2235.00,96.67
2234.00,96.61
2233.00,96.56
2232.00,96.53
2231.00,96.53
2230.00,96.52
2229.00,96.50
2228.00,96.49
2227.00,96.48
2226.00,96.48
2225.00,96.49
2224.00,96.50
2223.00,96.51
2222.00,96.51
2221.00,96.51
2220.00,96.52
2219.00,96.50
2218.00,96.45
2217.00,96.38
2216.00,96.34
2215.00,96.34
2214.00,96.39
2213.00,96.44
2212.00,96.47
2211.00,96.44
2210.00,96.37
2209.00,96.28
2208.00,96.24
2207.00,96.24
2206.00,96.27
2205.00,96.27
2204.00,96.23
2203.00,96.17
2202.00,96.13
2201.00,96.11
2200.00,96.12
2199.00,96.15
2198.00,96.18
2197.00,96.19
2196.00,96.21
2195.00,96.22
2194.00,96.22
2193.00,96.18
2192.00,96.13
2191.00,96.11
2190.00,96.11
2189.00,96.10
2188.00,96.04
2187.00,95.95
2186.00,95.87
2185.00,95.83
2184.00,95.84
2183.00,95.89
2182.00,95.92
2181.00,95.91
2180.00,95.88
2179.00,95.86
2178.00,95.85
2177.00,95.85
2176.00,95.88
2175.00,95.90
2174.00,95.91
2173.00,95.88
2172.00,95.83
2171.00,95.78
2170.00,95.74
2169.00,95.71
2168.00,95.69
2167.00,95.67
2166.00,95.64
2165.00,95.55
2164.00,95.42
2163.00,95.30
2162.00,95.24
2161.00,95.30
2160.00,95.47
2159.00,95.68
2158.00,95.83
2157.00,95.91
2156.00,95.95
2155.00,96.03
2154.00,96.13
2153.00,96.19
2152.00,96.22
2151.00,96.22
2150.00,96.22
2149.00,96.20
2148.00,96.18
2147.00,96.17
2146.00,96.19
2145.00,96.23
2144.00,96.31
2143.00,96.40
2142.00,96.47
2141.00,96.50
2140.00,96.51
2139.00,96.55
2138.00,96.60
2137.00,96.66
2136.00,96.70
2135.00,96.76
2134.00,96.81
2133.00,96.86
2132.00,96.89
2131.00,96.90
2130.00,96.90
2129.00,96.88
2128.00,96.86
2127.00,96.86
2126.00,96.87
2125.00,96.88
2124.00,96.89
2123.00,96.90
2122.00,96.90
2121.00,96.90
2120.00,96.89
2119.00,96.91
2118.00,96.93
2117.00,96.93
2116.00,96.93
2115.00,96.93
2114.00,96.96
2113.00,96.98
2112.00,96.97
2111.00,96.93
2110.00,96.89
2109.00,96.89
2108.00,96.94
2107.00,97.01
2106.00,97.06
2105.00,97.08
2104.00,97.07
2103.00,97.03
2102.00,96.99
2101.00,96.94
2100.00,96.90
2099.00,96.87
2098.00,96.87
2097.00,96.89
2096.00,96.93
2095.00,96.96
2094.00,96.98
2093.00,96.99
2092.00,97.00
2091.00,96.99
2090.00,96.98
2089.00,96.96
2088.00,96.95
2087.00,96.95
2086.00,96.94
2085.00,96.93
2084.00,96.92
2083.00,96.91
2082.00,96.90
2081.00,96.87
2080.00,96.83
2079.00,96.80
2078.00,96.77
2077.00,96.74
2076.00,96.71
2075.00,96.70
2074.00,96.71
2073.00,96.73
2072.00,96.75
2071.00,96.76
2070.00,96.73
2069.00,96.70
2068.00,96.68
2067.00,96.69
2066.00,96.71
2065.00,96.71
2064.00,96.69
2063.00,96.66
2062.00,96.64
2061.00,96.62
2060.00,96.61
2059.00,96.59
2058.00,96.57
2057.00,96.56
2056.00,96.56
2055.00,96.56
2054.00,96.53
2053.00,96.44
2052.00,96.34
2051.00,96.27
2050.00,96.24
2049.00,96.24
2048.00,96.24
2047.00,96.24
2046.00,96.22
2045.00,96.20
2044.00,96.18
2043.00,96.16
2042.00,96.13
2041.00,96.08
2040.00,96.02
2039.00,95.95
2038.00,95.89
2037.00,95.85
2036.00,95.83
2035.00,95.84
2034.00,95.85
2033.00,95.85
2032.00,95.86
2031.00,95.87
2030.00,95.90
2029.00,95.93
2028.00,95.95
2027.00,95.96
2026.00,95.95
2025.00,95.89
2024.00,95.82
2023.00,95.78
2022.00,95.79
2021.00,95.85
2020.00,95.93
2019.00,95.98
2018.00,96.01
2017.00,96.02
2016.00,96.02
2015.00,96.02
2014.00,96.01
2013.00,96.00
2012.00,96.01
2011.00,96.03
2010.00,96.04
2009.00,96.05
2008.00,96.09
2007.00,96.17
2006.00,96.26
2005.00,96.33
2004.00,96.38
2003.00,96.43
2002.00,96.47
2001.00,96.48
2000.00,96.45
1999.00,96.41
1998.00,96.39
1997.00,96.40
1996.00,96.43
1995.00,96.44
1994.00,96.43
1993.00,96.40
1992.00,96.37
1991.00,96.36
1990.00,96.35
1989.00,96.32
1988.00,96.29
1987.00,96.28
1986.00,96.26
1985.00,96.22
1984.00,96.17
1983.00,96.12
1982.00,96.08
1981.00,96.00
1980.00,95.92
1979.00,95.87
1978.00,95.89
1977.00,95.95
1976.00,96.00
1975.00,96.06
1974.00,96.13
1973.00,96.21
1972.00,96.26
1971.00,96.28
1970.00,96.24
1969.00,96.19
1968.00,96.17
1967.00,96.22
1966.00,96.31
1965.00,96.41
1964.00,96.47
1963.00,96.50
1962.00,96.52
1961.00,96.55
1960.00,96.60
1959.00,96.66
1958.00,96.71
1957.00,96.73
1956.00,96.72
1955.00,96.72
1954.00,96.73
1953.00,96.75
1952.00,96.76
1951.00,96.76
1950.00,96.78
1949.00,96.81
1948.00,96.85
1947.00,96.88
1946.00,96.88
1945.00,96.89
1944.00,96.91
1943.00,96.97
1942.00,97.03
1941.00,97.07
1940.00,97.08
1939.00,97.08
1938.00,97.10
1937.00,97.13
1936.00,97.15
1935.00,97.15
1934.00,97.14
1933.00,97.13
1932.00,97.14
1931.00,97.15
1930.00,97.19
1929.00,97.23
1928.00,97.27
1927.00,97.28
1926.00,97.26
1925.00,97.25
1924.00,97.27
1923.00,97.32
1922.00,97.37
1921.00,97.40
1920.00,97.38
1919.00,97.34
1918.00,97.30
1917.00,97.28
1916.00,97.29
1915.00,97.32
1914.00,97.35
1913.00,97.39
1912.00,97.43
1911.00,97.47
1910.00,97.51
1909.00,97.52
1908.00,97.51
1907.00,97.50
1906.00,97.50
1905.00,97.49
1904.00,97.49
1903.00,97.49
1902.00,97.49
1901.00,97.51
1900.00,97.53
1899.00,97.55
1898.00,97.56
1897.00,97.56
1896.00,97.57
1895.00,97.58
1894.00,97.59
1893.00,97.60
1892.00,97.59
1891.00,97.59
1890.00,97.62
1889.00,97.65
1888.00,97.68
1887.00,97.70
1886.00,97.70
1885.00,97.69
1884.00,97.67
1883.00,97.67
1882.00,97.67
1881.00,97.66
1880.00,97.67
1879.00,97.70
1878.00,97.72
1877.00,97.74
1876.00,97.74
1875.00,97.74
1874.00,97.74
1873.00,97.74
1872.00,97.75
1871.00,97.76
1870.00,97.77
1869.00,97.78
1868.00,97.79
1867.00,97.81
1866.00,97.81
1865.00,97.80
1864.00,97.79
1863.00,97.81
1862.00,97.84
1861.00,97.85
1860.00,97.86
1859.00,97.86
1858.00,97.86
1857.00,97.86
1856.00,97.86
1855.00,97.85
1854.00,97.85
1853.00,97.86
1852.00,97.89
1851.00,97.91
1850.00,97.93
1849.00,97.92
1848.00,97.91
1847.00,97.92
1846.00,97.94
1845.00,97.97
1844.00,97.98
1843.00,97.98
1842.00,97.97
1841.00,97.97
1840.00,97.97
1839.00,97.99
1838.00,98.01
1837.00,98.03
1836.00,98.04
1835.00,98.05
1834.00,98.06
1833.00,98.06
1832.00,98.06
1831.00,98.05
1830.00,98.05
1829.00,98.06
1828.00,98.07
1827.00,98.08
1826.00,98.07
1825.00,98.06
1824.00,98.06
1823.00,98.08
1822.00,98.10
1821.00,98.11
1820.00,98.11
1819.00,98.11
1818.00,98.12
1817.00,98.13
1816.00,98.14
1815.00,98.14
1814.00,98.15
1813.00,98.16
1812.00,98.17
1811.00,98.16
1810.00,98.16
1809.00,98.17
1808.00,98.18
1807.00,98.19
1806.00,98.19
1805.00,98.19
1804.00,98.20
1803.00,98.21
1802.00,98.22
1801.00,98.22
1800.00,98.23
1799.00,98.24
1798.00,98.24
1797.00,98.23
1796.00,98.20
1795.00,98.18
1794.00,98.17
1793.00,98.18
1792.00,98.19
1791.00,98.20
1790.00,98.20
1789.00,98.20
1788.00,98.19
1787.00,98.19
1786.00,98.20
1785.00,98.21
1784.00,98.23
1783.00,98.24
1782.00,98.25
1781.00,98.26
1780.00,98.27
1779.00,98.28
1778.00,98.27
1777.00,98.26
1776.00,98.24
1775.00,98.23
1774.00,98.21
1773.00,98.19
1772.00,98.19
1771.00,98.21
1770.00,98.23
1769.00,98.23
1768.00,98.23
1767.00,98.23
1766.00,98.23
1765.00,98.23
1764.00,98.23
1763.00,98.22
1762.00,98.19
1761.00,98.17
1760.00,98.15
1759.00,98.15
1758.00,98.15
1757.00,98.14
1756.00,98.12
1755.00,98.10
1754.00,98.09
1753.00,98.07
1752.00,98.05
1751.00,98.02
1750.00,98.00
1749.00,97.97
1748.00,97.94
1747.00,97.91
1746.00,97.87
1745.00,97.84
1744.00,97.80
1743.00,97.77
1742.00,97.75
1741.00,97.72
1740.00,97.70
1739.00,97.69
1738.00,97.69
1737.00,97.68
1736.00,97.68
1735.00,97.69
1734.00,97.70
1733.00,97.69
1732.00,97.69
1731.00,97.69
1730.00,97.71
1729.00,97.72
1728.00,97.74
1727.00,97.75
1726.00,97.78
1725.00,97.80
1724.00,97.81
1723.00,97.82
1722.00,97.83
1721.00,97.83
1720.00,97.82
1719.00,97.82
1718.00,97.81
1717.00,97.79
1716.00,97.78
1715.00,97.78
1714.00,97.78
1713.00,97.78
1712.00,97.77
1711.00,97.78
1710.00,97.81
1709.00,97.82
1708.00,97.83
1707.00,97.84
1706.00,97.84
1705.00,97.84
1704.00,97.83
1703.00,97.82
1702.00,97.82
1701.00,97.82
1700.00,97.82
1699.00,97.83
1698.00,97.83
1697.00,97.83
1696.00,97.82
1695.00,97.80
1694.00,97.78
1693.00,97.75
1692.00,97.72
1691.00,97.68
1690.00,97.62
1689.00,97.55
1688.00,97.45
1687.00,97.36
1686.00,97.24
1685.00,97.05
1684.00,96.80
1683.00,96.55
1682.00,96.35
1681.00,96.14
1680.00,95.91
1679.00,95.69
1678.00,95.46
1677.00,95.22
1676.00,94.91
1675.00,94.57
1674.00,94.24
1673.00,93.94
1672.00,93.60
1671.00,93.21
1670.00,92.74
1669.00,92.19
1668.00,91.64
1667.00,91.14
1666.00,90.66
1665.00,90.15
1664.00,89.53
1663.00,88.82
1662.00,88.10
1661.00,87.43
1660.00,86.80
1659.00,86.19
1658.00,85.61
1657.00,85.06
1656.00,84.49
1655.00,83.85
1654.00,82.95
1653.00,81.76
1652.00,80.70
1651.00,79.95
1650.00,79.36
1649.00,78.69
1648.00,77.78
1647.00,76.64
1646.00,75.50
1645.00,74.47
1644.00,73.50
1643.00,72.53
1642.00,71.51
1641.00,70.42
1640.00,69.30
1639.00,68.23
1638.00,67.22
1637.00,66.11
1636.00,64.86
1635.00,63.71
1634.00,62.92
1633.00,62.47
1632.00,62.23
1631.00,62.21
1630.00,62.42
1629.00,62.89
1628.00,63.53
1627.00,64.23
1626.00,64.94
1625.00,65.70
1624.00,66.59
1623.00,67.59
1622.00,68.56
1621.00,69.42
1620.00,70.21
1619.00,71.05
1618.00,72.09
1617.00,73.36
1616.00,74.65
1615.00,75.71
1614.00,76.56
1613.00,77.34
1612.00,78.12
1611.00,78.89
1610.00,79.59
1609.00,80.23
1608.00,80.85
1607.00,81.45
1606.00,82.05
1605.00,82.67
1604.00,83.35
1603.00,84.03
1602.00,84.67
1601.00,85.25
1600.00,85.78
1599.00,86.26
1598.00,86.67
1597.00,87.04
1596.00,87.39
1595.00,87.72
1594.00,87.98
1593.00,88.19
1592.00,88.40
1591.00,88.58
1590.00,88.70
1589.00,88.79
1588.00,88.87
1587.00,88.92
1586.00,88.91
1585.00,88.88
1584.00,88.83
1583.00,88.76
1582.00,88.65
1581.00,88.50
1580.00,88.36
1579.00,88.21
1578.00,88.00
1577.00,87.71
1576.00,87.39
1575.00,87.07
1574.00,86.76
1573.00,86.46
1572.00,86.16
1571.00,85.79
1570.00,85.33
1569.00,84.83
1568.00,84.38
1567.00,83.98
1566.00,83.55
1565.00,83.08
1564.00,82.62
1563.00,82.21
1562.00,81.83
1561.00,81.41
1560.00,80.85
1559.00,80.17
1558.00,79.56
1557.00,79.10
1556.00,78.71
1555.00,78.27
1554.00,77.77
1553.00,77.26
1552.00,76.78
1551.00,76.27
1550.00,75.69
1549.00,75.06
1548.00,74.43
1547.00,73.81
1546.00,73.12
1545.00,72.36
1544.00,71.59
1543.00,70.86
1542.00,70.09
1541.00,69.18
1540.00,68.14
1539.00,67.16
1538.00,66.40
1537.00,65.84
1536.00,65.38
1535.00,64.97
1534.00,64.64
1533.00,64.47
1532.00,64.50
1531.00,64.67
1530.00,64.96
1529.00,65.40
1528.00,65.98
1527.00,66.70
1526.00,67.50
1525.00,68.29
1524.00,69.04
1523.00,69.84
1522.00,70.82
1521.00,71.92
1520.00,72.85
1519.00,73.60
1518.00,74.35
1517.00,75.17
1516.00,76.00
1515.00,76.71
1514.00,77.33
1513.00,77.94
1512.00,78.54
1511.00,79.11
1510.00,79.63
1509.00,80.12
1508.00,80.68
1507.00,81.40
1506.00,82.15
1505.00,82.69
1504.00,83.05
1503.00,83.36
1502.00,83.70
1501.00,84.06
1500.00,84.41
1499.00,84.76
1498.00,85.13
1497.00,85.51
1496.00,85.84
1495.00,86.14
1494.00,86.40
1493.00,86.62
1492.00,86.84
1491.00,87.07
1490.00,87.31
1489.00,87.51
1488.00,87.62
1487.00,87.66
1486.00,87.64
1485.00,87.52
1484.00,87.25
1483.00,86.82
1482.00,86.20
1481.00,85.38
1480.00,84.42
1479.00,83.39
1478.00,82.31
1477.00,81.24
1476.00,80.33
1475.00,79.79
1474.00,79.76
1473.00,80.25
1472.00,80.99
1471.00,81.59
1470.00,81.85
1469.00,81.79
1468.00,81.44
1467.00,80.88
1466.00,80.28
1465.00,79.85
1464.00,79.77
1463.00,80.00
1462.00,80.41
1461.00,80.86
1460.00,81.32
1459.00,81.76
1458.00,82.23
1457.00,82.73
1456.00,83.13
1455.00,83.40
1454.00,83.63
1453.00,83.85
1452.00,84.06
1451.00,84.27
1450.00,84.45
1449.00,84.61
1448.00,84.73
1447.00,84.80
1446.00,84.82
1445.00,84.79
1444.00,84.73
1443.00,84.66
1442.00,84.58
1441.00,84.51
1440.00,84.44
1439.00,84.38
1438.00,84.36
1437.00,84.38
1436.00,84.44
1435.00,84.52
1434.00,84.62
1433.00,84.76
1432.00,84.91
1431.00,85.08
1430.00,85.25
1429.00,85.39
1428.00,85.48
1427.00,85.50
1426.00,85.46
1425.00,85.34
1424.00,85.14
1423.00,84.85
1422.00,84.46
1421.00,83.84
1420.00,82.86
1419.00,81.60
1418.00,80.49
1417.00,79.88
1416.00,79.84
1415.00,80.30
1414.00,81.14
1413.00,82.18
1412.00,83.25
1411.00,84.25
1410.00,85.09
1409.00,85.78
1408.00,86.32
1407.00,86.77
1406.00,87.14
1405.00,87.48
1404.00,87.75
1403.00,87.95
1402.00,88.09
1401.00,88.19
1400.00,88.26
1399.00,88.30
1398.00,88.31
1397.00,88.31
1396.00,88.26
1395.00,88.17
1394.00,88.03
1393.00,87.89
1392.00,87.74
1391.00,87.59
1390.00,87.43
1389.00,87.26
1388.00,87.08
1387.00,86.91
1386.00,86.77
1385.00,86.65
1384.00,86.53
1383.00,86.38
1382.00,86.20
1381.00,86.00
1380.00,85.76
1379.00,85.48
1378.00,85.17
1377.00,84.83
1376.00,84.46
1375.00,84.06
1374.00,83.66
1373.00,83.35
1372.00,83.15
1371.00,83.05
1370.00,83.04
1369.00,83.10
1368.00,83.19
1367.00,83.32
1366.00,83.46
1365.00,83.63
1364.00,83.80
1363.00,83.98
1362.00,84.16
1361.00,84.34
1360.00,84.50
1359.00,84.64
1358.00,84.79
1357.00,84.94
1356.00,85.10
1355.00,85.28
1354.00,85.45
1353.00,85.63
1352.00,85.78
1351.00,85.94
1350.00,86.10
1349.00,86.26
1348.00,86.41
1347.00,86.55
1346.00,86.68
1345.00,86.82
1344.00,86.95
1343.00,87.06
1342.00,87.17
1341.00,87.28
1340.00,87.37
1339.00,87.46
1338.00,87.55
1337.00,87.62
1336.00,87.68
1335.00,87.73
1334.00,87.77
1333.00,87.79
1332.00,87.79
1331.00,87.78
1330.00,87.79
1329.00,87.81
1328.00,87.85
1327.00,87.92
1326.00,88.00
1325.00,88.09
1324.00,88.18
1323.00,88.26
1322.00,88.32
1321.00,88.37
1320.00,88.41
1319.00,88.44
1318.00,88.45
1317.00,88.44
1316.00,88.43
1315.00,88.39
1314.00,88.33
1313.00,88.25
1312.00,88.17
1311.00,88.06
1310.00,87.95
1309.00,87.84
1308.00,87.73
1307.00,87.61
1306.00,87.51
1305.00,87.41
1304.00,87.33
1303.00,87.28
1302.00,87.25
1301.00,87.24
1300.00,87.25
1299.00,87.26
1298.00,87.27
1297.00,87.27
1296.00,87.24
1295.00,87.19
1294.00,87.11
1293.00,87.01
1292.00,86.89
1291.00,86.75
1290.00,86.58
1289.00,86.36
1288.00,86.08
1287.00,85.74
1286.00,85.34
1285.00,84.90
1284.00,84.38
1283.00,83.81
1282.00,83.17
1281.00,82.50
1280.00,81.80
1279.00,81.12
1278.00,80.52
1277.00,80.04
1276.00,79.71
1275.00,79.52
1274.00,79.46
1273.00,79.51
1272.00,79.62
1271.00,79.78
1270.00,79.98
1269.00,80.20
1268.00,80.44
1267.00,80.71
1266.00,81.00
1265.00,81.29
1264.00,81.56
1263.00,81.81
1262.00,82.06
1261.00,82.29
1260.00,82.52
1259.00,82.74
1258.00,82.95
1257.00,83.16
1256.00,83.35
1255.00,83.52
1254.00,83.69
1253.00,83.85
1252.00,84.01
1251.00,84.15
1250.00,84.29
1249.00,84.43
1248.00,84.56
1247.00,84.70
1246.00,84.83
1245.00,84.96
1244.00,85.07
1243.00,85.17
1242.00,85.27
1241.00,85.37
1240.00,85.46
1239.00,85.56
1238.00,85.67
1237.00,85.79
1236.00,85.90
1235.00,86.01
1234.00,86.14
1233.00,86.30
1232.00,86.47
1231.00,86.63
1230.00,86.75
1229.00,86.83
1228.00,86.82
1227.00,86.73
1226.00,86.60
1225.00,86.49
1224.00,86.47
1223.00,86.59
1222.00,86.83
1221.00,87.14
1220.00,87.45
1219.00,87.71
1218.00,87.90
1217.00,88.03
1216.00,88.12
1215.00,88.19
1214.00,88.23
1213.00,88.25
1212.00,88.24
1211.00,88.19
1210.00,88.09
1209.00,87.93
1208.00,87.68
1207.00,87.34
1206.00,86.87
1205.00,86.26
1204.00,85.50
1203.00,84.60
1202.00,83.61
1201.00,82.58
1200.00,81.62
1199.00,80.86
1198.00,80.45
1197.00,80.43
1196.00,80.80
1195.00,81.43
1194.00,82.21
1193.00,83.01
1192.00,83.74
1191.00,84.36
1190.00,84.86
1189.00,85.22
1188.00,85.46
1187.00,85.60
1186.00,85.63
1185.00,85.56
1184.00,85.42
1183.00,85.23
1182.00,85.06
1181.00,84.93
1180.00,84.88
1179.00,84.93
1178.00,85.08
1177.00,85.34
1176.00,85.68
1175.00,86.08
1174.00,86.49
1173.00,86.90
1172.00,87.28
1171.00,87.62
1170.00,87.93
1169.00,88.20
1168.00,88.44
1167.00,88.66
1166.00,88.85
1165.00,89.02
1164.00,89.17
1163.00,89.30
1162.00,89.41
1161.00,89.49
1160.00,89.51
1159.00,89.48
1158.00,89.40
1157.00,89.31
1156.00,89.20
1155.00,89.06
1154.00,88.90
1153.00,88.72
1152.00,88.53
1151.00,88.33
1150.00,88.13
1149.00,87.96
1148.00,87.83
1147.00,87.75
1146.00,87.70
1145.00,87.65
1144.00,87.61
1143.00,87.57
1142.00,87.52
1141.00,87.45
1140.00,87.40
1139.00,87.40
1138.00,87.49
1137.00,87.69
1136.00,87.98
1135.00,88.33
1134.00,88.70
1133.00,89.02
1132.00,89.29
1131.00,89.51
1130.00,89.69
1129.00,89.85
1128.00,90.00
1127.00,90.14
1126.00,90.26
1125.00,90.36
1124.00,90.44
1123.00,90.50
1122.00,90.57
1121.00,90.64
1120.00,90.72
1119.00,90.79
1118.00,90.83
1117.00,90.86
1116.00,90.88
1115.00,90.89
1114.00,90.90
1113.00,90.89
1112.00,90.88
1111.00,90.88
1110.00,90.91
1109.00,90.95
1108.00,90.98
1107.00,90.98
1106.00,90.97
1105.00,90.96
1104.00,90.97
1103.00,90.98
1102.00,91.00
1101.00,91.02
1100.00,91.03
1099.00,91.04
1098.00,91.07
1097.00,91.11
1096.00,91.13
1095.00,91.13
1094.00,91.13
1093.00,91.14
1092.00,91.17
1091.00,91.20
1090.00,91.22
1089.00,91.25
1088.00,91.27
1087.00,91.31
1086.00,91.36
1085.00,91.44
1084.00,91.51
1083.00,91.56
1082.00,91.60
1081.00,91.64
1080.00,91.67
1079.00,91.68
1078.00,91.68
1077.00,91.68
1076.00,91.69
1075.00,91.70
1074.00,91.72
1073.00,91.72
1072.00,91.68
1071.00,91.60
1070.00,91.46
1069.00,91.30
1068.00,91.16
1067.00,91.05
1066.00,90.98
1065.00,90.94
1064.00,90.92
1063.00,90.92
1062.00,90.96
1061.00,91.01
1060.00,91.07
1059.00,91.13
1058.00,91.19
1057.00,91.26
1056.00,91.30
1055.00,91.31
1054.00,91.29
1053.00,91.26
1052.00,91.25
1051.00,91.26
1050.00,91.29
1049.00,91.28
1048.00,91.24
1047.00,91.15
1046.00,91.05
1045.00,90.98
1044.00,90.93
1043.00,90.90
1042.00,90.89
1041.00,90.89
1040.00,90.89
1039.00,90.93
1038.00,91.00
1037.00,91.10
1036.00,91.23
1035.00,91.36
1034.00,91.47
1033.00,91.55
1032.00,91.61
1031.00,91.65
1030.00,91.70
1029.00,91.75
1028.00,91.81
1027.00,91.87
1026.00,91.91
1025.00,91.96
1024.00,91.99
1023.00,92.02
1022.00,92.03
1021.00,92.02
1020.00,92.00
1019.00,91.97
1018.00,91.94
1017.00,91.92
1016.00,91.90
1015.00,91.88
1014.00,91.87
1013.00,91.87
1012.00,91.89
1011.00,91.92
1010.00,91.98
1009.00,92.04
1008.00,92.10
1007.00,92.15
1006.00,92.20
1005.00,92.25
1004.00,92.30
1003.00,92.34
1002.00,92.39
1001.00,92.43
1000.00,92.45
999.00,92.45
998.00,92.44
997.00,92.45
996.00,92.48
995.00,92.52
994.00,92.58
993.00,92.64
992.00,92.68
991.00,92.71
990.00,92.71
989.00,92.70
988.00,92.68
987.00,92.68
986.00,92.72
985.00,92.79
984.00,92.88
983.00,92.96
982.00,93.04
981.00,93.10
980.00,93.16
979.00,93.20
978.00,93.22
977.00,93.23
976.00,93.24
975.00,93.24
974.00,93.26
973.00,93.29
972.00,93.32
971.00,93.34
970.00,93.35
969.00,93.34
968.00,93.33
967.00,93.33
966.00,93.34
965.00,93.35
964.00,93.33
963.00,93.29
962.00,93.23
961.00,93.18
960.00,93.14
959.00,93.12
958.00,93.11
957.00,93.10
956.00,93.09
955.00,93.05
954.00,93.00
953.00,92.94
952.00,92.86
951.00,92.78
950.00,92.69
949.00,92.59
948.00,92.49
947.00,92.38
946.00,92.24
945.00,92.07
944.00,91.85
943.00,91.57
942.00,91.20
941.00,90.70
940.00,90.06
939.00,89.26
938.00,88.36
937.00,87.45
936.00,86.67
935.00,86.16
934.00,86.00
933.00,86.18
932.00,86.62
931.00,87.20
930.00,87.82
929.00,88.43
928.00,88.98
927.00,89.45
926.00,89.82
925.00,90.12
924.00,90.38
923.00,90.61
922.00,90.82
921.00,91.01
920.00,91.18
919.00,91.33
918.00,91.46
917.00,91.58
916.00,91.68
915.00,91.75
914.00,91.79
913.00,91.79
912.00,91.76
911.00,91.69
910.00,91.58
909.00,91.41
908.00,91.21
907.00,91.03
906.00,90.95
905.00,90.99
904.00,91.15
903.00,91.38
902.00,91.65
901.00,91.91
900.00,92.15
899.00,92.34
898.00,92.50
897.00,92.62
896.00,92.72
895.00,92.78
894.00,92.82
893.00,92.86
892.00,92.90
891.00,92.94
890.00,92.98
889.00,93.01
888.00,93.04
887.00,93.05
886.00,93.05
885.00,93.05
884.00,93.06
883.00,93.07
882.00,93.09
881.00,93.09
880.00,93.09
879.00,93.10
878.00,93.14
877.00,93.18
876.00,93.21
875.00,93.23
874.00,93.23
873.00,93.25
872.00,93.27
871.00,93.29
870.00,93.33
869.00,93.37
868.00,93.41
867.00,93.44
866.00,93.44
865.00,93.41
864.00,93.37
863.00,93.34
862.00,93.32
861.00,93.33
860.00,93.34
859.00,93.34
858.00,93.34
857.00,93.33
856.00,93.31
855.00,93.29
854.00,93.28
853.00,93.28
852.00,93.28
851.00,93.27
850.00,93.25
849.00,93.22
848.00,93.20
847.00,93.18
846.00,93.17
845.00,93.16
844.00,93.15
843.00,93.14
842.00,93.12
841.00,93.10
840.00,93.08
839.00,93.07
838.00,93.06
837.00,93.05
836.00,93.03
835.00,92.99
834.00,92.98
833.00,92.98
832.00,92.97
831.00,92.96
830.00,92.93
829.00,92.91
828.00,92.90
827.00,92.90
826.00,92.90
825.00,92.89
824.00,92.87
823.00,92.83
822.00,92.80
821.00,92.77
820.00,92.73
819.00,92.67
818.00,92.60
817.00,92.54
816.00,92.49
815.00,92.46
814.00,92.45
813.00,92.45
812.00,92.43
811.00,92.39
810.00,92.34
809.00,92.30
808.00,92.27
807.00,92.22
806.00,92.17
805.00,92.09
804.00,91.99
803.00,91.88
802.00,91.77
801.00,91.68
800.00,91.58
799.00,91.49
798.00,91.41
797.00,91.34
796.00,91.29
795.00,91.27
794.00,91.30
793.00,91.34
792.00,91.36
791.00,91.35
790.00,91.32
789.00,91.27
788.00,91.22
787.00,91.17
786.00,91.15
785.00,91.15
784.00,91.14
783.00,91.08
782.00,91.00
781.00,90.90
780.00,90.81
779.00,90.73
778.00,90.68
777.00,90.64
776.00,90.60
775.00,90.55
774.00,90.49
773.00,90.42
772.00,90.33
771.00,90.22
770.00,90.09
769.00,89.94
768.00,89.80
767.00,89.68
766.00,89.59
765.00,89.54
764.00,89.49
763.00,89.42
762.00,89.34
761.00,89.25
760.00,89.15
759.00,89.04
758.00,88.90
757.00,88.75
756.00,88.62
755.00,88.53
754.00,88.48
753.00,88.44
752.00,88.36
751.00,88.25
750.00,88.16
749.00,88.09
748.00,88.05
747.00,88.01
746.00,87.95
745.00,87.87
744.00,87.75
743.00,87.60
742.00,87.43
741.00,87.20
740.00,86.90
739.00,86.49
738.00,85.98
737.00,85.42
736.00,84.85
735.00,84.29
734.00,83.70
733.00,83.08
732.00,82.42
731.00,81.81
730.00,81.34
729.00,81.07
728.00,80.98
727.00,81.03
726.00,81.13
725.00,81.24
724.00,81.33
723.00,81.41
722.00,81.46
721.00,81.46
720.00,81.43
719.00,81.37
718.00,81.33
717.00,81.29
716.00,81.24
715.00,81.18
714.00,81.10
713.00,80.99
712.00,80.85
711.00,80.72
710.00,80.62
709.00,80.53
708.00,80.44
707.00,80.32
706.00,80.16
705.00,79.94
704.00,79.65
703.00,79.32
702.00,78.97
701.00,78.60
700.00,78.21
699.00,77.78
698.00,77.30
697.00,76.75
696.00,76.14
695.00,75.53
694.00,74.93
693.00,74.35
692.00,73.81
691.00,73.32
690.00,72.91
689.00,72.54
688.00,72.20
687.00,71.91
686.00,71.71
685.00,71.62
684.00,71.64
683.00,71.74
682.00,71.89
681.00,72.04
680.00,72.20
679.00,72.37
678.00,72.56
677.00,72.76
676.00,72.95
675.00,73.15
674.00,73.39
673.00,73.65
672.00,73.88
671.00,74.09
670.00,74.31
669.00,74.66
668.00,75.18
667.00,75.62
666.00,75.81
665.00,75.91
664.00,76.01
663.00,76.18
662.00,76.44
661.00,76.78
660.00,77.13
659.00,77.43
658.00,77.66
657.00,77.86
656.00,78.08
655.00,78.32
654.00,78.55
653.00,78.73
652.00,78.88
651.00,79.03
650.00,79.18
649.00,79.34
648.00,79.54
647.00,79.79
646.00,80.03
645.00,80.20
644.00,80.27
643.00,80.29
642.00,80.31
641.00,80.38
640.00,80.52
639.00,80.71
638.00,80.92
637.00,81.11
636.00,81.23
635.00,81.30
634.00,81.30
633.00,81.24
632.00,81.14
631.00,81.03
630.00,80.93
629.00,80.90
628.00,81.00
627.00,81.25
626.00,81.57
625.00,81.80
624.00,81.84
623.00,81.70
622.00,81.52
621.00,81.37
620.00,81.29
619.00,81.32
618.00,81.47
617.00,81.66
616.00,81.74
615.00,81.63
614.00,81.46
613.00,81.37
612.00,81.44
611.00,81.62
610.00,81.80
609.00,81.83
608.00,81.66
607.00,81.34
606.00,80.99
605.00,80.70
604.00,80.50
603.00,80.33
602.00,80.16
601.00,79.98
600.00,79.87
599.00,79.87
598.00,79.90
597.00,79.82
596.00,79.61
595.00,79.37
594.00,79.15
593.00,78.87
592.00,78.42
591.00,77.85
590.00,77.19
589.00,76.47
588.00,75.69
587.00,75.00
586.00,74.46
585.00,73.96
584.00,73.40
583.00,72.82
582.00,72.22
581.00,71.39
580.00,70.26
579.00,69.19
578.00,68.65
577.00,68.68
576.00,69.09
575.00,69.78
574.00,70.54
573.00,71.09
572.00,71.46
571.00,71.89
570.00,72.40
569.00,72.72
568.00,72.88
567.00,73.25
566.00,73.88
565.00,74.25
564.00,74.01
563.00,73.54
562.00,73.46
561.00,73.84
560.00,74.30
559.00,74.55
558.00,74.68
557.00,74.91
556.00,75.41
555.00,76.26
554.00,77.20
553.00,77.79
552.00,77.82
551.00,77.56
550.00,77.32
