Created as New Dataset,91 Du Pont
cm-1,%T
4000.00,99.65
3999.00,99.63
3998.00,99.61
3997.00,99.60
3996.00,99.60
3995.00,99.61
3994.00,99.62
3993.00,99.64
3992.00,99.65
3991.00,99.66
3990.00,99.66
3989.00,99.65
3988.00,99.63
3987.00,99.62
3986.00,99.60
3985.00,99.59
3984.00,99.59
3983.00,99.59
3982.00,99.60
3981.00,99.62
3980.00,99.63
3979.00,99.64
3978.00,99.63
3977.00,99.61
3976.00,99.59
3975.00,99.58
3974.00,99.58
3973.00,99.59
3972.00,99.60
3971.00,99.61
3970.00,99.61
3969.00,99.60
3968.00,99.60
3967.00,99.61
3966.00,99.61
3965.00,99.62
3964.00,99.63
3963.00,99.65
3962.00,99.65
3961.00,99.66
3960.00,99.66
3959.00,99.66
3958.00,99.67
3957.00,99.68
3956.00,99.69
3955.00,99.70
3954.00,99.71
3953.00,99.71
3952.00,99.71
3951.00,99.70
3950.00,99.69
3949.00,99.68
3948.00,99.68
3947.00,99.69
3946.00,99.70
3945.00,99.72
3944.00,99.72
3943.00,99.70
3942.00,99.68
3941.00,99.65
3940.00,99.64
3939.00,99.64
3938.00,99.64
3937.00,99.64
3936.00,99.63
3935.00,99.63
3934.00,99.62
3933.00,99.62
3932.00,99.62
3931.00,99.62
3930.00,99.62
3929.00,99.62
3928.00,99.61
3927.00,99.61
3926.00,99.62
3925.00,99.63
3924.00,99.64
3923.00,99.65
3922.00,99.64
3921.00,99.61
3920.00,99.58
3919.00,99.55
3918.00,99.54
3917.00,99.55
3916.00,99.57
3915.00,99.60
3914.00,99.61
3913.00,99.61
3912.00,99.61
3911.00,99.60
3910.00,99.60
3909.00,99.59
3908.00,99.60
3907.00,99.61
3906.00,99.63
3905.00,99.66
3904.00,99.68
3903.00,99.69
3902.00,99.68
3901.00,99.66
3900.00,99.63
3899.00,99.62
3898.00,99.61
3897.00,99.62
3896.00,99.63
3895.00,99.64
3894.00,99.64
3893.00,99.63
3892.00,99.62
3891.00,99.60
3890.00,99.58
3889.00,99.57
3888.00,99.58
3887.00,99.59
3886.00,99.58
3885.00,99.56
3884.00,99.54
3883.00,99.55
3882.00,99.58
3881.00,99.62
3880.00,99.65
3879.00,99.66
3878.00,99.66
3877.00,99.64
3876.00,99.62
3875.00,99.58
3874.00,99.55
3873.00,99.52
3872.00,99.50
3871.00,99.48
3870.00,99.47
3869.00,99.46
3868.00,99.45
3867.00,99.46
3866.00,99.49
3865.00,99.52
3864.00,99.54
3863.00,99.55
3862.00,99.56
3861.00,99.57
3860.00,99.58
3859.00,99.58
3858.00,99.57
3857.00,99.55
3856.00,99.54
3855.00,99.53
3854.00,99.53
3853.00,99.52
3852.00,99.51
3851.00,99.51
3850.00,99.52
3849.00,99.53
3848.00,99.54
3847.00,99.54
3846.00,99.54
3845.00,99.53
3844.00,99.50
3843.00,99.47
3842.00,99.45
3841.00,99.44
3840.00,99.46
3839.00,99.48
3838.00,99.51
3837.00,99.53
3836.00,99.54
3835.00,99.55
3834.00,99.55
3833.00,99.54
3832.00,99.52
3831.00,99.49
3830.00,99.48
3829.00,99.48
3828.00,99.48
3827.00,99.48
3826.00,99.47
3825.00,99.47
3824.00,99.47
3823.00,99.47
3822.00,99.47
3821.00,99.47
3820.00,99.46
3819.00,99.46
3818.00,99.48
3817.00,99.49
3816.00,99.49
3815.00,99.48
3814.00,99.47
3813.00,99.48
3812.00,99.50
3811.00,99.52
3810.00,99.52
3809.00,99.52
3808.00,99.51
3807.00,99.49
3806.00,99.47
3805.00,99.46
3804.00,99.47
3803.00,99.48
3802.00,99.49
3801.00,99.48
3800.00,99.46
3799.00,99.44
3798.00,99.43
3797.00,99.42
3796.00,99.43
3795.00,99.44
3794.00,99.46
3793.00,99.48
3792.00,99.49
3791.00,99.50
3790.00,99.51
3789.00,99.51
3788.00,99.51
3787.00,99.51
3786.00,99.50
3785.00,99.50
3784.00,99.50
3783.00,99.49
3782.00,99.49
3781.00,99.49
3780.00,99.50
3779.00,99.50
3778.00,99.51
3777.00,99.52
3776.00,99.52
3775.00,99.51
3774.00,99.50
3773.00,99.48
3772.00,99.45
3771.00,99.44
3770.00,99.43
3769.00,99.43
3768.00,99.43
3767.00,99.45
3766.00,99.46
3765.00,99.46
3764.00,99.45
3763.00,99.43
3762.00,99.42
3761.00,99.41
3760.00,99.41
3759.00,99.39
3758.00,99.38
3757.00,99.38
3756.00,99.37
3755.00,99.36
3754.00,99.35
3753.00,99.35
3752.00,99.36
3751.00,99.37
3750.00,99.36
3749.00,99.35
3748.00,99.34
3747.00,99.34
3746.00,99.35
3745.00,99.34
3744.00,99.32
3743.00,99.31
3742.00,99.31
3741.00,99.31
3740.00,99.31
3739.00,99.31
3738.00,99.30
3737.00,99.30
3736.00,99.31
3735.00,99.33
3734.00,99.33
3733.00,99.33
3732.00,99.34
3731.00,99.35
3730.00,99.37
3729.00,99.39
3728.00,99.38
3727.00,99.36
3726.00,99.33
3725.00,99.30
3724.00,99.29
3723.00,99.29
3722.00,99.30
3721.00,99.31
3720.00,99.32
3719.00,99.32
3718.00,99.33
3717.00,99.32
3716.00,99.32
3715.00,99.33
3714.00,99.33
3713.00,99.33
3712.00,99.32
3711.00,99.31
3710.00,99.29
3709.00,99.29
3708.00,99.29
3707.00,99.29
3706.00,99.29
3705.00,99.28
3704.00,99.27
3703.00,99.27
3702.00,99.29
3701.00,99.30
3700.00,99.31
3699.00,99.30
3698.00,99.28
3697.00,99.27
3696.00,99.27
3695.00,99.28
3694.00,99.28
3693.00,99.25
3692.00,99.23
3691.00,99.22
3690.00,99.23
3689.00,99.25
3688.00,99.25
3687.00,99.25
3686.00,99.25
3685.00,99.25
3684.00,99.26
3683.00,99.26
3682.00,99.24
3681.00,99.22
3680.00,99.19
3679.00,99.17
3678.00,99.17
3677.00,99.18
3676.00,99.19
3675.00,99.19
3674.00,99.18
3673.00,99.17
3672.00,99.18
3671.00,99.17
3670.00,99.15
3669.00,99.13
3668.00,99.11
3667.00,99.12
3666.00,99.14
3665.00,99.16
3664.00,99.19
3663.00,99.22
3662.00,99.23
3661.00,99.23
3660.00,99.21
3659.00,99.18
3658.00,99.14
3657.00,99.10
3656.00,99.07
3655.00,99.05
3654.00,99.04
3653.00,99.04
3652.00,99.05
3651.00,99.04
3650.00,99.03
3649.00,99.02
3648.00,99.01
3647.00,99.02
3646.00,99.04
3645.00,99.06
3644.00,99.09
3643.00,99.11
3642.00,99.12
3641.00,99.11
3640.00,99.10
3639.00,99.08
3638.00,99.06
3637.00,99.04
3636.00,99.04
3635.00,99.05
3634.00,99.04
3633.00,99.03
3632.00,99.01
3631.00,99.01
3630.00,99.04
3629.00,99.07
3628.00,99.08
3627.00,99.06
3626.00,99.05
3625.00,99.04
3624.00,99.04
3623.00,99.05
3622.00,99.04
3621.00,99.03
3620.00,99.01
3619.00,98.99
3618.00,98.97
3617.00,98.96
3616.00,98.97
3615.00,98.98
3614.00,98.99
3613.00,98.98
3612.00,98.96
3611.00,98.94
3610.00,98.93
3609.00,98.94
3608.00,98.94
3607.00,98.93
3606.00,98.91
3605.00,98.89
3604.00,98.87
3603.00,98.86
3602.00,98.86
3601.00,98.87
3600.00,98.88
3599.00,98.88
3598.00,98.87
3597.00,98.86
3596.00,98.86
3595.00,98.87
3594.00,98.88
3593.00,98.87
3592.00,98.85
3591.00,98.84
3590.00,98.85
3589.00,98.86
3588.00,98.85
3587.00,98.81
3586.00,98.75
3585.00,98.71
3584.00,98.70
3583.00,98.71
3582.00,98.74
3581.00,98.77
3580.00,98.78
3579.00,98.77
3578.00,98.75
3577.00,98.73
3576.00,98.73
3575.00,98.74
3574.00,98.75
3573.00,98.75
3572.00,98.73
3571.00,98.71
3570.00,98.67
3569.00,98.63
3568.00,98.60
3567.00,98.58
3566.00,98.55
3565.00,98.54
3564.00,98.53
3563.00,98.53
3562.00,98.53
3561.00,98.52
3560.00,98.53
3559.00,98.53
3558.00,98.54
3557.00,98.53
3556.00,98.51
3555.00,98.48
3554.00,98.45
3553.00,98.43
3552.00,98.44
3551.00,98.45
3550.00,98.45
3549.00,98.45
3548.00,98.43
3547.00,98.39
3546.00,98.36
3545.00,98.35
3544.00,98.34
3543.00,98.35
3542.00,98.35
3541.00,98.34
3540.00,98.33
3539.00,98.33
3538.00,98.33
3537.00,98.33
3536.00,98.34
3535.00,98.34
3534.00,98.33
3533.00,98.32
3532.00,98.30
3531.00,98.27
3530.00,98.24
3529.00,98.19
3528.00,98.15
3527.00,98.13
3526.00,98.11
3525.00,98.12
3524.00,98.14
3523.00,98.16
3522.00,98.17
3521.00,98.17
3520.00,98.16
3519.00,98.13
3518.00,98.09
3517.00,98.05
3516.00,98.02
3515.00,98.02
3514.00,98.02
3513.00,98.01
3512.00,97.99
3511.00,97.96
3510.00,97.94
3509.00,97.93
3508.00,97.91
3507.00,97.89
3506.00,97.88
3505.00,97.87
3504.00,97.89
3503.00,97.90
3502.00,97.91
3501.00,97.90
3500.00,97.87
3499.00,97.84
3498.00,97.82
3497.00,97.81
3496.00,97.81
3495.00,97.82
3494.00,97.83
3493.00,97.84
3492.00,97.84
3491.00,97.83
3490.00,97.82
3489.00,97.81
3488.00,97.81
3487.00,97.81
3486.00,97.80
3485.00,97.79
3484.00,97.78
3483.00,97.78
3482.00,97.77
3481.00,97.74
3480.00,97.71
3479.00,97.68
3478.00,97.66
3477.00,97.65
3476.00,97.66
3475.00,97.69
3474.00,97.72
3473.00,97.74
3472.00,97.75
3471.00,97.75
3470.00,97.74
3469.00,97.72
3468.00,97.69
3467.00,97.67
3466.00,97.66
3465.00,97.66
3464.00,97.68
3463.00,97.70
3462.00,97.70
3461.00,97.69
3460.00,97.67
3459.00,97.63
3458.00,97.60
3457.00,97.59
3456.00,97.60
3455.00,97.62
3454.00,97.62
3453.00,97.59
3452.00,97.55
3451.00,97.50
3450.00,97.48
3449.00,97.49
3448.00,97.50
3447.00,97.51
3446.00,97.51
3445.00,97.50
3444.00,97.49
3443.00,97.49
3442.00,97.49
3441.00,97.50
3440.00,97.50
3439.00,97.50
3438.00,97.49
3437.00,97.48
3436.00,97.48
3435.00,97.49
3434.00,97.48
3433.00,97.47
3432.00,97.46
3431.00,97.46
3430.00,97.46
3429.00,97.47
3428.00,97.47
3427.00,97.46
3426.00,97.45
3425.00,97.45
3424.00,97.44
3423.00,97.42
3422.00,97.40
3421.00,97.38
3420.00,97.37
3419.00,97.37
3418.00,97.36
3417.00,97.36
3416.00,97.35
3415.00,97.36
3414.00,97.37
3413.00,97.37
3412.00,97.38
3411.00,97.37
3410.00,97.37
3409.00,97.35
3408.00,97.33
3407.00,97.29
3406.00,97.25
3405.00,97.23
3404.00,97.21
3403.00,97.21
3402.00,97.21
3401.00,97.21
3400.00,97.21
3399.00,97.20
3398.00,97.19
3397.00,97.18
3396.00,97.17
3395.00,97.14
3394.00,97.10
3393.00,97.06
3392.00,97.03
3391.00,97.02
3390.00,97.00
3389.00,96.98
3388.00,96.96
3387.00,96.94
3386.00,96.93
3385.00,96.92
3384.00,96.91
3383.00,96.88
3382.00,96.84
3381.00,96.81
3380.00,96.79
3379.00,96.78
3378.00,96.77
3377.00,96.73
3376.00,96.69
3375.00,96.64
3374.00,96.60
3373.00,96.56
3372.00,96.53
3371.00,96.49
3370.00,96.45
3369.00,96.41
3368.00,96.37
3367.00,96.32
3366.00,96.27
3365.00,96.21
3364.00,96.15
3363.00,96.09
3362.00,96.04
3361.00,95.99
3360.00,95.93
3359.00,95.87
3358.00,95.79
3357.00,95.72
3356.00,95.65
3355.00,95.57
3354.00,95.49
3353.00,95.41
3352.00,95.33
3351.00,95.25
3350.00,95.16
3349.00,95.07
3348.00,94.97
3347.00,94.87
3346.00,94.77
3345.00,94.66
3344.00,94.54
3343.00,94.41
3342.00,94.28
3341.00,94.14
3340.00,94.01
3339.00,93.87
3338.00,93.73
3337.00,93.59
3336.00,93.43
3335.00,93.25
3334.00,93.05
3333.00,92.84
3332.00,92.63
3331.00,92.43
3330.00,92.23
3329.00,92.03
3328.00,91.83
3327.00,91.60
3326.00,91.35
3325.00,91.09
3324.00,90.82
3323.00,90.54
3322.00,90.24
3321.00,89.93
3320.00,89.60
3319.00,89.26
3318.00,88.92
3317.00,88.57
3316.00,88.20
3315.00,87.82
3314.00,87.43
3313.00,87.02
3312.00,86.61
3311.00,86.20
3310.00,85.81
3309.00,85.43
3308.00,85.08
3307.00,84.74
3306.00,84.43
3305.00,84.14
3304.00,83.86
3303.00,83.61
3302.00,83.40
3301.00,83.22
3300.00,83.08
3299.00,82.96
3298.00,82.88
3297.00,82.82
3296.00,82.80
3295.00,82.82
3294.00,82.89
3293.00,83.00
3292.00,83.12
3291.00,83.26
3290.00,83.40
3289.00,83.57
3288.00,83.75
3287.00,83.96
3286.00,84.17
3285.00,84.37
3284.00,84.57
3283.00,84.77
3282.00,84.98
3281.00,85.18
3280.00,85.39
3279.00,85.58
3278.00,85.77
3277.00,85.96
3276.00,86.15
3275.00,86.34
3274.00,86.53
3273.00,86.74
3272.00,86.95
3271.00,87.17
3270.00,87.37
3269.00,87.56
3268.00,87.74
3267.00,87.92
3266.00,88.12
3265.00,88.32
3264.00,88.51
3263.00,88.70
3262.00,88.88
3261.00,89.06
3260.00,89.25
3259.00,89.45
3258.00,89.64
3257.00,89.83
3256.00,90.01
3255.00,90.19
3254.00,90.36
3253.00,90.52
3252.00,90.68
3251.00,90.83
3250.00,90.99
3249.00,91.15
3248.00,91.32
3247.00,91.50
3246.00,91.66
3245.00,91.81
3244.00,91.94
3243.00,92.06
3242.00,92.18
3241.00,92.31
3240.00,92.45
3239.00,92.60
3238.00,92.73
3237.00,92.86
3236.00,92.98
3235.00,93.10
3234.00,93.21
3233.00,93.30
3232.00,93.39
3231.00,93.46
3230.00,93.53
3229.00,93.62
3228.00,93.70
3227.00,93.80
3226.00,93.88
3225.00,93.96
3224.00,94.03
3223.00,94.09
3222.00,94.16
3221.00,94.22
3220.00,94.27
3219.00,94.31
3218.00,94.33
3217.00,94.36
3216.00,94.39
3215.00,94.44
3214.00,94.50
3213.00,94.55
3212.00,94.60
3211.00,94.63
3210.00,94.65
3209.00,94.67
3208.00,94.70
3207.00,94.73
3206.00,94.76
3205.00,94.80
3204.00,94.83
3203.00,94.86
3202.00,94.89
3201.00,94.91
3200.00,94.94
3199.00,94.98
3198.00,95.03
3197.00,95.08
3196.00,95.13
3195.00,95.16
3194.00,95.18
3193.00,95.19
3192.00,95.22
3191.00,95.25
3190.00,95.29
3189.00,95.34
3188.00,95.38
3187.00,95.43
3186.00,95.48
3185.00,95.52
3184.00,95.57
3183.00,95.61
3182.00,95.65
3181.00,95.69
3180.00,95.74
3179.00,95.79
3178.00,95.84
3177.00,95.88
3176.00,95.93
3175.00,95.97
3174.00,96.02
3173.00,96.08
3172.00,96.14
3171.00,96.21
3170.00,96.27
3169.00,96.32
3168.00,96.36
3167.00,96.41
3166.00,96.45
3165.00,96.48
3164.00,96.50
3163.00,96.53
3162.00,96.56
3161.00,96.60
3160.00,96.65
3159.00,96.69
3158.00,96.73
3157.00,96.76
3156.00,96.78
3155.00,96.80
3154.00,96.82
3153.00,96.86
3152.00,96.90
3151.00,96.92
3150.00,96.93
3149.00,96.92
3148.00,96.92
3147.00,96.93
3146.00,96.94
3145.00,96.95
3144.00,96.97
3143.00,96.98
3142.00,97.00
3141.00,97.01
3140.00,97.02
3139.00,97.03
3138.00,97.02
3137.00,97.01
3136.00,97.01
3135.00,97.00
3134.00,97.00
3133.00,97.00
3132.00,97.00
3131.00,97.00
3130.00,96.99
3129.00,96.98
3128.00,96.95
3127.00,96.92
3126.00,96.90
3125.00,96.89
3124.00,96.88
3123.00,96.89
3122.00,96.90
3121.00,96.88
3120.00,96.85
3119.00,96.80
3118.00,96.75
3117.00,96.70
3116.00,96.65
3115.00,96.61
3114.00,96.57
3113.00,96.54
3112.00,96.52
3111.00,96.50
3110.00,96.48
3109.00,96.44
3108.00,96.38
3107.00,96.32
3106.00,96.26
3105.00,96.21
3104.00,96.17
3103.00,96.14
3102.00,96.10
3101.00,96.05
3100.00,95.99
3099.00,95.91
3098.00,95.84
3097.00,95.77
3096.00,95.71
3095.00,95.67
3094.00,95.62
3093.00,95.57
3092.00,95.52
3091.00,95.48
3090.00,95.45
3089.00,95.43
3088.00,95.42
3087.00,95.40
3086.00,95.37
3085.00,95.34
3084.00,95.32
3083.00,95.30
3082.00,95.29
3081.00,95.29
3080.00,95.29
3079.00,95.30
3078.00,95.31
3077.00,95.31
3076.00,95.32
3075.00,95.33
3074.00,95.34
3073.00,95.34
3072.00,95.35
3071.00,95.36
3070.00,95.38
3069.00,95.39
3068.00,95.41
3067.00,95.42
3066.00,95.44
3065.00,95.47
3064.00,95.49
3063.00,95.51
3062.00,95.53
3061.00,95.56
3060.00,95.62
3059.00,95.70
3058.00,95.78
3057.00,95.85
3056.00,95.91
3055.00,95.98
3054.00,96.05
3053.00,96.13
3052.00,96.21
3051.00,96.28
3050.00,96.35
3049.00,96.42
3048.00,96.50
3047.00,96.59
3046.00,96.67
3045.00,96.74
3044.00,96.81
3043.00,96.87
3042.00,96.92
3041.00,96.96
3040.00,97.00
3039.00,97.06
3038.00,97.11
3037.00,97.16
3036.00,97.20
3035.00,97.25
3034.00,97.30
3033.00,97.35
3032.00,97.40
3031.00,97.43
3030.00,97.46
3029.00,97.48
3028.00,97.50
3027.00,97.52
3026.00,97.55
3025.00,97.58
3024.00,97.62
3023.00,97.65
3022.00,97.68
3021.00,97.69
3020.00,97.69
3019.00,97.69
3018.00,97.70
3017.00,97.72
3016.00,97.73
3015.00,97.73
3014.00,97.73
3013.00,97.73
3012.00,97.75
3011.00,97.77
3010.00,97.79
3009.00,97.80
3008.00,97.81
3007.00,97.80
3006.00,97.79
3005.00,97.77
3004.00,97.77
3003.00,97.78
3002.00,97.79
3001.00,97.79
3000.00,97.79
2999.00,97.79
2998.00,97.79
2997.00,97.78
2996.00,97.75
2995.00,97.72
2994.00,97.69
2993.00,97.66
2992.00,97.63
2991.00,97.60
2990.00,97.56
2989.00,97.53
2988.00,97.50
2987.00,97.45
2986.00,97.38
2985.00,97.31
2984.00,97.25
2983.00,97.18
2982.00,97.11
2981.00,97.02
2980.00,96.91
2979.00,96.79
2978.00,96.66
2977.00,96.53
2976.00,96.40
2975.00,96.26
2974.00,96.11
2973.00,95.95
2972.00,95.79
2971.00,95.62
2970.00,95.46
2969.00,95.30
2968.00,95.12
2967.00,94.94
2966.00,94.76
2965.00,94.58
2964.00,94.40
2963.00,94.21
2962.00,94.01
2961.00,93.80
2960.00,93.59
2959.00,93.37
2958.00,93.13
2957.00,92.85
2956.00,92.54
2955.00,92.20
2954.00,91.84
2953.00,91.46
2952.00,91.04
2951.00,90.60
2950.00,90.15
2949.00,89.70
2948.00,89.25
2947.00,88.83
2946.00,88.42
2945.00,88.05
2944.00,87.68
2943.00,87.33
2942.00,86.97
2941.00,86.62
2940.00,86.29
2939.00,85.98
2938.00,85.70
2937.00,85.46
2936.00,85.25
2935.00,85.08
2934.00,84.96
2933.00,84.91
2932.00,84.92
2931.00,84.99
2930.00,85.13
2929.00,85.32
2928.00,85.56
2927.00,85.80
2926.00,86.05
2925.00,86.29
2924.00,86.54
2923.00,86.80
2922.00,87.06
2921.00,87.32
2920.00,87.59
2919.00,87.86
2918.00,88.13
2917.00,88.39
2916.00,88.62
2915.00,88.83
2914.00,89.02
2913.00,89.21
2912.00,89.39
2911.00,89.57
2910.00,89.75
2909.00,89.93
2908.00,90.12
2907.00,90.33
2906.00,90.54
2905.00,90.75
2904.00,90.97
2903.00,91.19
2902.00,91.41
2901.00,91.65
2900.00,91.88
2899.00,92.09
2898.00,92.27
2897.00,92.43
2896.00,92.57
2895.00,92.71
2894.00,92.84
2893.00,92.97
2892.00,93.09
2891.00,93.18
2890.00,93.23
2889.00,93.25
2888.00,93.21
2887.00,93.15
2886.00,93.07
2885.00,92.97
2884.00,92.84
2883.00,92.68
2882.00,92.50
2881.00,92.28
2880.00,92.05
2879.00,91.80
2878.00,91.56
2877.00,91.32
2876.00,91.10
2875.00,90.89
2874.00,90.70
2873.00,90.54
2872.00,90.40
2871.00,90.28
2870.00,90.17
2869.00,90.04
2868.00,89.89
2867.00,89.72
2866.00,89.55
2865.00,89.38
2864.00,89.20
2863.00,89.02
2862.00,88.87
2861.00,88.76
2860.00,88.74
2859.00,88.78
2858.00,88.90
2857.00,89.07
2856.00,89.31
2855.00,89.61
2854.00,89.96
2853.00,90.36
2852.00,90.78
2851.00,91.23
2850.00,91.70
2849.00,92.16
2848.00,92.61
2847.00,93.03
2846.00,93.44
2845.00,93.82
2844.00,94.17
2843.00,94.48
2842.00,94.76
2841.00,95.01
2840.00,95.24
2839.00,95.44
2838.00,95.60
2837.00,95.73
2836.00,95.84
2835.00,95.94
2834.00,96.03
2833.00,96.11
2832.00,96.17
2831.00,96.22
2830.00,96.27
2829.00,96.32
2828.00,96.36
2827.00,96.39
2826.00,96.42
2825.00,96.45
2824.00,96.49
2823.00,96.54
2822.00,96.59
2821.00,96.64
2820.00,96.68
2819.00,96.73
2818.00,96.77
2817.00,96.81
2816.00,96.85
2815.00,96.88
2814.00,96.91
2813.00,96.94
2812.00,96.98
2811.00,97.01
2810.00,97.05
2809.00,97.08
2808.00,97.12
2807.00,97.15
2806.00,97.18
2805.00,97.20
2804.00,97.22
2803.00,97.24
2802.00,97.28
2801.00,97.31
2800.00,97.35
2799.00,97.37
2798.00,97.39
2797.00,97.40
2796.00,97.41
2795.00,97.43
2794.00,97.46
2793.00,97.48
2792.00,97.50
2791.00,97.51
2790.00,97.52
2789.00,97.53
2788.00,97.54
2787.00,97.56
2786.00,97.57
2785.00,97.58
2784.00,97.59
2783.00,97.60
2782.00,97.61
2781.00,97.61
2780.00,97.62
2779.00,97.63
2778.00,97.65
2777.00,97.67
2776.00,97.69
2775.00,97.70
2774.00,97.70
2773.00,97.71
2772.00,97.72
2771.00,97.73
2770.00,97.74
2769.00,97.75
2768.00,97.76
2767.00,97.77
2766.00,97.78
2765.00,97.78
2764.00,97.78
2763.00,97.78
2762.00,97.79
2761.00,97.80
2760.00,97.81
2759.00,97.83
2758.00,97.86
2757.00,97.87
2756.00,97.88
2755.00,97.88
2754.00,97.87
2753.00,97.86
2752.00,97.86
2751.00,97.86
2750.00,97.86
2749.00,97.86
2748.00,97.86
2747.00,97.87
2746.00,97.87
2745.00,97.87
2744.00,97.87
2743.00,97.89
2742.00,97.90
2741.00,97.91
2740.00,97.92
2739.00,97.93
2738.00,97.94
2737.00,97.95
2736.00,97.96
2735.00,97.97
2734.00,97.98
2733.00,97.99
2732.00,98.01
2731.00,98.02
2730.00,98.03
2729.00,98.04
2728.00,98.04
2727.00,98.04
2726.00,98.04
2725.00,98.05
2724.00,98.06
2723.00,98.08
2722.00,98.10
2721.00,98.12
2720.00,98.14
2719.00,98.15
2718.00,98.16
2717.00,98.16
2716.00,98.17
2715.00,98.18
2714.00,98.20
2713.00,98.21
2712.00,98.21
2711.00,98.20
2710.00,98.19
2709.00,98.19
2708.00,98.19
2707.00,98.20
2706.00,98.22
2705.00,98.23
2704.00,98.23
2703.00,98.23
2702.00,98.22
2701.00,98.22
2700.00,98.21
2699.00,98.21
2698.00,98.21
2697.00,98.21
2696.00,98.21
2695.00,98.21
2694.00,98.21
2693.00,98.22
2692.00,98.24
2691.00,98.25
2690.00,98.27
2689.00,98.28
2688.00,98.29
2687.00,98.29
2686.00,98.29
2685.00,98.28
2684.00,98.28
2683.00,98.28
2682.00,98.29
2681.00,98.30
2680.00,98.30
2679.00,98.29
2678.00,98.28
2677.00,98.27
2676.00,98.26
2675.00,98.26
2674.00,98.27
2673.00,98.28
2672.00,98.29
2671.00,98.28
2670.00,98.28
2669.00,98.29
2668.00,98.30
2667.00,98.31
2666.00,98.32
2665.00,98.33
2664.00,98.32
2663.00,98.32
2662.00,98.31
2661.00,98.30
2660.00,98.29
2659.00,98.29
2658.00,98.29
2657.00,98.29
2656.00,98.29
2655.00,98.29
2654.00,98.27
2653.00,98.25
2652.00,98.22
2651.00,98.20
2650.00,98.20
2649.00,98.20
2648.00,98.20
2647.00,98.20
2646.00,98.20
2645.00,98.20
2644.00,98.20
2643.00,98.20
2642.00,98.20
2641.00,98.19
2640.00,98.18
2639.00,98.16
2638.00,98.14
2637.00,98.12
2636.00,98.11
2635.00,98.11
2634.00,98.12
2633.00,98.12
2632.00,98.12
2631.00,98.11
2630.00,98.10
2629.00,98.09
2628.00,98.08
2627.00,98.08
2626.00,98.09
2625.00,98.11
2624.00,98.12
2623.00,98.11
2622.00,98.09
2621.00,98.07
2620.00,98.05
2619.00,98.04
2618.00,98.03
2617.00,98.02
2616.00,98.01
2615.00,98.02
2614.00,98.03
2613.00,98.03
2612.00,98.03
2611.00,98.02
2610.00,98.01
2609.00,98.00
2608.00,98.00
2607.00,98.00
2606.00,97.99
2605.00,97.97
2604.00,97.94
2603.00,97.92
2602.00,97.92
2601.00,97.94
2600.00,97.96
2599.00,97.98
2598.00,97.97
2597.00,97.94
2596.00,97.91
2595.00,97.91
2594.00,97.92
2593.00,97.94
2592.00,97.94
2591.00,97.93
2590.00,97.92
2589.00,97.90
2588.00,97.89
2587.00,97.89
2586.00,97.88
2585.00,97.88
2584.00,97.88
2583.00,97.89
2582.00,97.92
2581.00,97.95
2580.00,97.96
2579.00,97.95
2578.00,97.93
2577.00,97.92
2576.00,97.91
2575.00,97.90
2574.00,97.88
2573.00,97.86
2572.00,97.85
2571.00,97.85
2570.00,97.85
2569.00,97.86
2568.00,97.87
2567.00,97.87
2566.00,97.87
2565.00,97.88
2564.00,97.89
2563.00,97.90
2562.00,97.91
2561.00,97.91
2560.00,97.90
2559.00,97.90
2558.00,97.90
2557.00,97.91
2556.00,97.92
2555.00,97.92
2554.00,97.93
2553.00,97.93
2552.00,97.92
2551.00,97.90
2550.00,97.88
2549.00,97.86
2548.00,97.86
2547.00,97.87
2546.00,97.88
2545.00,97.88
2544.00,97.89
2543.00,97.90
2542.00,97.91
2541.00,97.91
2540.00,97.90
2539.00,97.90
2538.00,97.89
2537.00,97.90
2536.00,97.90
2535.00,97.89
2534.00,97.88
2533.00,97.88
2532.00,97.88
2531.00,97.89
2530.00,97.90
2529.00,97.90
2528.00,97.90
2527.00,97.91
2526.00,97.94
2525.00,97.97
2524.00,97.99
2523.00,97.98
2522.00,97.92
2521.00,97.87
2520.00,97.84
2519.00,97.85
2518.00,97.89
2517.00,97.94
2516.00,97.98
2515.00,98.01
2514.00,98.01
2513.00,98.00
2512.00,98.00
2511.00,98.00
2510.00,98.01
2509.00,98.01
2508.00,98.02
2507.00,98.02
2506.00,98.01
2505.00,97.99
2504.00,97.98
2503.00,97.99
2502.00,97.99
2501.00,98.00
2500.00,98.00
2499.00,98.00
2498.00,97.99
2497.00,97.98
2496.00,97.98
2495.00,97.98
2494.00,97.98
2493.00,97.97
2492.00,97.96
2491.00,97.96
2490.00,97.97
2489.00,97.97
2488.00,97.96
2487.00,97.95
2486.00,97.93
2485.00,97.93
2484.00,97.93
2483.00,97.93
2482.00,97.94
2481.00,97.94
2480.00,97.96
2479.00,97.97
2478.00,97.96
2477.00,97.95
2476.00,97.94
2475.00,97.93
2474.00,97.92
2473.00,97.91
2472.00,97.91
2471.00,97.92
2470.00,97.92
2469.00,97.94
2468.00,97.96
2467.00,97.99
2466.00,98.01
2465.00,98.01
2464.00,98.00
2463.00,97.99
2462.00,97.99
2461.00,98.00
2460.00,98.00
2459.00,98.00
2458.00,98.00
2457.00,97.99
2456.00,97.99
2455.00,97.99
2454.00,97.99
2453.00,97.99
2452.00,97.99
2451.00,97.99
2450.00,97.99
2449.00,97.99
2448.00,97.99
2447.00,97.99
2446.00,97.99
2445.00,98.01
2444.00,98.03
2443.00,98.05
2442.00,98.06
2441.00,98.06
2440.00,98.07
2439.00,98.07
2438.00,98.07
2437.00,98.06
2436.00,98.06
2435.00,98.04
2434.00,98.02
2433.00,98.00
2432.00,98.02
2431.00,98.04
2430.00,98.06
2429.00,98.06
2428.00,98.06
2427.00,98.07
2426.00,98.08
2425.00,98.08
2424.00,98.08
2423.00,98.09
2422.00,98.09
2421.00,98.09
2420.00,98.09
2419.00,98.09
2418.00,98.09
2417.00,98.08
2416.00,98.07
2415.00,98.06
2414.00,98.04
2413.00,98.04
2412.00,98.07
2411.00,98.13
2410.00,98.17
2409.00,98.18
2408.00,98.14
2407.00,98.10
2406.00,98.07
2405.00,98.08
2404.00,98.10
2403.00,98.14
2402.00,98.17
2401.00,98.20
2400.00,98.23
2399.00,98.25
2398.00,98.26
2397.00,98.26
2396.00,98.26
2395.00,98.26
2394.00,98.27
2393.00,98.28
2392.00,98.28
2391.00,98.28
2390.00,98.28
2389.00,98.28
2388.00,98.28
2387.00,98.29
2386.00,98.31
2385.00,98.32
2384.00,98.34
2383.00,98.36
2382.00,98.38
2381.00,98.40
2380.00,98.43
2379.00,98.46
2378.00,98.49
2377.00,98.51
2376.00,98.54
2375.00,98.58
2374.00,98.61
2373.00,98.61
2372.00,98.56
2371.00,98.50
2370.00,98.46
2369.00,98.46
2368.00,98.45
2367.00,98.44
2366.00,98.44
2365.00,98.46
2364.00,98.50
2363.00,98.51
2362.00,98.49
2361.00,98.47
2360.00,98.49
2359.00,98.52
2358.00,98.53
2357.00,98.52
2356.00,98.52
2355.00,98.53
2354.00,98.54
2353.00,98.53
2352.00,98.50
2351.00,98.48
2350.00,98.45
2349.00,98.44
2348.00,98.44
2347.00,98.45
2346.00,98.47
2345.00,98.47
2344.00,98.45
2343.00,98.42
2342.00,98.41
2341.00,98.42
2340.00,98.46
2339.00,98.50
2338.00,98.51
2337.00,98.50
2336.00,98.47
2335.00,98.44
2334.00,98.44
2333.00,98.44
2332.00,98.44
2331.00,98.44
2330.00,98.43
2329.00,98.40
2328.00,98.36
2327.00,98.32
2326.00,98.28
2325.00,98.25
2324.00,98.24
2323.00,98.23
2322.00,98.22
2321.00,98.22
2320.00,98.22
2319.00,98.21
2318.00,98.21
2317.00,98.21
2316.00,98.21
2315.00,98.19
2314.00,98.16
2313.00,98.12
2312.00,98.09
2311.00,98.08
2310.00,98.08
2309.00,98.08
2308.00,98.09
2307.00,98.10
2306.00,98.08
2305.00,98.05
2304.00,98.01
2303.00,97.99
2302.00,97.98
2301.00,97.98
2300.00,97.98
2299.00,97.97
2298.00,97.96
2297.00,97.95
2296.00,97.93
2295.00,97.91
2294.00,97.88
2293.00,97.86
2292.00,97.83
2291.00,97.81
2290.00,97.77
2289.00,97.74
2288.00,97.71
2287.00,97.68
2286.00,97.64
2285.00,97.61
2284.00,97.58
2283.00,97.56
2282.00,97.54
2281.00,97.52
2280.00,97.52
2279.00,97.53
2278.00,97.55
2277.00,97.54
2276.00,97.51
2275.00,97.47
2274.00,97.45
2273.00,97.44
2272.00,97.45
2271.00,97.45
2270.00,97.44
2269.00,97.42
2268.00,97.40
2267.00,97.40
2266.00,97.40
2265.00,97.40
2264.00,97.38
2263.00,97.35
2262.00,97.30
2261.00,97.24
2260.00,97.21
2259.00,97.19
2258.00,97.18
2257.00,97.16
2256.00,97.15
2255.00,97.15
2254.00,97.14
2253.00,97.12
2252.00,97.10
2251.00,97.10
2250.00,97.11
2249.00,97.12
2248.00,97.12
2247.00,97.13
2246.00,97.12
2245.00,97.10
2244.00,97.07
2243.00,97.04
2242.00,97.02
2241.00,97.02
2240.00,97.04
2239.00,97.06
2238.00,97.06
2237.00,97.02
2236.00,96.97
2235.00,96.94
2234.00,96.94
2233.00,96.94
2232.00,96.93
2231.00,96.89
2230.00,96.85
2229.00,96.82
2228.00,96.82
2227.00,96.86
2226.00,96.92
2225.00,96.96
2224.00,96.95
2223.00,96.89
2222.00,96.80
2221.00,96.74
2220.00,96.73
2219.00,96.75
2218.00,96.74
2217.00,96.70
2216.00,96.67
2215.00,96.68
2214.00,96.71
2213.00,96.73
2212.00,96.72
2211.00,96.70
2210.00,96.68
2209.00,96.66
2208.00,96.66
2207.00,96.66
2206.00,96.65
2205.00,96.63
2204.00,96.62
2203.00,96.61
2202.00,96.58
2201.00,96.55
2200.00,96.52
2199.00,96.48
2198.00,96.45
2197.00,96.42
2196.00,96.40
2195.00,96.40
2194.00,96.43
2193.00,96.45
2192.00,96.46
2191.00,96.42
2190.00,96.34
2189.00,96.24
2188.00,96.17
2187.00,96.13
2186.00,96.12
2185.00,96.11
2184.00,96.13
2183.00,96.16
2182.00,96.19
2181.00,96.20
2180.00,96.18
2179.00,96.13
2178.00,96.07
2177.00,96.04
2176.00,96.04
2175.00,96.07
2174.00,96.10
2173.00,96.12
2172.00,96.12
2171.00,96.08
2170.00,96.01
2169.00,95.90
2168.00,95.80
2167.00,95.74
2166.00,95.68
2165.00,95.59
2164.00,95.48
2163.00,95.39
2162.00,95.34
2161.00,95.38
2160.00,95.52
2159.00,95.74
2158.00,95.99
2157.00,96.20
2156.00,96.34
2155.00,96.40
2154.00,96.40
2153.00,96.37
2152.00,96.35
2151.00,96.35
2150.00,96.36
2149.00,96.38
2148.00,96.42
2147.00,96.50
2146.00,96.58
2145.00,96.64
2144.00,96.66
2143.00,96.69
2142.00,96.75
2141.00,96.82
2140.00,96.90
2139.00,96.94
2138.00,96.94
2137.00,96.93
2136.00,96.96
2135.00,97.05
2134.00,97.15
2133.00,97.21
2132.00,97.22
2131.00,97.22
2130.00,97.21
2129.00,97.21
2128.00,97.23
2127.00,97.27
2126.00,97.29
2125.00,97.29
2124.00,97.30
2123.00,97.33
2122.00,97.37
2121.00,97.40
2120.00,97.40
2119.00,97.39
2118.00,97.36
2117.00,97.31
2116.00,97.27
2115.00,97.26
2114.00,97.28
2113.00,97.29
2112.00,97.28
2111.00,97.25
2110.00,97.25
2109.00,97.25
2108.00,97.25
2107.00,97.23
2106.00,97.21
2105.00,97.19
2104.00,97.18
2103.00,97.18
2102.00,97.19
2101.00,97.20
2100.00,97.21
2099.00,97.22
2098.00,97.22
2097.00,97.22
2096.00,97.23
2095.00,97.24
2094.00,97.26
2093.00,97.27
2092.00,97.26
2091.00,97.24
2090.00,97.21
2089.00,97.20
2088.00,97.21
2087.00,97.24
2086.00,97.26
2085.00,97.25
2084.00,97.22
2083.00,97.21
2082.00,97.21
2081.00,97.22
2080.00,97.20
2079.00,97.17
2078.00,97.12
2077.00,97.08
2076.00,97.05
2075.00,97.06
2074.00,97.09
2073.00,97.10
2072.00,97.09
2071.00,97.07
2070.00,97.07
2069.00,97.08
2068.00,97.07
2067.00,97.04
2066.00,97.01
2065.00,96.98
2064.00,96.98
2063.00,96.98
2062.00,96.96
2061.00,96.92
2060.00,96.89
2059.00,96.88
2058.00,96.90
2057.00,96.92
2056.00,96.94
2055.00,96.94
2054.00,96.90
2053.00,96.79
2052.00,96.61
2051.00,96.42
2050.00,96.28
2049.00,96.23
2048.00,96.25
2047.00,96.29
2046.00,96.34
2045.00,96.37
2044.00,96.36
2043.00,96.33
2042.00,96.32
2041.00,96.31
2040.00,96.29
2039.00,96.23
2038.00,96.15
2037.00,96.08
2036.00,96.04
2035.00,96.03
2034.00,96.03
2033.00,96.04
2032.00,96.06
2031.00,96.08
2030.00,96.09
2029.00,96.11
2028.00,96.15
2027.00,96.20
2026.00,96.23
2025.00,96.22
2024.00,96.19
2023.00,96.14
2022.00,96.08
2021.00,96.03
2020.00,96.02
2019.00,96.04
2018.00,96.09
2017.00,96.14
2016.00,96.21
2015.00,96.28
2014.00,96.31
2013.00,96.28
2012.00,96.24
2011.00,96.24
2010.00,96.30
2009.00,96.39
2008.00,96.48
2007.00,96.51
2006.00,96.51
2005.00,96.50
2004.00,96.54
2003.00,96.64
2002.00,96.71
2001.00,96.70
2000.00,96.64
1999.00,96.57
1998.00,96.55
1997.00,96.56
1996.00,96.58
1995.00,96.60
1994.00,96.62
1993.00,96.62
1992.00,96.60
1991.00,96.58
1990.00,96.55
1989.00,96.50
1988.00,96.46
1987.00,96.42
1986.00,96.38
1985.00,96.36
1984.00,96.35
1983.00,96.32
1982.00,96.24
1981.00,96.14
1980.00,96.04
1979.00,96.01
1978.00,96.05
1977.00,96.14
1976.00,96.23
1975.00,96.30
1974.00,96.35
1973.00,96.38
1972.00,96.44
1971.00,96.50
1970.00,96.55
1969.00,96.58
1968.00,96.62
1967.00,96.67
1966.00,96.73
1965.00,96.77
1964.00,96.79
1963.00,96.78
1962.00,96.77
1961.00,96.77
1960.00,96.80
1959.00,96.85
1958.00,96.90
1957.00,96.95
1956.00,96.98
1955.00,96.98
1954.00,96.99
1953.00,97.04
1952.00,97.11
1951.00,97.19
1950.00,97.22
1949.00,97.23
1948.00,97.24
1947.00,97.25
1946.00,97.24
1945.00,97.22
1944.00,97.23
1943.00,97.27
1942.00,97.32
1941.00,97.35
1940.00,97.36
1939.00,97.38
1938.00,97.40
1937.00,97.40
1936.00,97.39
1935.00,97.38
1934.00,97.39
1933.00,97.42
1932.00,97.47
1931.00,97.51
1930.00,97.53
1929.00,97.52
1928.00,97.53
1927.00,97.55
1926.00,97.59
1925.00,97.60
1924.00,97.61
1923.00,97.60
1922.00,97.59
1921.00,97.58
1920.00,97.57
1919.00,97.59
1918.00,97.64
1917.00,97.68
1916.00,97.72
1915.00,97.75
1914.00,97.75
1913.00,97.75
1912.00,97.73
1911.00,97.72
1910.00,97.72
1909.00,97.73
1908.00,97.76
1907.00,97.78
1906.00,97.81
1905.00,97.82
1904.00,97.84
1903.00,97.86
1902.00,97.86
1901.00,97.84
1900.00,97.83
1899.00,97.85
1898.00,97.89
1897.00,97.92
1896.00,97.91
1895.00,97.89
1894.00,97.88
1893.00,97.88
1892.00,97.90
1891.00,97.93
1890.00,97.93
1889.00,97.92
1888.00,97.90
1887.00,97.89
1886.00,97.89
1885.00,97.89
1884.00,97.89
1883.00,97.91
1882.00,97.93
1881.00,97.95
1880.00,97.97
1879.00,97.98
1878.00,97.98
1877.00,97.95
1876.00,97.94
1875.00,97.96
1874.00,97.98
1873.00,97.99
1872.00,97.99
1871.00,98.01
1870.00,98.04
1869.00,98.05
1868.00,98.05
1867.00,98.03
1866.00,98.02
1865.00,98.02
1864.00,98.05
1863.00,98.08
1862.00,98.10
1861.00,98.10
1860.00,98.09
1859.00,98.10
1858.00,98.11
1857.00,98.11
1856.00,98.11
1855.00,98.13
1854.00,98.15
1853.00,98.17
1852.00,98.19
1851.00,98.19
1850.00,98.18
1849.00,98.16
1848.00,98.16
1847.00,98.16
1846.00,98.16
1845.00,98.15
1844.00,98.15
1843.00,98.17
1842.00,98.18
1841.00,98.18
1840.00,98.18
1839.00,98.19
1838.00,98.20
1837.00,98.21
1836.00,98.21
1835.00,98.23
1834.00,98.25
1833.00,98.28
1832.00,98.30
1831.00,98.30
1830.00,98.29
1829.00,98.26
1828.00,98.24
1827.00,98.23
1826.00,98.23
1825.00,98.23
1824.00,98.22
1823.00,98.23
1822.00,98.25
1821.00,98.27
1820.00,98.28
1819.00,98.29
1818.00,98.32
1817.00,98.35
1816.00,98.37
1815.00,98.37
1814.00,98.36
1813.00,98.33
1812.00,98.31
1811.00,98.31
1810.00,98.32
1809.00,98.33
1808.00,98.33
1807.00,98.34
1806.00,98.35
1805.00,98.36
1804.00,98.34
1803.00,98.33
1802.00,98.32
1801.00,98.31
1800.00,98.31
1799.00,98.32
1798.00,98.33
1797.00,98.34
1796.00,98.33
1795.00,98.33
1794.00,98.32
1793.00,98.33
1792.00,98.34
1791.00,98.36
1790.00,98.37
1789.00,98.39
1788.00,98.40
1787.00,98.42
1786.00,98.41
1785.00,98.39
1784.00,98.35
1783.00,98.33
1782.00,98.32
1781.00,98.33
1780.00,98.34
1779.00,98.35
1778.00,98.35
1777.00,98.35
1776.00,98.34
1775.00,98.32
1774.00,98.29
1773.00,98.27
1772.00,98.27
1771.00,98.27
1770.00,98.28
1769.00,98.27
1768.00,98.26
1767.00,98.26
1766.00,98.26
1765.00,98.25
1764.00,98.22
1763.00,98.19
1762.00,98.17
1761.00,98.16
1760.00,98.15
1759.00,98.15
1758.00,98.15
1757.00,98.13
1756.00,98.10
1755.00,98.08
1754.00,98.07
1753.00,98.05
1752.00,98.02
1751.00,97.99
1750.00,97.95
1749.00,97.93
1748.00,97.90
1747.00,97.88
1746.00,97.85
1745.00,97.83
1744.00,97.80
1743.00,97.77
1742.00,97.74
1741.00,97.70
1740.00,97.67
1739.00,97.65
1738.00,97.63
1737.00,97.62
1736.00,97.60
1735.00,97.60
1734.00,97.62
1733.00,97.63
1732.00,97.64
1731.00,97.66
1730.00,97.68
1729.00,97.69
1728.00,97.68
1727.00,97.67
1726.00,97.66
1725.00,97.66
1724.00,97.67
1723.00,97.68
1722.00,97.69
1721.00,97.69
1720.00,97.69
1719.00,97.71
1718.00,97.71
1717.00,97.69
1716.00,97.67
1715.00,97.65
1714.00,97.65
1713.00,97.65
1712.00,97.64
1711.00,97.62
1710.00,97.61
1709.00,97.60
1708.00,97.58
1707.00,97.57
1706.00,97.57
1705.00,97.56
1704.00,97.55
1703.00,97.54
1702.00,97.54
1701.00,97.54
1700.00,97.53
1699.00,97.52
1698.00,97.51
1697.00,97.48
1696.00,97.43
1695.00,97.39
1694.00,97.35
1693.00,97.32
1692.00,97.27
1691.00,97.20
1690.00,97.11
1689.00,96.99
1688.00,96.86
1687.00,96.73
1686.00,96.56
1685.00,96.31
1684.00,95.99
1683.00,95.71
1682.00,95.48
1681.00,95.24
1680.00,94.94
1679.00,94.65
1678.00,94.36
1677.00,94.05
1676.00,93.67
1675.00,93.23
1674.00,92.84
1673.00,92.49
1672.00,92.15
1671.00,91.76
1670.00,91.29
1669.00,90.75
1668.00,90.21
1667.00,89.74
1666.00,89.32
1665.00,88.84
1664.00,88.26
1663.00,87.57
1662.00,86.86
1661.00,86.19
1660.00,85.56
1659.00,84.94
1658.00,84.36
1657.00,83.82
1656.00,83.29
1655.00,82.65
1654.00,81.67
1653.00,80.37
1652.00,79.28
1651.00,78.62
1650.00,78.11
1649.00,77.48
1648.00,76.53
1647.00,75.30
1646.00,74.04
1645.00,72.96
1644.00,72.02
1643.00,71.13
1642.00,70.26
1641.00,69.38
1640.00,68.53
1639.00,67.76
1638.00,67.06
1637.00,66.30
1636.00,65.46
1635.00,64.74
1634.00,64.33
1633.00,64.20
1632.00,64.22
1631.00,64.37
1630.00,64.68
1629.00,65.14
1628.00,65.71
1627.00,66.32
1626.00,66.95
1625.00,67.63
1624.00,68.41
1623.00,69.27
1622.00,70.12
1621.00,70.90
1620.00,71.64
1619.00,72.41
1618.00,73.34
1617.00,74.44
1616.00,75.55
1615.00,76.49
1614.00,77.27
1613.00,78.00
1612.00,78.74
1611.00,79.47
1610.00,80.16
1609.00,80.81
1608.00,81.45
1607.00,82.07
1606.00,82.67
1605.00,83.27
1604.00,83.91
1603.00,84.55
1602.00,85.15
1601.00,85.70
1600.00,86.20
1599.00,86.66
1598.00,87.04
1597.00,87.38
1596.00,87.71
1595.00,88.00
1594.00,88.23
1593.00,88.42
1592.00,88.59
1591.00,88.72
1590.00,88.80
1589.00,88.84
1588.00,88.87
1587.00,88.87
1586.00,88.82
1585.00,88.74
1584.00,88.64
1583.00,88.51
1582.00,88.33
1581.00,88.12
1580.00,87.92
1579.00,87.72
1578.00,87.46
1577.00,87.10
1576.00,86.66
1575.00,86.24
1574.00,85.86
1573.00,85.53
1572.00,85.19
1571.00,84.77
1570.00,84.24
1569.00,83.69
1568.00,83.22
1567.00,82.80
1566.00,82.33
1565.00,81.82
1564.00,81.35
1563.00,80.96
1562.00,80.59
1561.00,80.17
1560.00,79.53
1559.00,78.67
1558.00,77.91
1557.00,77.45
1556.00,77.11
1555.00,76.74
1554.00,76.30
1553.00,75.85
1552.00,75.42
1551.00,74.97
1550.00,74.44
1549.00,73.89
1548.00,73.38
1547.00,72.89
1546.00,72.35
1545.00,71.75
1544.00,71.16
1543.00,70.62
1542.00,70.06
1541.00,69.41
1540.00,68.65
1539.00,67.97
1538.00,67.52
1537.00,67.25
1536.00,67.05
1535.00,66.87
1534.00,66.72
1533.00,66.68
1532.00,66.80
1531.00,67.04
1530.00,67.37
1529.00,67.80
1528.00,68.32
1527.00,68.94
1526.00,69.63
1525.00,70.32
1524.00,70.98
1523.00,71.68
1522.00,72.50
1521.00,73.37
1520.00,74.15
1519.00,74.81
1518.00,75.50
1517.00,76.25
1516.00,77.01
1515.00,77.70
1514.00,78.33
1513.00,78.93
1512.00,79.52
1511.00,80.07
1510.00,80.56
1509.00,81.02
1508.00,81.52
1507.00,82.17
1506.00,82.88
1505.00,83.43
1504.00,83.81
1503.00,84.14
1502.00,84.47
1501.00,84.81
1500.00,85.15
1499.00,85.49
1498.00,85.84
1497.00,86.19
1496.00,86.51
1495.00,86.79
1494.00,87.04
1493.00,87.26
1492.00,87.47
1491.00,87.68
1490.00,87.90
1489.00,88.04
1488.00,88.10
1487.00,88.09
1486.00,88.03
1485.00,87.88
1484.00,87.58
1483.00,87.16
1482.00,86.59
1481.00,85.90
1480.00,85.15
1479.00,84.38
1478.00,83.63
1477.00,82.89
1476.00,82.25
1475.00,81.82
1474.00,81.67
1473.00,81.84
1472.00,82.19
1471.00,82.50
1470.00,82.62
1469.00,82.50
1468.00,82.17
1467.00,81.69
1466.00,81.17
1465.00,80.76
1464.00,80.63
1463.00,80.76
1462.00,81.07
1461.00,81.45
1460.00,81.84
1459.00,82.24
1458.00,82.65
1457.00,83.08
1456.00,83.46
1455.00,83.74
1454.00,83.99
1453.00,84.23
1452.00,84.46
1451.00,84.66
1450.00,84.83
1449.00,84.95
1448.00,85.03
1447.00,85.07
1446.00,85.07
1445.00,85.03
1444.00,84.96
1443.00,84.86
1442.00,84.75
1441.00,84.65
1440.00,84.56
1439.00,84.47
1438.00,84.39
1437.00,84.33
1436.00,84.32
1435.00,84.39
1434.00,84.51
1433.00,84.66
1432.00,84.83
1431.00,85.02
1430.00,85.22
1429.00,85.41
1428.00,85.53
1427.00,85.57
1426.00,85.52
1425.00,85.39
1424.00,85.18
1423.00,84.90
1422.00,84.57
1421.00,84.11
1420.00,83.41
1419.00,82.57
1418.00,81.88
1417.00,81.55
1416.00,81.60
1415.00,82.00
1414.00,82.67
1413.00,83.51
1412.00,84.40
1411.00,85.24
1410.00,85.99
1409.00,86.62
1408.00,87.15
1407.00,87.58
1406.00,87.94
1405.00,88.25
1404.00,88.50
1403.00,88.69
1402.00,88.83
1401.00,88.92
1400.00,88.99
1399.00,89.01
1398.00,89.01
1397.00,88.98
1396.00,88.92
1395.00,88.83
1394.00,88.72
1393.00,88.59
1392.00,88.43
1391.00,88.25
1390.00,88.05
1389.00,87.86
1388.00,87.67
1387.00,87.50
1386.00,87.34
1385.00,87.19
1384.00,87.05
1383.00,86.89
1382.00,86.71
1381.00,86.51
1380.00,86.28
1379.00,86.01
1378.00,85.71
1377.00,85.41
1376.00,85.09
1375.00,84.76
1374.00,84.46
1373.00,84.24
1372.00,84.10
1371.00,84.01
1370.00,84.00
1369.00,84.06
1368.00,84.17
1367.00,84.32
1366.00,84.48
1365.00,84.64
1364.00,84.79
1363.00,84.94
1362.00,85.09
1361.00,85.25
1360.00,85.41
1359.00,85.57
1358.00,85.74
1357.00,85.90
1356.00,86.06
1355.00,86.22
1354.00,86.39
1353.00,86.55
1352.00,86.70
1351.00,86.86
1350.00,87.03
1349.00,87.20
1348.00,87.36
1347.00,87.51
1346.00,87.64
1345.00,87.75
1344.00,87.84
1343.00,87.92
1342.00,88.00
1341.00,88.09
1340.00,88.18
1339.00,88.27
1338.00,88.36
1337.00,88.43
1336.00,88.49
1335.00,88.53
1334.00,88.57
1333.00,88.60
1332.00,88.61
1331.00,88.62
1330.00,88.61
1329.00,88.62
1328.00,88.64
1327.00,88.68
1326.00,88.73
1325.00,88.80
1324.00,88.85
1323.00,88.91
1322.00,88.96
1321.00,88.99
1320.00,89.01
1319.00,89.01
1318.00,88.99
1317.00,88.95
1316.00,88.90
1315.00,88.83
1314.00,88.76
1313.00,88.69
1312.00,88.61
1311.00,88.53
1310.00,88.43
1309.00,88.33
1308.00,88.21
1307.00,88.08
1306.00,87.94
1305.00,87.82
1304.00,87.71
1303.00,87.63
1302.00,87.57
1301.00,87.53
1300.00,87.51
1299.00,87.49
1298.00,87.48
1297.00,87.46
1296.00,87.42
1295.00,87.36
1294.00,87.28
1293.00,87.19
1292.00,87.09
1291.00,86.97
1290.00,86.81
1289.00,86.61
1288.00,86.36
1287.00,86.08
1286.00,85.76
1285.00,85.42
1284.00,85.03
1283.00,84.60
1282.00,84.14
1281.00,83.63
1280.00,83.10
1279.00,82.57
1278.00,82.08
1277.00,81.67
1276.00,81.35
1275.00,81.14
1274.00,81.02
1273.00,80.99
1272.00,81.02
1271.00,81.12
1270.00,81.28
1269.00,81.47
1268.00,81.69
1267.00,81.92
1266.00,82.16
1265.00,82.42
1264.00,82.69
1263.00,82.95
1262.00,83.22
1261.00,83.46
1260.00,83.68
1259.00,83.88
1258.00,84.08
1257.00,84.27
1256.00,84.44
1255.00,84.60
1254.00,84.75
1253.00,84.87
1252.00,84.98
1251.00,85.08
1250.00,85.18
1249.00,85.29
1248.00,85.41
1247.00,85.53
1246.00,85.65
1245.00,85.75
1244.00,85.85
1243.00,85.93
1242.00,86.00
1241.00,86.07
1240.00,86.13
1239.00,86.19
1238.00,86.27
1237.00,86.37
1236.00,86.46
1235.00,86.56
1234.00,86.66
1233.00,86.78
1232.00,86.92
1231.00,87.06
1230.00,87.20
1229.00,87.33
1228.00,87.42
1227.00,87.45
1226.00,87.44
1225.00,87.43
1224.00,87.45
1223.00,87.55
1222.00,87.73
1221.00,87.94
1220.00,88.14
1219.00,88.32
1218.00,88.46
1217.00,88.57
1216.00,88.63
1215.00,88.64
1214.00,88.61
1213.00,88.56
1212.00,88.47
1211.00,88.36
1210.00,88.23
1209.00,88.05
1208.00,87.81
1207.00,87.49
1206.00,87.08
1205.00,86.57
1204.00,85.96
1203.00,85.26
1202.00,84.53
1201.00,83.84
1200.00,83.25
1199.00,82.85
1198.00,82.69
1197.00,82.80
1196.00,83.15
1195.00,83.65
1194.00,84.23
1193.00,84.82
1192.00,85.38
1191.00,85.88
1190.00,86.29
1189.00,86.58
1188.00,86.74
1187.00,86.78
1186.00,86.72
1185.00,86.59
1184.00,86.42
1183.00,86.22
1182.00,86.04
1181.00,85.91
1180.00,85.86
1179.00,85.92
1178.00,86.10
1177.00,86.38
1176.00,86.73
1175.00,87.13
1174.00,87.56
1173.00,87.99
1172.00,88.39
1171.00,88.76
1170.00,89.07
1169.00,89.34
1168.00,89.55
1167.00,89.73
1166.00,89.86
1165.00,89.97
1164.00,90.05
1163.00,90.11
1162.00,90.17
1161.00,90.21
1160.00,90.23
1159.00,90.19
1158.00,90.11
1157.00,89.98
1156.00,89.81
1155.00,89.61
1154.00,89.40
1153.00,89.19
1152.00,89.00
1151.00,88.81
1150.00,88.64
1149.00,88.48
1148.00,88.36
1147.00,88.25
1146.00,88.18
1145.00,88.14
1144.00,88.13
1143.00,88.10
1142.00,88.07
1141.00,88.03
1140.00,88.00
1139.00,88.02
1138.00,88.12
1137.00,88.32
1136.00,88.62
1135.00,88.98
1134.00,89.35
1133.00,89.68
1132.00,89.95
1131.00,90.17
1130.00,90.34
1129.00,90.48
1128.00,90.60
1127.00,90.70
1126.00,90.79
1125.00,90.87
1124.00,90.95
1123.00,91.02
1122.00,91.07
1121.00,91.09
1120.00,91.09
1119.00,91.10
1118.00,91.15
1117.00,91.23
1116.00,91.29
1115.00,91.33
1114.00,91.36
1113.00,91.40
1112.00,91.42
1111.00,91.43
1110.00,91.42
1109.00,91.40
1108.00,91.39
1107.00,91.40
1106.00,91.43
1105.00,91.45
1104.00,91.45
1103.00,91.44
1102.00,91.42
1101.00,91.42
1100.00,91.42
1099.00,91.44
1098.00,91.46
1097.00,91.49
1096.00,91.54
1095.00,91.58
1094.00,91.60
1093.00,91.58
1092.00,91.55
1091.00,91.53
1090.00,91.53
1089.00,91.57
1088.00,91.65
1087.00,91.74
1086.00,91.84
1085.00,91.92
1084.00,91.97
1083.00,92.00
1082.00,92.04
1081.00,92.08
1080.00,92.10
1079.00,92.13
1078.00,92.16
1077.00,92.20
1076.00,92.21
1075.00,92.19
1074.00,92.15
1073.00,92.10
1072.00,92.05
1071.00,91.98
1070.00,91.92
1069.00,91.86
1068.00,91.82
1067.00,91.79
1066.00,91.76
1065.00,91.74
1064.00,91.71
1063.00,91.70
1062.00,91.71
1061.00,91.74
1060.00,91.77
1059.00,91.78
1058.00,91.78
1057.00,91.79
1056.00,91.81
1055.00,91.83
1054.00,91.84
1053.00,91.85
1052.00,91.87
1051.00,91.91
1050.00,91.97
1049.00,92.00
1048.00,91.99
1047.00,91.94
1046.00,91.86
1045.00,91.79
1044.00,91.73
1043.00,91.70
1042.00,91.68
1041.00,91.69
1040.00,91.71
1039.00,91.77
1038.00,91.84
1037.00,91.92
1036.00,92.00
1035.00,92.07
1034.00,92.14
1033.00,92.21
1032.00,92.26
1031.00,92.31
1030.00,92.36
1029.00,92.40
1028.00,92.42
1027.00,92.44
1026.00,92.46
1025.00,92.50
1024.00,92.54
1023.00,92.56
1022.00,92.57
1021.00,92.58
1020.00,92.58
1019.00,92.60
1018.00,92.60
1017.00,92.59
1016.00,92.56
1015.00,92.53
1014.00,92.52
1013.00,92.55
1012.00,92.59
1011.00,92.64
1010.00,92.68
1009.00,92.72
1008.00,92.77
1007.00,92.80
1006.00,92.84
1005.00,92.87
1004.00,92.91
1003.00,92.95
1002.00,92.98
1001.00,93.00
1000.00,93.01
999.00,93.03
998.00,93.07
997.00,93.12
996.00,93.15
995.00,93.17
994.00,93.19
993.00,93.24
992.00,93.29
991.00,93.34
990.00,93.36
989.00,93.37
988.00,93.38
987.00,93.39
986.00,93.41
985.00,93.45
984.00,93.51
983.00,93.58
982.00,93.63
981.00,93.68
980.00,93.71
979.00,93.73
978.00,93.75
977.00,93.76
976.00,93.77
975.00,93.80
974.00,93.82
973.00,93.82
972.00,93.81
971.00,93.78
970.00,93.75
969.00,93.73
968.00,93.74
967.00,93.76
966.00,93.78
965.00,93.77
964.00,93.73
963.00,93.69
962.00,93.65
961.00,93.60
960.00,93.55
959.00,93.50
958.00,93.45
957.00,93.40
956.00,93.37
955.00,93.34
954.00,93.30
953.00,93.24
952.00,93.17
951.00,93.09
950.00,93.00
949.00,92.89
948.00,92.79
947.00,92.67
946.00,92.54
945.00,92.36
944.00,92.11
943.00,91.79
942.00,91.40
941.00,90.94
940.00,90.42
939.00,89.84
938.00,89.25
937.00,88.72
936.00,88.31
935.00,88.10
934.00,88.10
933.00,88.31
932.00,88.66
931.00,89.08
930.00,89.50
929.00,89.88
928.00,90.20
927.00,90.49
926.00,90.76
925.00,91.00
924.00,91.20
923.00,91.37
922.00,91.51
921.00,91.64
920.00,91.74
919.00,91.84
918.00,91.93
917.00,92.04
916.00,92.15
915.00,92.26
914.00,92.34
913.00,92.37
912.00,92.35
911.00,92.29
910.00,92.20
909.00,92.10
908.00,91.99
907.00,91.90
906.00,91.86
905.00,91.89
904.00,91.99
903.00,92.15
902.00,92.35
901.00,92.54
900.00,92.71
899.00,92.87
898.00,93.01
897.00,93.12
896.00,93.19
895.00,93.24
894.00,93.28
893.00,93.31
892.00,93.33
891.00,93.34
890.00,93.36
889.00,93.40
888.00,93.43
887.00,93.44
886.00,93.43
885.00,93.42
884.00,93.43
883.00,93.44
882.00,93.45
881.00,93.47
880.00,93.51
879.00,93.57
878.00,93.62
877.00,93.65
876.00,93.65
875.00,93.63
874.00,93.61
873.00,93.61
872.00,93.63
871.00,93.68
870.00,93.74
869.00,93.78
868.00,93.79
867.00,93.75
866.00,93.69
865.00,93.64
864.00,93.62
863.00,93.62
862.00,93.63
861.00,93.63
860.00,93.64
859.00,93.64
858.00,93.64
857.00,93.61
856.00,93.56
855.00,93.50
854.00,93.47
853.00,93.48
852.00,93.49
851.00,93.48
850.00,93.45
849.00,93.41
848.00,93.35
847.00,93.28
846.00,93.21
845.00,93.18
844.00,93.22
843.00,93.29
842.00,93.37
841.00,93.41
840.00,93.41
839.00,93.37
838.00,93.33
837.00,93.29
836.00,93.25
835.00,93.19
834.00,93.15
833.00,93.13
832.00,93.14
831.00,93.16
830.00,93.18
829.00,93.16
828.00,93.13
827.00,93.07
826.00,93.01
825.00,92.93
824.00,92.86
823.00,92.80
822.00,92.77
821.00,92.74
820.00,92.69
819.00,92.63
818.00,92.59
817.00,92.58
816.00,92.59
815.00,92.58
814.00,92.55
813.00,92.53
812.00,92.50
811.00,92.45
810.00,92.37
809.00,92.27
808.00,92.16
807.00,92.07
806.00,92.00
805.00,91.96
804.00,91.92
803.00,91.85
802.00,91.76
801.00,91.66
800.00,91.55
799.00,91.45
798.00,91.36
797.00,91.30
796.00,91.26
795.00,91.24
794.00,91.23
793.00,91.20
792.00,91.16
791.00,91.12
790.00,91.09
789.00,91.07
788.00,91.05
787.00,91.03
786.00,91.00
785.00,90.98
784.00,90.95
783.00,90.87
782.00,90.74
781.00,90.62
780.00,90.53
779.00,90.48
778.00,90.45
777.00,90.41
776.00,90.34
775.00,90.25
774.00,90.16
773.00,90.08
772.00,90.00
771.00,89.93
770.00,89.83
769.00,89.73
768.00,89.62
767.00,89.49
766.00,89.36
765.00,89.24
764.00,89.18
763.00,89.14
762.00,89.06
761.00,88.91
760.00,88.73
759.00,88.58
758.00,88.48
757.00,88.40
756.00,88.30
755.00,88.20
754.00,88.12
753.00,88.05
752.00,87.97
751.00,87.89
750.00,87.83
749.00,87.78
748.00,87.73
747.00,87.66
746.00,87.56
745.00,87.47
744.00,87.37
743.00,87.25
742.00,87.07
741.00,86.79
740.00,86.41
739.00,85.99
738.00,85.57
737.00,85.14
736.00,84.69
735.00,84.21
734.00,83.71
733.00,83.21
732.00,82.73
731.00,82.28
730.00,81.90
729.00,81.61
728.00,81.47
727.00,81.45
726.00,81.50
725.00,81.54
724.00,81.56
723.00,81.55
722.00,81.55
721.00,81.55
720.00,81.55
719.00,81.55
718.00,81.59
717.00,81.64
716.00,81.62
715.00,81.52
714.00,81.35
713.00,81.18
712.00,81.04
711.00,80.93
710.00,80.80
709.00,80.66
708.00,80.51
707.00,80.38
706.00,80.22
705.00,80.01
704.00,79.77
703.00,79.53
702.00,79.31
701.00,79.09
700.00,78.88
699.00,78.68
698.00,78.46
697.00,78.17
696.00,77.80
695.00,77.37
694.00,76.95
693.00,76.57
692.00,76.25
691.00,76.01
690.00,75.82
689.00,75.63
688.00,75.42
687.00,75.23
686.00,75.10
685.00,75.01
684.00,74.94
683.00,74.90
682.00,74.92
681.00,74.99
680.00,75.13
679.00,75.33
678.00,75.57
677.00,75.80
676.00,75.97
675.00,76.07
674.00,76.16
673.00,76.27
672.00,76.44
671.00,76.70
670.00,77.06
669.00,77.45
668.00,77.68
667.00,77.75
666.00,77.81
665.00,77.94
664.00,78.07
663.00,78.19
662.00,78.33
661.00,78.51
660.00,78.70
659.00,78.85
658.00,78.95
657.00,79.02
656.00,79.12
655.00,79.28
654.00,79.51
653.00,79.75
652.00,79.98
651.00,80.21
650.00,80.45
649.00,80.63
648.00,80.70
647.00,80.65
646.00,80.63
645.00,80.78
644.00,81.07
643.00,81.37
642.00,81.56
641.00,81.65
640.00,81.71
639.00,81.76
638.00,81.69
637.00,81.49
636.00,81.28
635.00,81.23
634.00,81.41
633.00,81.68
632.00,81.85
631.00,81.87
630.00,81.77
629.00,81.63
628.00,81.48
627.00,81.36
626.00,81.34
625.00,81.49
624.00,81.78
623.00,82.04
622.00,82.07
621.00,81.82
620.00,81.50
619.00,81.35
618.00,81.43
617.00,81.56
616.00,81.63
615.00,81.70
614.00,81.81
613.00,81.89
612.00,81.80
611.00,81.48
610.00,80.98
609.00,80.44
608.00,80.07
607.00,80.02
606.00,80.23
605.00,80.57
604.00,80.96
603.00,81.38
602.00,81.58
601.00,81.30
600.00,80.66
599.00,80.18
598.00,80.25
597.00,80.71
596.00,81.11
595.00,81.20
594.00,81.04
593.00,80.64
592.00,79.89
591.00,78.84
590.00,77.83
589.00,77.16
588.00,76.90
587.00,76.92
586.00,76.95
585.00,76.65
584.00,75.85
583.00,74.88
582.00,74.27
581.00,74.16
580.00,74.21
579.00,74.17
578.00,74.18
577.00,74.44
576.00,74.91
575.00,75.27
574.00,75.15
573.00,74.58
572.00,73.96
571.00,73.85
570.00,74.47
569.00,75.61
568.00,76.81
567.00,77.57
566.00,77.47
565.00,76.63
564.00,75.65
563.00,75.22
562.00,75.61
561.00,76.53
560.00,77.50
559.00,78.25
558.00,78.80
557.00,79.37
556.00,80.17
555.00,80.81
554.00,80.56
553.00,79.52
552.00,78.82
551.00,79.44
550.00,81.01
