Created as New Dataset,76 Nylon Allied Signal Fibers USA PA-6. 2-ply cabled and autoclave heat set yarn. 3 of 7 in a series of fiber processing techniques
cm-1,%T
4000.00,102.88
3999.00,102.88
3998.00,102.88
3997.00,102.88
3996.00,102.88
3995.00,102.87
3994.00,102.86
3993.00,102.84
3992.00,102.83
3991.00,102.83
3990.00,102.85
3989.00,102.88
3988.00,102.91
3987.00,102.92
3986.00,102.90
3985.00,102.87
3984.00,102.84
3983.00,102.82
3982.00,102.82
3981.00,102.83
3980.00,102.84
3979.00,102.86
3978.00,102.87
3977.00,102.88
3976.00,102.89
3975.00,102.90
3974.00,102.90
3973.00,102.89
3972.00,102.87
3971.00,102.85
3970.00,102.84
3969.00,102.86
3968.00,102.89
3967.00,102.92
3966.00,102.93
3965.00,102.92
3964.00,102.89
3963.00,102.86
3962.00,102.83
3961.00,102.83
3960.00,102.83
3959.00,102.84
3958.00,102.83
3957.00,102.82
3956.00,102.81
3955.00,102.81
3954.00,102.83
3953.00,102.85
3952.00,102.88
3951.00,102.89
3950.00,102.89
3949.00,102.88
3948.00,102.88
3947.00,102.87
3946.00,102.86
3945.00,102.85
3944.00,102.85
3943.00,102.85
3942.00,102.87
3941.00,102.89
3940.00,102.91
3939.00,102.93
3938.00,102.95
3937.00,102.94
3936.00,102.92
3935.00,102.89
3934.00,102.88
3933.00,102.89
3932.00,102.91
3931.00,102.91
3930.00,102.90
3929.00,102.88
3928.00,102.85
3927.00,102.84
3926.00,102.84
3925.00,102.85
3924.00,102.87
3923.00,102.87
3922.00,102.85
3921.00,102.82
3920.00,102.81
3919.00,102.82
3918.00,102.84
3917.00,102.85
3916.00,102.86
3915.00,102.86
3914.00,102.87
3913.00,102.88
3912.00,102.90
3911.00,102.90
3910.00,102.89
3909.00,102.86
3908.00,102.83
3907.00,102.80
3906.00,102.79
3905.00,102.80
3904.00,102.81
3903.00,102.81
3902.00,102.79
3901.00,102.77
3900.00,102.76
3899.00,102.77
3898.00,102.78
3897.00,102.79
3896.00,102.79
3895.00,102.79
3894.00,102.79
3893.00,102.80
3892.00,102.84
3891.00,102.87
3890.00,102.86
3889.00,102.81
3888.00,102.76
3887.00,102.74
3886.00,102.78
3885.00,102.83
3884.00,102.83
3883.00,102.81
3882.00,102.79
3881.00,102.80
3880.00,102.82
3879.00,102.83
3878.00,102.82
3877.00,102.80
3876.00,102.80
3875.00,102.80
3874.00,102.79
3873.00,102.73
3872.00,102.67
3871.00,102.66
3870.00,102.71
3869.00,102.75
3868.00,102.76
3867.00,102.73
3866.00,102.73
3865.00,102.76
3864.00,102.80
3863.00,102.82
3862.00,102.82
3861.00,102.81
3860.00,102.82
3859.00,102.82
3858.00,102.81
3857.00,102.79
3856.00,102.76
3855.00,102.73
3854.00,102.71
3853.00,102.69
3852.00,102.67
3851.00,102.67
3850.00,102.70
3849.00,102.75
3848.00,102.80
3847.00,102.83
3846.00,102.85
3845.00,102.86
3844.00,102.87
3843.00,102.85
3842.00,102.81
3841.00,102.75
3840.00,102.71
3839.00,102.70
3838.00,102.70
3837.00,102.71
3836.00,102.70
3835.00,102.69
3834.00,102.70
3833.00,102.73
3832.00,102.77
3831.00,102.80
3830.00,102.79
3829.00,102.77
3828.00,102.76
3827.00,102.78
3826.00,102.80
3825.00,102.80
3824.00,102.76
3823.00,102.72
3822.00,102.72
3821.00,102.75
3820.00,102.76
3819.00,102.74
3818.00,102.71
3817.00,102.72
3816.00,102.77
3815.00,102.81
3814.00,102.81
3813.00,102.81
3812.00,102.82
3811.00,102.84
3810.00,102.82
3809.00,102.80
3808.00,102.79
3807.00,102.82
3806.00,102.84
3805.00,102.82
3804.00,102.78
3803.00,102.75
3802.00,102.76
3801.00,102.77
3800.00,102.75
3799.00,102.72
3798.00,102.72
3797.00,102.75
3796.00,102.80
3795.00,102.82
3794.00,102.83
3793.00,102.84
3792.00,102.87
3791.00,102.90
3790.00,102.90
3789.00,102.89
3788.00,102.85
3787.00,102.81
3786.00,102.78
3785.00,102.75
3784.00,102.75
3783.00,102.75
3782.00,102.76
3781.00,102.78
3780.00,102.81
3779.00,102.83
3778.00,102.85
3777.00,102.85
3776.00,102.86
3775.00,102.88
3774.00,102.87
3773.00,102.84
3772.00,102.80
3771.00,102.78
3770.00,102.78
3769.00,102.79
3768.00,102.80
3767.00,102.80
3766.00,102.81
3765.00,102.82
3764.00,102.81
3763.00,102.78
3762.00,102.77
3761.00,102.78
3760.00,102.80
3759.00,102.81
3758.00,102.82
3757.00,102.82
3756.00,102.81
3755.00,102.79
3754.00,102.77
3753.00,102.76
3752.00,102.74
3751.00,102.71
3750.00,102.68
3749.00,102.67
3748.00,102.65
3747.00,102.61
3746.00,102.60
3745.00,102.63
3744.00,102.67
3743.00,102.67
3742.00,102.64
3741.00,102.63
3740.00,102.65
3739.00,102.68
3738.00,102.71
3737.00,102.73
3736.00,102.74
3735.00,102.72
3734.00,102.70
3733.00,102.69
3732.00,102.72
3731.00,102.75
3730.00,102.75
3729.00,102.73
3728.00,102.72
3727.00,102.74
3726.00,102.78
3725.00,102.81
3724.00,102.83
3723.00,102.85
3722.00,102.86
3721.00,102.86
3720.00,102.85
3719.00,102.83
3718.00,102.81
3717.00,102.80
3716.00,102.77
3715.00,102.74
3714.00,102.72
3713.00,102.71
3712.00,102.71
3711.00,102.71
3710.00,102.72
3709.00,102.73
3708.00,102.75
3707.00,102.78
3706.00,102.80
3705.00,102.80
3704.00,102.79
3703.00,102.77
3702.00,102.76
3701.00,102.79
3700.00,102.82
3699.00,102.84
3698.00,102.84
3697.00,102.84
3696.00,102.82
3695.00,102.80
3694.00,102.78
3693.00,102.77
3692.00,102.77
3691.00,102.75
3690.00,102.72
3689.00,102.70
3688.00,102.70
3687.00,102.72
3686.00,102.74
3685.00,102.77
3684.00,102.79
3683.00,102.80
3682.00,102.81
3681.00,102.83
3680.00,102.85
3679.00,102.85
3678.00,102.81
3677.00,102.76
3676.00,102.73
3675.00,102.72
3674.00,102.69
3673.00,102.66
3672.00,102.63
3671.00,102.65
3670.00,102.69
3669.00,102.72
3668.00,102.73
3667.00,102.74
3666.00,102.77
3665.00,102.80
3664.00,102.81
3663.00,102.82
3662.00,102.82
3661.00,102.81
3660.00,102.79
3659.00,102.76
3658.00,102.75
3657.00,102.76
3656.00,102.78
3655.00,102.79
3654.00,102.76
3653.00,102.70
3652.00,102.66
3651.00,102.66
3650.00,102.66
3649.00,102.65
3648.00,102.62
3647.00,102.59
3646.00,102.59
3645.00,102.59
3644.00,102.62
3643.00,102.65
3642.00,102.67
3641.00,102.68
3640.00,102.67
3639.00,102.68
3638.00,102.71
3637.00,102.72
3636.00,102.71
3635.00,102.68
3634.00,102.66
3633.00,102.64
3632.00,102.61
3631.00,102.57
3630.00,102.55
3629.00,102.54
3628.00,102.52
3627.00,102.51
3626.00,102.51
3625.00,102.53
3624.00,102.56
3623.00,102.57
3622.00,102.55
3621.00,102.55
3620.00,102.56
3619.00,102.59
3618.00,102.60
3617.00,102.60
3616.00,102.59
3615.00,102.60
3614.00,102.61
3613.00,102.62
3612.00,102.61
3611.00,102.58
3610.00,102.55
3609.00,102.54
3608.00,102.54
3607.00,102.53
3606.00,102.51
3605.00,102.50
3604.00,102.50
3603.00,102.50
3602.00,102.50
3601.00,102.51
3600.00,102.52
3599.00,102.54
3598.00,102.56
3597.00,102.57
3596.00,102.56
3595.00,102.53
3594.00,102.50
3593.00,102.47
3592.00,102.46
3591.00,102.46
3590.00,102.47
3589.00,102.47
3588.00,102.47
3587.00,102.46
3586.00,102.44
3585.00,102.42
3584.00,102.42
3583.00,102.43
3582.00,102.45
3581.00,102.47
3580.00,102.47
3579.00,102.45
3578.00,102.43
3577.00,102.42
3576.00,102.43
3575.00,102.43
3574.00,102.43
3573.00,102.42
3572.00,102.41
3571.00,102.38
3570.00,102.34
3569.00,102.31
3568.00,102.29
3567.00,102.28
3566.00,102.28
3565.00,102.27
3564.00,102.26
3563.00,102.26
3562.00,102.27
3561.00,102.28
3560.00,102.28
3559.00,102.27
3558.00,102.26
3557.00,102.24
3556.00,102.24
3555.00,102.24
3554.00,102.24
3553.00,102.24
3552.00,102.23
3551.00,102.23
3550.00,102.22
3549.00,102.21
3548.00,102.21
3547.00,102.19
3546.00,102.18
3545.00,102.16
3544.00,102.15
3543.00,102.13
3542.00,102.12
3541.00,102.10
3540.00,102.09
3539.00,102.08
3538.00,102.07
3537.00,102.04
3536.00,102.01
3535.00,102.00
3534.00,102.00
3533.00,102.02
3532.00,102.04
3531.00,102.05
3530.00,102.05
3529.00,102.03
3528.00,102.00
3527.00,101.97
3526.00,101.95
3525.00,101.95
3524.00,101.96
3523.00,101.97
3522.00,101.96
3521.00,101.93
3520.00,101.90
3519.00,101.89
3518.00,101.88
3517.00,101.87
3516.00,101.85
3515.00,101.84
3514.00,101.85
3513.00,101.87
3512.00,101.89
3511.00,101.91
3510.00,101.91
3509.00,101.90
3508.00,101.86
3507.00,101.82
3506.00,101.78
3505.00,101.76
3504.00,101.75
3503.00,101.74
3502.00,101.73
3501.00,101.73
3500.00,101.74
3499.00,101.75
3498.00,101.76
3497.00,101.75
3496.00,101.74
3495.00,101.73
3494.00,101.73
3493.00,101.74
3492.00,101.76
3491.00,101.77
3490.00,101.77
3489.00,101.76
3488.00,101.75
3487.00,101.73
3486.00,101.72
3485.00,101.71
3484.00,101.70
3483.00,101.67
3482.00,101.65
3481.00,101.64
3480.00,101.65
3479.00,101.66
3478.00,101.67
3477.00,101.67
3476.00,101.66
3475.00,101.66
3474.00,101.66
3473.00,101.67
3472.00,101.68
3471.00,101.67
3470.00,101.65
3469.00,101.61
3468.00,101.58
3467.00,101.57
3466.00,101.59
3465.00,101.60
3464.00,101.60
3463.00,101.58
3462.00,101.57
3461.00,101.57
3460.00,101.59
3459.00,101.62
3458.00,101.62
3457.00,101.60
3456.00,101.56
3455.00,101.52
3454.00,101.50
3453.00,101.50
3452.00,101.52
3451.00,101.53
3450.00,101.51
3449.00,101.49
3448.00,101.46
3447.00,101.45
3446.00,101.43
3445.00,101.41
3444.00,101.39
3443.00,101.38
3442.00,101.39
3441.00,101.42
3440.00,101.45
3439.00,101.48
3438.00,101.49
3437.00,101.49
3436.00,101.47
3435.00,101.44
3434.00,101.40
3433.00,101.37
3432.00,101.36
3431.00,101.36
3430.00,101.37
3429.00,101.37
3428.00,101.38
3427.00,101.37
3426.00,101.37
3425.00,101.37
3424.00,101.37
3423.00,101.37
3422.00,101.38
3421.00,101.39
3420.00,101.39
3419.00,101.38
3418.00,101.36
3417.00,101.34
3416.00,101.33
3415.00,101.33
3414.00,101.32
3413.00,101.30
3412.00,101.29
3411.00,101.28
3410.00,101.27
3409.00,101.26
3408.00,101.25
3407.00,101.24
3406.00,101.22
3405.00,101.21
3404.00,101.20
3403.00,101.19
3402.00,101.19
3401.00,101.19
3400.00,101.18
3399.00,101.17
3398.00,101.16
3397.00,101.15
3396.00,101.14
3395.00,101.14
3394.00,101.15
3393.00,101.14
3392.00,101.13
3391.00,101.11
3390.00,101.07
3389.00,101.04
3388.00,101.00
3387.00,100.98
3386.00,100.98
3385.00,100.98
3384.00,100.96
3383.00,100.94
3382.00,100.92
3381.00,100.90
3380.00,100.89
3379.00,100.89
3378.00,100.87
3377.00,100.84
3376.00,100.81
3375.00,100.77
3374.00,100.72
3373.00,100.67
3372.00,100.61
3371.00,100.56
3370.00,100.54
3369.00,100.53
3368.00,100.52
3367.00,100.49
3366.00,100.44
3365.00,100.38
3364.00,100.33
3363.00,100.29
3362.00,100.28
3361.00,100.28
3360.00,100.27
3359.00,100.23
3358.00,100.16
3357.00,100.08
3356.00,100.00
3355.00,99.93
3354.00,99.88
3353.00,99.82
3352.00,99.77
3351.00,99.70
3350.00,99.62
3349.00,99.54
3348.00,99.47
3347.00,99.40
3346.00,99.34
3345.00,99.27
3344.00,99.21
3343.00,99.14
3342.00,99.06
3341.00,98.96
3340.00,98.85
3339.00,98.73
3338.00,98.62
3337.00,98.53
3336.00,98.44
3335.00,98.35
3334.00,98.26
3333.00,98.18
3332.00,98.08
3331.00,97.97
3330.00,97.84
3329.00,97.71
3328.00,97.57
3327.00,97.44
3326.00,97.30
3325.00,97.18
3324.00,97.07
3323.00,96.95
3322.00,96.83
3321.00,96.71
3320.00,96.58
3319.00,96.45
3318.00,96.31
3317.00,96.15
3316.00,95.99
3315.00,95.82
3314.00,95.67
3313.00,95.51
3312.00,95.34
3311.00,95.14
3310.00,94.95
3309.00,94.77
3308.00,94.60
3307.00,94.44
3306.00,94.26
3305.00,94.09
3304.00,93.92
3303.00,93.78
3302.00,93.66
3301.00,93.56
3300.00,93.47
3299.00,93.41
3298.00,93.38
3297.00,93.37
3296.00,93.37
3295.00,93.39
3294.00,93.42
3293.00,93.46
3292.00,93.52
3291.00,93.60
3290.00,93.70
3289.00,93.79
3288.00,93.87
3287.00,93.96
3286.00,94.06
3285.00,94.17
3284.00,94.29
3283.00,94.41
3282.00,94.52
3281.00,94.61
3280.00,94.70
3279.00,94.79
3278.00,94.89
3277.00,94.99
3276.00,95.10
3275.00,95.21
3274.00,95.30
3273.00,95.39
3272.00,95.48
3271.00,95.57
3270.00,95.66
3269.00,95.74
3268.00,95.83
3267.00,95.91
3266.00,96.00
3265.00,96.09
3264.00,96.20
3263.00,96.33
3262.00,96.45
3261.00,96.56
3260.00,96.66
3259.00,96.73
3258.00,96.81
3257.00,96.91
3256.00,97.01
3255.00,97.11
3254.00,97.20
3253.00,97.28
3252.00,97.36
3251.00,97.46
3250.00,97.57
3249.00,97.68
3248.00,97.77
3247.00,97.86
3246.00,97.96
3245.00,98.06
3244.00,98.15
3243.00,98.23
3242.00,98.30
3241.00,98.37
3240.00,98.44
3239.00,98.52
3238.00,98.60
3237.00,98.69
3236.00,98.77
3235.00,98.85
3234.00,98.94
3233.00,99.01
3232.00,99.08
3231.00,99.12
3230.00,99.15
3229.00,99.18
3228.00,99.22
3227.00,99.26
3226.00,99.29
3225.00,99.34
3224.00,99.39
3223.00,99.46
3222.00,99.52
3221.00,99.56
3220.00,99.59
3219.00,99.61
3218.00,99.64
3217.00,99.68
3216.00,99.71
3215.00,99.75
3214.00,99.76
3213.00,99.77
3212.00,99.78
3211.00,99.79
3210.00,99.82
3209.00,99.85
3208.00,99.89
3207.00,99.92
3206.00,99.94
3205.00,99.95
3204.00,99.97
3203.00,99.99
3202.00,100.00
3201.00,100.01
3200.00,100.02
3199.00,100.03
3198.00,100.05
3197.00,100.08
3196.00,100.11
3195.00,100.15
3194.00,100.17
3193.00,100.19
3192.00,100.21
3191.00,100.24
3190.00,100.27
3189.00,100.31
3188.00,100.35
3187.00,100.38
3186.00,100.41
3185.00,100.42
3184.00,100.43
3183.00,100.45
3182.00,100.46
3181.00,100.49
3180.00,100.52
3179.00,100.57
3178.00,100.61
3177.00,100.64
3176.00,100.67
3175.00,100.70
3174.00,100.74
3173.00,100.78
3172.00,100.80
3171.00,100.82
3170.00,100.83
3169.00,100.85
3168.00,100.87
3167.00,100.89
3166.00,100.92
3165.00,100.95
3164.00,100.98
3163.00,101.01
3162.00,101.04
3161.00,101.06
3160.00,101.08
3159.00,101.10
3158.00,101.12
3157.00,101.14
3156.00,101.15
3155.00,101.17
3154.00,101.19
3153.00,101.21
3152.00,101.23
3151.00,101.24
3150.00,101.23
3149.00,101.22
3148.00,101.21
3147.00,101.22
3146.00,101.24
3145.00,101.25
3144.00,101.26
3143.00,101.26
3142.00,101.25
3141.00,101.24
3140.00,101.23
3139.00,101.24
3138.00,101.27
3137.00,101.29
3136.00,101.30
3135.00,101.30
3134.00,101.30
3133.00,101.30
3132.00,101.31
3131.00,101.31
3130.00,101.30
3129.00,101.28
3128.00,101.26
3127.00,101.25
3126.00,101.25
3125.00,101.24
3124.00,101.22
3123.00,101.20
3122.00,101.17
3121.00,101.14
3120.00,101.11
3119.00,101.09
3118.00,101.09
3117.00,101.10
3116.00,101.08
3115.00,101.05
3114.00,101.00
3113.00,100.94
3112.00,100.91
3111.00,100.89
3110.00,100.90
3109.00,100.90
3108.00,100.88
3107.00,100.85
3106.00,100.82
3105.00,100.78
3104.00,100.74
3103.00,100.70
3102.00,100.68
3101.00,100.67
3100.00,100.64
3099.00,100.60
3098.00,100.55
3097.00,100.51
3096.00,100.48
3095.00,100.44
3094.00,100.40
3093.00,100.36
3092.00,100.31
3091.00,100.28
3090.00,100.25
3089.00,100.22
3088.00,100.20
3087.00,100.18
3086.00,100.17
3085.00,100.16
3084.00,100.13
3083.00,100.11
3082.00,100.08
3081.00,100.07
3080.00,100.07
3079.00,100.09
3078.00,100.11
3077.00,100.12
3076.00,100.13
3075.00,100.13
3074.00,100.13
3073.00,100.13
3072.00,100.14
3071.00,100.14
3070.00,100.14
3069.00,100.14
3068.00,100.14
3067.00,100.16
3066.00,100.20
3065.00,100.24
3064.00,100.30
3063.00,100.34
3062.00,100.38
3061.00,100.39
3060.00,100.38
3059.00,100.38
3058.00,100.40
3057.00,100.44
3056.00,100.50
3055.00,100.57
3054.00,100.64
3053.00,100.69
3052.00,100.74
3051.00,100.77
3050.00,100.80
3049.00,100.84
3048.00,100.89
3047.00,100.95
3046.00,101.01
3045.00,101.07
3044.00,101.12
3043.00,101.14
3042.00,101.15
3041.00,101.15
3040.00,101.18
3039.00,101.22
3038.00,101.25
3037.00,101.28
3036.00,101.29
3035.00,101.32
3034.00,101.35
3033.00,101.38
3032.00,101.40
3031.00,101.42
3030.00,101.44
3029.00,101.47
3028.00,101.50
3027.00,101.51
3026.00,101.50
3025.00,101.50
3024.00,101.50
3023.00,101.51
3022.00,101.53
3021.00,101.55
3020.00,101.57
3019.00,101.60
3018.00,101.62
3017.00,101.63
3016.00,101.62
3015.00,101.61
3014.00,101.59
3013.00,101.58
3012.00,101.59
3011.00,101.59
3010.00,101.60
3009.00,101.60
3008.00,101.61
3007.00,101.62
3006.00,101.64
3005.00,101.63
3004.00,101.62
3003.00,101.60
3002.00,101.60
3001.00,101.60
3000.00,101.62
2999.00,101.62
2998.00,101.62
2997.00,101.60
2996.00,101.57
2995.00,101.54
2994.00,101.52
2993.00,101.49
2992.00,101.46
2991.00,101.44
2990.00,101.43
2989.00,101.42
2988.00,101.40
2987.00,101.36
2986.00,101.30
2985.00,101.22
2984.00,101.13
2983.00,101.06
2982.00,101.00
2981.00,100.95
2980.00,100.90
2979.00,100.84
2978.00,100.78
2977.00,100.71
2976.00,100.63
2975.00,100.54
2974.00,100.43
2973.00,100.32
2972.00,100.19
2971.00,100.07
2970.00,99.94
2969.00,99.82
2968.00,99.69
2967.00,99.57
2966.00,99.44
2965.00,99.30
2964.00,99.16
2963.00,99.01
2962.00,98.86
2961.00,98.71
2960.00,98.56
2959.00,98.39
2958.00,98.20
2957.00,97.99
2956.00,97.78
2955.00,97.55
2954.00,97.31
2953.00,97.05
2952.00,96.79
2951.00,96.51
2950.00,96.22
2949.00,95.92
2948.00,95.62
2947.00,95.35
2946.00,95.11
2945.00,94.89
2944.00,94.71
2943.00,94.54
2942.00,94.40
2941.00,94.28
2940.00,94.16
2939.00,94.04
2938.00,93.93
2937.00,93.81
2936.00,93.71
2935.00,93.65
2934.00,93.63
2933.00,93.65
2932.00,93.69
2931.00,93.74
2930.00,93.81
2929.00,93.90
2928.00,94.00
2927.00,94.12
2926.00,94.23
2925.00,94.36
2924.00,94.50
2923.00,94.66
2922.00,94.82
2921.00,94.97
2920.00,95.12
2919.00,95.27
2918.00,95.44
2917.00,95.62
2916.00,95.80
2915.00,95.97
2914.00,96.13
2913.00,96.26
2912.00,96.40
2911.00,96.52
2910.00,96.64
2909.00,96.76
2908.00,96.86
2907.00,96.95
2906.00,97.05
2905.00,97.13
2904.00,97.21
2903.00,97.27
2902.00,97.33
2901.00,97.39
2900.00,97.46
2899.00,97.54
2898.00,97.63
2897.00,97.72
2896.00,97.82
2895.00,97.91
2894.00,98.00
2893.00,98.08
2892.00,98.17
2891.00,98.26
2890.00,98.35
2889.00,98.43
2888.00,98.49
2887.00,98.52
2886.00,98.52
2885.00,98.50
2884.00,98.45
2883.00,98.37
2882.00,98.28
2881.00,98.18
2880.00,98.06
2879.00,97.92
2878.00,97.78
2877.00,97.62
2876.00,97.46
2875.00,97.30
2874.00,97.12
2873.00,96.95
2872.00,96.79
2871.00,96.66
2870.00,96.53
2869.00,96.42
2868.00,96.32
2867.00,96.23
2866.00,96.17
2865.00,96.11
2864.00,96.06
2863.00,96.05
2862.00,96.07
2861.00,96.11
2860.00,96.16
2859.00,96.22
2858.00,96.30
2857.00,96.41
2856.00,96.55
2855.00,96.70
2854.00,96.86
2853.00,97.02
2852.00,97.21
2851.00,97.42
2850.00,97.66
2849.00,97.92
2848.00,98.20
2847.00,98.50
2846.00,98.79
2845.00,99.07
2844.00,99.33
2843.00,99.57
2842.00,99.76
2841.00,99.93
2840.00,100.07
2839.00,100.19
2838.00,100.30
2837.00,100.40
2836.00,100.48
2835.00,100.55
2834.00,100.60
2833.00,100.65
2832.00,100.69
2831.00,100.74
2830.00,100.80
2829.00,100.85
2828.00,100.88
2827.00,100.91
2826.00,100.94
2825.00,100.95
2824.00,100.96
2823.00,100.98
2822.00,101.00
2821.00,101.02
2820.00,101.05
2819.00,101.07
2818.00,101.10
2817.00,101.12
2816.00,101.15
2815.00,101.18
2814.00,101.21
2813.00,101.23
2812.00,101.24
2811.00,101.25
2810.00,101.25
2809.00,101.26
2808.00,101.28
2807.00,101.31
2806.00,101.34
2805.00,101.36
2804.00,101.38
2803.00,101.39
2802.00,101.40
2801.00,101.41
2800.00,101.43
2799.00,101.44
2798.00,101.45
2797.00,101.45
2796.00,101.44
2795.00,101.45
2794.00,101.46
2793.00,101.47
2792.00,101.49
2791.00,101.51
2790.00,101.52
2789.00,101.52
2788.00,101.53
2787.00,101.54
2786.00,101.55
2785.00,101.56
2784.00,101.56
2783.00,101.54
2782.00,101.54
2781.00,101.54
2780.00,101.55
2779.00,101.57
2778.00,101.58
2777.00,101.59
2776.00,101.60
2775.00,101.61
2774.00,101.61
2773.00,101.62
2772.00,101.63
2771.00,101.64
2770.00,101.64
2769.00,101.65
2768.00,101.64
2767.00,101.63
2766.00,101.63
2765.00,101.63
2764.00,101.64
2763.00,101.66
2762.00,101.68
2761.00,101.69
2760.00,101.70
2759.00,101.70
2758.00,101.71
2757.00,101.71
2756.00,101.71
2755.00,101.70
2754.00,101.69
2753.00,101.69
2752.00,101.71
2751.00,101.73
2750.00,101.75
2749.00,101.77
2748.00,101.77
2747.00,101.77
2746.00,101.75
2745.00,101.74
2744.00,101.75
2743.00,101.75
2742.00,101.76
2741.00,101.77
2740.00,101.77
2739.00,101.77
2738.00,101.78
2737.00,101.78
2736.00,101.77
2735.00,101.76
2734.00,101.75
2733.00,101.75
2732.00,101.76
2731.00,101.78
2730.00,101.79
2729.00,101.80
2728.00,101.80
2727.00,101.80
2726.00,101.79
2725.00,101.79
2724.00,101.79
2723.00,101.80
2722.00,101.81
2721.00,101.83
2720.00,101.83
2719.00,101.83
2718.00,101.83
2717.00,101.83
2716.00,101.84
2715.00,101.84
2714.00,101.84
2713.00,101.84
2712.00,101.83
2711.00,101.83
2710.00,101.83
2709.00,101.83
2708.00,101.83
2707.00,101.84
2706.00,101.84
2705.00,101.84
2704.00,101.85
2703.00,101.86
2702.00,101.88
2701.00,101.89
2700.00,101.89
2699.00,101.88
2698.00,101.85
2697.00,101.84
2696.00,101.84
2695.00,101.86
2694.00,101.89
2693.00,101.91
2692.00,101.92
2691.00,101.91
2690.00,101.89
2689.00,101.88
2688.00,101.88
2687.00,101.88
2686.00,101.90
2685.00,101.91
2684.00,101.92
2683.00,101.92
2682.00,101.93
2681.00,101.93
2680.00,101.93
2679.00,101.93
2678.00,101.93
2677.00,101.93
2676.00,101.93
2675.00,101.91
2674.00,101.90
2673.00,101.89
2672.00,101.90
2671.00,101.91
2670.00,101.94
2669.00,101.96
2668.00,101.97
2667.00,101.98
2666.00,101.97
2665.00,101.96
2664.00,101.94
2663.00,101.93
2662.00,101.92
2661.00,101.92
2660.00,101.91
2659.00,101.89
2658.00,101.87
2657.00,101.87
2656.00,101.88
2655.00,101.89
2654.00,101.91
2653.00,101.93
2652.00,101.94
2651.00,101.95
2650.00,101.95
2649.00,101.95
2648.00,101.96
2647.00,101.97
2646.00,101.98
2645.00,101.99
2644.00,101.98
2643.00,101.97
2642.00,101.96
2641.00,101.95
2640.00,101.94
2639.00,101.94
2638.00,101.93
2637.00,101.92
2636.00,101.93
2635.00,101.94
2634.00,101.95
2633.00,101.96
2632.00,101.96
2631.00,101.96
2630.00,101.97
2629.00,101.97
2628.00,101.97
2627.00,101.97
2626.00,101.97
2625.00,101.97
2624.00,101.97
2623.00,101.98
2622.00,102.00
2621.00,102.02
2620.00,102.02
2619.00,102.00
2618.00,101.98
2617.00,101.98
2616.00,102.00
2615.00,102.02
2614.00,102.03
2613.00,102.03
2612.00,102.03
2611.00,102.04
2610.00,102.05
2609.00,102.05
2608.00,102.04
2607.00,102.02
2606.00,102.00
2605.00,102.00
2604.00,102.01
2603.00,102.03
2602.00,102.05
2601.00,102.06
2600.00,102.07
2599.00,102.07
2598.00,102.07
2597.00,102.07
2596.00,102.08
2595.00,102.09
2594.00,102.10
2593.00,102.10
2592.00,102.08
2591.00,102.07
2590.00,102.07
2589.00,102.07
2588.00,102.06
2587.00,102.05
2586.00,102.04
2585.00,102.04
2584.00,102.06
2583.00,102.08
2582.00,102.09
2581.00,102.10
2580.00,102.09
2579.00,102.08
2578.00,102.08
2577.00,102.08
2576.00,102.10
2575.00,102.12
2574.00,102.14
2573.00,102.15
2572.00,102.15
2571.00,102.14
2570.00,102.13
2569.00,102.13
2568.00,102.13
2567.00,102.14
2566.00,102.14
2565.00,102.13
2564.00,102.11
2563.00,102.09
2562.00,102.08
2561.00,102.07
2560.00,102.08
2559.00,102.10
2558.00,102.12
2557.00,102.13
2556.00,102.13
2555.00,102.12
2554.00,102.11
2553.00,102.11
2552.00,102.13
2551.00,102.15
2550.00,102.16
2549.00,102.16
2548.00,102.16
2547.00,102.14
2546.00,102.13
2545.00,102.11
2544.00,102.12
2543.00,102.14
2542.00,102.15
2541.00,102.15
2540.00,102.13
2539.00,102.10
2538.00,102.09
2537.00,102.10
2536.00,102.10
2535.00,102.10
2534.00,102.11
2533.00,102.13
2532.00,102.14
2531.00,102.14
2530.00,102.13
2529.00,102.11
2528.00,102.10
2527.00,102.10
2526.00,102.11
2525.00,102.12
2524.00,102.13
2523.00,102.13
2522.00,102.12
2521.00,102.12
2520.00,102.13
2519.00,102.15
2518.00,102.16
2517.00,102.17
2516.00,102.17
2515.00,102.17
2514.00,102.16
2513.00,102.16
2512.00,102.18
2511.00,102.20
2510.00,102.21
2509.00,102.19
2508.00,102.16
2507.00,102.12
2506.00,102.10
2505.00,102.10
2504.00,102.12
2503.00,102.15
2502.00,102.17
2501.00,102.17
2500.00,102.16
2499.00,102.14
2498.00,102.13
2497.00,102.13
2496.00,102.13
2495.00,102.14
2494.00,102.16
2493.00,102.18
2492.00,102.20
2491.00,102.22
2490.00,102.23
2489.00,102.21
2488.00,102.19
2487.00,102.17
2486.00,102.17
2485.00,102.20
2484.00,102.23
2483.00,102.24
2482.00,102.23
2481.00,102.20
2480.00,102.16
2479.00,102.13
2478.00,102.13
2477.00,102.14
2476.00,102.17
2475.00,102.19
2474.00,102.21
2473.00,102.20
2472.00,102.19
2471.00,102.18
2470.00,102.17
2469.00,102.16
2468.00,102.15
2467.00,102.15
2466.00,102.16
2465.00,102.18
2464.00,102.19
2463.00,102.18
2462.00,102.15
2461.00,102.12
2460.00,102.12
2459.00,102.12
2458.00,102.13
2457.00,102.12
2456.00,102.11
2455.00,102.10
2454.00,102.10
2453.00,102.10
2452.00,102.11
2451.00,102.13
2450.00,102.15
2449.00,102.16
2448.00,102.17
2447.00,102.18
2446.00,102.18
2445.00,102.18
2444.00,102.16
2443.00,102.14
2442.00,102.13
2441.00,102.13
2440.00,102.15
2439.00,102.17
2438.00,102.18
2437.00,102.16
2436.00,102.15
2435.00,102.15
2434.00,102.16
2433.00,102.17
2432.00,102.17
2431.00,102.17
2430.00,102.17
2429.00,102.17
2428.00,102.17
2427.00,102.18
2426.00,102.17
2425.00,102.16
2424.00,102.15
2423.00,102.14
2422.00,102.14
2421.00,102.15
2420.00,102.17
2419.00,102.18
2418.00,102.19
2417.00,102.19
2416.00,102.18
2415.00,102.18
2414.00,102.19
2413.00,102.19
2412.00,102.19
2411.00,102.18
2410.00,102.16
2409.00,102.15
2408.00,102.15
2407.00,102.14
2406.00,102.14
2405.00,102.14
2404.00,102.13
2403.00,102.13
2402.00,102.13
2401.00,102.13
2400.00,102.12
2399.00,102.11
2398.00,102.10
2397.00,102.11
2396.00,102.12
2395.00,102.14
2394.00,102.15
2393.00,102.14
2392.00,102.12
2391.00,102.11
2390.00,102.11
2389.00,102.11
2388.00,102.13
2387.00,102.15
2386.00,102.17
2385.00,102.18
2384.00,102.17
2383.00,102.15
2382.00,102.12
2381.00,102.10
2380.00,102.10
2379.00,102.10
2378.00,102.12
2377.00,102.12
2376.00,102.11
2375.00,102.09
2374.00,102.07
2373.00,102.06
2372.00,102.05
2371.00,102.05
2370.00,102.04
2369.00,102.03
2368.00,102.04
2367.00,102.05
2366.00,102.07
2365.00,102.08
2364.00,102.06
2363.00,102.02
2362.00,101.98
2361.00,101.95
2360.00,101.97
2359.00,102.00
2358.00,102.03
2357.00,102.00
2356.00,101.92
2355.00,101.80
2354.00,101.73
2353.00,101.76
2352.00,101.88
2351.00,101.99
2350.00,102.01
2349.00,101.95
2348.00,101.89
2347.00,101.89
2346.00,101.94
2345.00,101.97
2344.00,101.94
2343.00,101.89
2342.00,101.86
2341.00,101.87
2340.00,101.89
2339.00,101.91
2338.00,101.90
2337.00,101.86
2336.00,101.81
2335.00,101.78
2334.00,101.76
2333.00,101.77
2332.00,101.81
2331.00,101.86
2330.00,101.90
2329.00,101.91
2328.00,101.90
2327.00,101.84
2326.00,101.77
2325.00,101.73
2324.00,101.73
2323.00,101.77
2322.00,101.80
2321.00,101.82
2320.00,101.84
2319.00,101.87
2318.00,101.90
2317.00,101.92
2316.00,101.92
2315.00,101.91
2314.00,101.90
2313.00,101.90
2312.00,101.91
2311.00,101.90
2310.00,101.89
2309.00,101.88
2308.00,101.90
2307.00,101.93
2306.00,101.95
2305.00,101.95
2304.00,101.94
2303.00,101.93
2302.00,101.94
2301.00,101.96
2300.00,101.98
2299.00,101.99
2298.00,102.00
2297.00,102.00
2296.00,102.00
2295.00,102.00
2294.00,102.02
2293.00,102.05
2292.00,102.08
2291.00,102.11
2290.00,102.13
2289.00,102.13
2288.00,102.13
2287.00,102.11
2286.00,102.08
2285.00,102.06
2284.00,102.04
2283.00,102.03
2282.00,102.02
2281.00,102.00
2280.00,102.00
2279.00,102.01
2278.00,102.03
2277.00,102.05
2276.00,102.07
2275.00,102.09
2274.00,102.12
2273.00,102.14
2272.00,102.16
2271.00,102.17
2270.00,102.17
2269.00,102.16
2268.00,102.17
2267.00,102.17
2266.00,102.18
2265.00,102.18
2264.00,102.19
2263.00,102.20
2262.00,102.20
2261.00,102.20
2260.00,102.17
2259.00,102.14
2258.00,102.11
2257.00,102.09
2256.00,102.11
2255.00,102.13
2254.00,102.16
2253.00,102.17
2252.00,102.19
2251.00,102.21
2250.00,102.22
2249.00,102.22
2248.00,102.23
2247.00,102.24
2246.00,102.26
2245.00,102.28
2244.00,102.29
2243.00,102.32
2242.00,102.34
2241.00,102.36
2240.00,102.38
2239.00,102.41
2238.00,102.42
2237.00,102.41
2236.00,102.39
2235.00,102.35
2234.00,102.32
2233.00,102.29
2232.00,102.28
2231.00,102.28
2230.00,102.30
2229.00,102.33
2228.00,102.36
2227.00,102.35
2226.00,102.30
2225.00,102.25
2224.00,102.22
2223.00,102.23
2222.00,102.25
2221.00,102.25
2220.00,102.24
2219.00,102.23
2218.00,102.23
2217.00,102.23
2216.00,102.23
2215.00,102.26
2214.00,102.30
2213.00,102.33
2212.00,102.34
2211.00,102.34
2210.00,102.34
2209.00,102.37
2208.00,102.39
2207.00,102.39
2206.00,102.36
2205.00,102.36
2204.00,102.41
2203.00,102.47
2202.00,102.49
2201.00,102.47
2200.00,102.45
2199.00,102.45
2198.00,102.47
2197.00,102.45
2196.00,102.41
2195.00,102.40
2194.00,102.43
2193.00,102.48
2192.00,102.50
2191.00,102.46
2190.00,102.39
2189.00,102.32
2188.00,102.31
2187.00,102.36
2186.00,102.46
2185.00,102.54
2184.00,102.54
2183.00,102.50
2182.00,102.45
2181.00,102.42
2180.00,102.40
2179.00,102.38
2178.00,102.36
2177.00,102.36
2176.00,102.39
2175.00,102.43
2174.00,102.45
2173.00,102.45
2172.00,102.44
2171.00,102.41
2170.00,102.38
2169.00,102.35
2168.00,102.35
2167.00,102.36
2166.00,102.36
2165.00,102.35
2164.00,102.35
2163.00,102.37
2162.00,102.42
2161.00,102.47
2160.00,102.53
2159.00,102.61
2158.00,102.69
2157.00,102.75
2156.00,102.77
2155.00,102.77
2154.00,102.74
2153.00,102.69
2152.00,102.61
2151.00,102.53
2150.00,102.45
2149.00,102.41
2148.00,102.41
2147.00,102.43
2146.00,102.41
2145.00,102.37
2144.00,102.32
2143.00,102.31
2142.00,102.33
2141.00,102.34
2140.00,102.31
2139.00,102.28
2138.00,102.25
2137.00,102.26
2136.00,102.30
2135.00,102.36
2134.00,102.43
2133.00,102.46
2132.00,102.45
2131.00,102.40
2130.00,102.35
2129.00,102.30
2128.00,102.27
2127.00,102.25
2126.00,102.24
2125.00,102.25
2124.00,102.27
2123.00,102.29
2122.00,102.30
2121.00,102.26
2120.00,102.18
2119.00,102.10
2118.00,102.04
2117.00,102.00
2116.00,101.99
2115.00,102.00
2114.00,102.03
2113.00,102.07
2112.00,102.12
2111.00,102.17
2110.00,102.21
2109.00,102.21
2108.00,102.20
2107.00,102.18
2106.00,102.18
2105.00,102.19
2104.00,102.20
2103.00,102.21
2102.00,102.21
2101.00,102.20
2100.00,102.20
2099.00,102.21
2098.00,102.22
2097.00,102.23
2096.00,102.21
2095.00,102.18
2094.00,102.17
2093.00,102.16
2092.00,102.16
2091.00,102.14
2090.00,102.14
2089.00,102.15
2088.00,102.17
2087.00,102.18
2086.00,102.18
2085.00,102.18
2084.00,102.19
2083.00,102.18
2082.00,102.15
2081.00,102.11
2080.00,102.09
2079.00,102.11
2078.00,102.14
2077.00,102.17
2076.00,102.18
2075.00,102.18
2074.00,102.16
2073.00,102.13
2072.00,102.13
2071.00,102.15
2070.00,102.21
2069.00,102.25
2068.00,102.28
2067.00,102.28
2066.00,102.27
2065.00,102.25
2064.00,102.24
2063.00,102.22
2062.00,102.21
2061.00,102.21
2060.00,102.21
2059.00,102.21
2058.00,102.20
2057.00,102.22
2056.00,102.27
2055.00,102.34
2054.00,102.38
2053.00,102.36
2052.00,102.31
2051.00,102.26
2050.00,102.25
2049.00,102.26
2048.00,102.28
2047.00,102.29
2046.00,102.31
2045.00,102.34
2044.00,102.38
2043.00,102.40
2042.00,102.39
2041.00,102.37
2040.00,102.37
2039.00,102.41
2038.00,102.45
2037.00,102.45
2036.00,102.42
2035.00,102.38
2034.00,102.38
2033.00,102.42
2032.00,102.46
2031.00,102.49
2030.00,102.50
2029.00,102.49
2028.00,102.47
2027.00,102.45
2026.00,102.44
2025.00,102.45
2024.00,102.47
2023.00,102.49
2022.00,102.48
2021.00,102.45
2020.00,102.42
2019.00,102.41
2018.00,102.44
2017.00,102.48
2016.00,102.56
2015.00,102.63
2014.00,102.66
2013.00,102.63
2012.00,102.56
2011.00,102.48
2010.00,102.41
2009.00,102.37
2008.00,102.38
2007.00,102.44
2006.00,102.53
2005.00,102.56
2004.00,102.52
2003.00,102.44
2002.00,102.35
2001.00,102.29
2000.00,102.27
1999.00,102.32
1998.00,102.40
1997.00,102.47
1996.00,102.49
1995.00,102.48
1994.00,102.45
1993.00,102.41
1992.00,102.39
1991.00,102.37
1990.00,102.35
1989.00,102.31
1988.00,102.26
1987.00,102.24
1986.00,102.25
1985.00,102.31
1984.00,102.37
1983.00,102.40
1982.00,102.40
1981.00,102.39
1980.00,102.39
1979.00,102.40
1978.00,102.40
1977.00,102.38
1976.00,102.34
1975.00,102.31
1974.00,102.27
1973.00,102.23
1972.00,102.20
1971.00,102.20
1970.00,102.23
1969.00,102.28
1968.00,102.31
1967.00,102.33
1966.00,102.33
1965.00,102.31
1964.00,102.31
1963.00,102.33
1962.00,102.36
1961.00,102.40
1960.00,102.44
1959.00,102.48
1958.00,102.52
1957.00,102.54
1956.00,102.51
1955.00,102.44
1954.00,102.36
1953.00,102.30
1952.00,102.26
1951.00,102.26
1950.00,102.27
1949.00,102.30
1948.00,102.31
1947.00,102.33
1946.00,102.34
1945.00,102.35
1944.00,102.34
1943.00,102.34
1942.00,102.32
1941.00,102.28
1940.00,102.23
1939.00,102.17
1938.00,102.14
1937.00,102.15
1936.00,102.19
1935.00,102.22
1934.00,102.22
1933.00,102.19
1932.00,102.16
1931.00,102.15
1930.00,102.15
1929.00,102.16
1928.00,102.15
1927.00,102.15
1926.00,102.15
1925.00,102.15
1924.00,102.15
1923.00,102.15
1922.00,102.15
1921.00,102.15
1920.00,102.16
1919.00,102.17
1918.00,102.17
1917.00,102.17
1916.00,102.18
1915.00,102.20
1914.00,102.20
1913.00,102.18
1912.00,102.12
1911.00,102.07
1910.00,102.02
1909.00,101.97
1908.00,101.95
1907.00,101.95
1906.00,101.97
1905.00,101.99
1904.00,102.01
1903.00,102.01
1902.00,102.00
1901.00,102.00
1900.00,102.01
1899.00,102.04
1898.00,102.07
1897.00,102.09
1896.00,102.08
1895.00,102.08
1894.00,102.09
1893.00,102.10
1892.00,102.09
1891.00,102.08
1890.00,102.07
1889.00,102.07
1888.00,102.08
1887.00,102.10
1886.00,102.11
1885.00,102.13
1884.00,102.14
1883.00,102.15
1882.00,102.12
1881.00,102.08
1880.00,102.04
1879.00,102.02
1878.00,102.02
1877.00,102.03
1876.00,102.04
1875.00,102.05
1874.00,102.07
1873.00,102.07
1872.00,102.07
1871.00,102.06
1870.00,102.06
1869.00,102.05
1868.00,102.05
1867.00,102.04
1866.00,102.04
1865.00,102.02
1864.00,102.01
1863.00,102.02
1862.00,102.04
1861.00,102.07
1860.00,102.08
1859.00,102.07
1858.00,102.06
1857.00,102.04
1856.00,102.04
1855.00,102.04
1854.00,102.05
1853.00,102.05
1852.00,102.04
1851.00,102.03
1850.00,102.05
1849.00,102.07
1848.00,102.09
1847.00,102.10
1846.00,102.09
1845.00,102.07
1844.00,102.06
1843.00,102.04
1842.00,102.01
1841.00,102.00
1840.00,101.99
1839.00,102.01
1838.00,102.03
1837.00,102.04
1836.00,102.05
1835.00,102.05
1834.00,102.04
1833.00,102.02
1832.00,102.00
1831.00,101.99
1830.00,101.99
1829.00,102.01
1828.00,102.02
1827.00,102.02
1826.00,102.01
1825.00,101.99
1824.00,101.98
1823.00,101.97
1822.00,101.97
1821.00,101.99
1820.00,102.01
1819.00,102.02
1818.00,102.04
1817.00,102.04
1816.00,102.05
1815.00,102.05
1814.00,102.05
1813.00,102.03
1812.00,102.02
1811.00,102.00
1810.00,101.99
1809.00,101.99
1808.00,102.00
1807.00,102.02
1806.00,102.03
1805.00,102.03
1804.00,102.02
1803.00,102.01
1802.00,102.01
1801.00,102.01
1800.00,102.00
1799.00,102.00
1798.00,102.00
1797.00,101.99
1796.00,101.98
1795.00,101.97
1794.00,101.97
1793.00,101.96
1792.00,101.97
1791.00,101.96
1790.00,101.95
1789.00,101.94
1788.00,101.95
1787.00,101.96
1786.00,101.97
1785.00,101.96
1784.00,101.94
1783.00,101.92
1782.00,101.91
1781.00,101.90
1780.00,101.90
1779.00,101.90
1778.00,101.91
1777.00,101.92
1776.00,101.93
1775.00,101.94
1774.00,101.93
1773.00,101.93
1772.00,101.92
1771.00,101.92
1770.00,101.92
1769.00,101.91
1768.00,101.90
1767.00,101.90
1766.00,101.89
1765.00,101.89
1764.00,101.89
1763.00,101.90
1762.00,101.89
1761.00,101.87
1760.00,101.84
1759.00,101.82
1758.00,101.82
1757.00,101.82
1756.00,101.81
1755.00,101.80
1754.00,101.78
1753.00,101.77
1752.00,101.77
1751.00,101.75
1750.00,101.72
1749.00,101.69
1748.00,101.67
1747.00,101.66
1746.00,101.66
1745.00,101.66
1744.00,101.64
1743.00,101.63
1742.00,101.60
1741.00,101.57
1740.00,101.54
1739.00,101.53
1738.00,101.52
1737.00,101.50
1736.00,101.47
1735.00,101.46
1734.00,101.46
1733.00,101.45
1732.00,101.44
1731.00,101.43
1730.00,101.44
1729.00,101.46
1728.00,101.47
1727.00,101.46
1726.00,101.45
1725.00,101.43
1724.00,101.42
1723.00,101.44
1722.00,101.47
1721.00,101.49
1720.00,101.49
1719.00,101.47
1718.00,101.47
1717.00,101.46
1716.00,101.46
1715.00,101.45
1714.00,101.45
1713.00,101.44
1712.00,101.45
1711.00,101.46
1710.00,101.46
1709.00,101.46
1708.00,101.45
1707.00,101.43
1706.00,101.43
1705.00,101.43
1704.00,101.42
1703.00,101.41
1702.00,101.40
1701.00,101.40
1700.00,101.39
1699.00,101.34
1698.00,101.28
1697.00,101.22
1696.00,101.17
1695.00,101.13
1694.00,101.06
1693.00,100.97
1692.00,100.86
1691.00,100.77
1690.00,100.68
1689.00,100.60
1688.00,100.50
1687.00,100.38
1686.00,100.22
1685.00,100.01
1684.00,99.77
1683.00,99.52
1682.00,99.29
1681.00,99.05
1680.00,98.81
1679.00,98.57
1678.00,98.32
1677.00,98.07
1676.00,97.78
1675.00,97.48
1674.00,97.19
1673.00,96.91
1672.00,96.61
1671.00,96.27
1670.00,95.88
1669.00,95.45
1668.00,95.03
1667.00,94.64
1666.00,94.27
1665.00,93.89
1664.00,93.49
1663.00,93.10
1662.00,92.74
1661.00,92.39
1660.00,92.05
1659.00,91.71
1658.00,91.39
1657.00,91.11
1656.00,90.81
1655.00,90.46
1654.00,90.01
1653.00,89.48
1652.00,88.97
1651.00,88.54
1650.00,88.14
1649.00,87.69
1648.00,87.17
1647.00,86.59
1646.00,86.01
1645.00,85.48
1644.00,84.97
1643.00,84.48
1642.00,84.01
1641.00,83.55
1640.00,83.13
1639.00,82.77
1638.00,82.48
1637.00,82.30
1636.00,82.29
1635.00,82.40
1634.00,82.55
1633.00,82.68
1632.00,82.81
1631.00,82.98
1630.00,83.20
1629.00,83.47
1628.00,83.76
1627.00,84.05
1626.00,84.33
1625.00,84.65
1624.00,85.07
1623.00,85.58
1622.00,86.12
1621.00,86.60
1620.00,87.03
1619.00,87.46
1618.00,88.00
1617.00,88.69
1616.00,89.42
1615.00,90.03
1614.00,90.50
1613.00,90.92
1612.00,91.37
1611.00,91.83
1610.00,92.29
1609.00,92.74
1608.00,93.18
1607.00,93.59
1606.00,93.96
1605.00,94.30
1604.00,94.64
1603.00,94.97
1602.00,95.27
1601.00,95.53
1600.00,95.77
1599.00,95.98
1598.00,96.16
1597.00,96.30
1596.00,96.44
1595.00,96.57
1594.00,96.67
1593.00,96.74
1592.00,96.81
1591.00,96.87
1590.00,96.89
1589.00,96.88
1588.00,96.87
1587.00,96.84
1586.00,96.78
1585.00,96.69
1584.00,96.59
1583.00,96.47
1582.00,96.33
1581.00,96.19
1580.00,96.05
1579.00,95.89
1578.00,95.70
1577.00,95.45
1576.00,95.18
1575.00,94.90
1574.00,94.64
1573.00,94.39
1572.00,94.13
1571.00,93.86
1570.00,93.54
1569.00,93.20
1568.00,92.88
1567.00,92.56
1566.00,92.23
1565.00,91.90
1564.00,91.60
1563.00,91.34
1562.00,91.09
1561.00,90.79
1560.00,90.43
1559.00,90.05
1558.00,89.72
1557.00,89.43
1556.00,89.15
1555.00,88.86
1554.00,88.54
1553.00,88.20
1552.00,87.86
1551.00,87.51
1550.00,87.15
1549.00,86.80
1548.00,86.46
1547.00,86.12
1546.00,85.78
1545.00,85.44
1544.00,85.12
1543.00,84.81
1542.00,84.52
1541.00,84.29
1540.00,84.17
1539.00,84.12
1538.00,84.10
1537.00,84.06
1536.00,84.05
1535.00,84.09
1534.00,84.23
1533.00,84.44
1532.00,84.66
1531.00,84.86
1530.00,85.07
1529.00,85.31
1528.00,85.59
1527.00,85.91
1526.00,86.24
1525.00,86.57
1524.00,86.89
1523.00,87.24
1522.00,87.66
1521.00,88.13
1520.00,88.51
1519.00,88.83
1518.00,89.14
1517.00,89.50
1516.00,89.86
1515.00,90.20
1514.00,90.51
1513.00,90.84
1512.00,91.18
1511.00,91.50
1510.00,91.79
1509.00,92.04
1508.00,92.32
1507.00,92.70
1506.00,93.10
1505.00,93.41
1504.00,93.63
1503.00,93.83
1502.00,94.06
1501.00,94.29
1500.00,94.52
1499.00,94.73
1498.00,94.95
1497.00,95.18
1496.00,95.41
1495.00,95.62
1494.00,95.79
1493.00,95.94
1492.00,96.07
1491.00,96.19
1490.00,96.30
1489.00,96.35
1488.00,96.34
1487.00,96.26
1486.00,96.14
1485.00,95.94
1484.00,95.69
1483.00,95.38
1482.00,95.05
1481.00,94.73
1480.00,94.46
1479.00,94.25
1478.00,94.10
1477.00,94.02
1476.00,94.01
1475.00,94.04
1474.00,94.11
1473.00,94.21
1472.00,94.26
1471.00,94.23
1470.00,94.10
1469.00,93.89
1468.00,93.61
1467.00,93.28
1466.00,92.93
1465.00,92.62
1464.00,92.42
1463.00,92.35
1462.00,92.41
1461.00,92.55
1460.00,92.74
1459.00,92.95
1458.00,93.19
1457.00,93.43
1456.00,93.62
1455.00,93.72
1454.00,93.78
1453.00,93.83
1452.00,93.89
1451.00,93.98
1450.00,94.08
1449.00,94.17
1448.00,94.25
1447.00,94.30
1446.00,94.33
1445.00,94.33
1444.00,94.31
1443.00,94.28
1442.00,94.23
1441.00,94.18
1440.00,94.12
1439.00,94.06
1438.00,94.02
1437.00,94.00
1436.00,94.00
1435.00,94.02
1434.00,94.07
1433.00,94.15
1432.00,94.25
1431.00,94.38
1430.00,94.51
1429.00,94.64
1428.00,94.75
1427.00,94.83
1426.00,94.86
1425.00,94.84
1424.00,94.76
1423.00,94.63
1422.00,94.49
1421.00,94.34
1420.00,94.20
1419.00,94.08
1418.00,94.02
1417.00,94.01
1416.00,94.08
1415.00,94.22
1414.00,94.44
1413.00,94.72
1412.00,95.03
1411.00,95.35
1410.00,95.67
1409.00,95.97
1408.00,96.25
1407.00,96.51
1406.00,96.74
1405.00,96.96
1404.00,97.14
1403.00,97.27
1402.00,97.36
1401.00,97.45
1400.00,97.52
1399.00,97.59
1398.00,97.62
1397.00,97.63
1396.00,97.61
1395.00,97.57
1394.00,97.51
1393.00,97.45
1392.00,97.38
1391.00,97.30
1390.00,97.20
1389.00,97.09
1388.00,96.96
1387.00,96.81
1386.00,96.65
1385.00,96.49
1384.00,96.33
1383.00,96.16
1382.00,95.98
1381.00,95.80
1380.00,95.60
1379.00,95.41
1378.00,95.23
1377.00,95.07
1376.00,94.92
1375.00,94.80
1374.00,94.72
1373.00,94.67
1372.00,94.66
1371.00,94.68
1370.00,94.71
1369.00,94.76
1368.00,94.83
1367.00,94.90
1366.00,94.99
1365.00,95.08
1364.00,95.18
1363.00,95.28
1362.00,95.37
1361.00,95.45
1360.00,95.52
1359.00,95.60
1358.00,95.69
1357.00,95.78
1356.00,95.86
1355.00,95.94
1354.00,96.01
1353.00,96.09
1352.00,96.16
1351.00,96.24
1350.00,96.31
1349.00,96.38
1348.00,96.45
1347.00,96.51
1346.00,96.56
1345.00,96.61
1344.00,96.65
1343.00,96.71
1342.00,96.79
1341.00,96.86
1340.00,96.91
1339.00,96.94
1338.00,96.96
1337.00,96.98
1336.00,96.98
1335.00,96.99
1334.00,97.02
1333.00,97.07
1332.00,97.12
1331.00,97.18
1330.00,97.22
1329.00,97.25
1328.00,97.28
1327.00,97.31
1326.00,97.34
1325.00,97.36
1324.00,97.37
1323.00,97.38
1322.00,97.37
1321.00,97.34
1320.00,97.30
1319.00,97.26
1318.00,97.22
1317.00,97.19
1316.00,97.16
1315.00,97.12
1314.00,97.09
1313.00,97.05
1312.00,97.02
1311.00,96.99
1310.00,96.95
1309.00,96.91
1308.00,96.85
1307.00,96.80
1306.00,96.75
1305.00,96.70
1304.00,96.66
1303.00,96.63
1302.00,96.59
1301.00,96.56
1300.00,96.54
1299.00,96.53
1298.00,96.51
1297.00,96.48
1296.00,96.44
1295.00,96.39
1294.00,96.33
1293.00,96.28
1292.00,96.24
1291.00,96.21
1290.00,96.19
1289.00,96.17
1288.00,96.15
1287.00,96.10
1286.00,96.05
1285.00,95.99
1284.00,95.92
1283.00,95.84
1282.00,95.77
1281.00,95.71
1280.00,95.66
1279.00,95.64
1278.00,95.63
1277.00,95.64
1276.00,95.65
1275.00,95.64
1274.00,95.60
1273.00,95.50
1272.00,95.36
1271.00,95.16
1270.00,94.93
1269.00,94.66
1268.00,94.35
1267.00,94.04
1266.00,93.75
1265.00,93.50
1264.00,93.32
1263.00,93.22
1262.00,93.19
1261.00,93.23
1260.00,93.32
1259.00,93.42
1258.00,93.54
1257.00,93.66
1256.00,93.79
1255.00,93.94
1254.00,94.11
1253.00,94.29
1252.00,94.45
1251.00,94.59
1250.00,94.71
1249.00,94.80
1248.00,94.87
1247.00,94.92
1246.00,94.97
1245.00,95.01
1244.00,95.03
1243.00,95.05
1242.00,95.05
1241.00,95.06
1240.00,95.07
1239.00,95.09
1238.00,95.13
1237.00,95.20
1236.00,95.29
1235.00,95.41
1234.00,95.56
1233.00,95.74
1232.00,95.92
1231.00,96.13
1230.00,96.34
1229.00,96.57
1228.00,96.79
1227.00,97.00
1226.00,97.19
1225.00,97.35
1224.00,97.48
1223.00,97.59
1222.00,97.65
1221.00,97.65
1220.00,97.58
1219.00,97.45
1218.00,97.29
1217.00,97.15
1216.00,97.01
1215.00,96.88
1214.00,96.77
1213.00,96.67
1212.00,96.59
1211.00,96.52
1210.00,96.47
1209.00,96.43
1208.00,96.35
1207.00,96.24
1206.00,96.08
1205.00,95.87
1204.00,95.62
1203.00,95.35
1202.00,95.09
1201.00,94.88
1200.00,94.76
1199.00,94.77
1198.00,94.89
1197.00,95.12
1196.00,95.41
1195.00,95.73
1194.00,96.05
1193.00,96.34
1192.00,96.60
1191.00,96.83
1190.00,97.05
1189.00,97.24
1188.00,97.41
1187.00,97.54
1186.00,97.64
1185.00,97.72
1184.00,97.78
1183.00,97.81
1182.00,97.82
1181.00,97.77
1180.00,97.67
1179.00,97.50
1178.00,97.29
1177.00,97.05
1176.00,96.81
1175.00,96.57
1174.00,96.35
1173.00,96.15
1172.00,95.98
1171.00,95.85
1170.00,95.78
1169.00,95.78
1168.00,95.84
1167.00,95.98
1166.00,96.16
1165.00,96.38
1164.00,96.63
1163.00,96.92
1162.00,97.21
1161.00,97.48
1160.00,97.72
1159.00,97.93
1158.00,98.13
1157.00,98.32
1156.00,98.52
1155.00,98.69
1154.00,98.82
1153.00,98.91
1152.00,98.99
1151.00,99.05
1150.00,99.13
1149.00,99.22
1148.00,99.34
1147.00,99.47
1146.00,99.57
1145.00,99.64
1144.00,99.69
1143.00,99.73
1142.00,99.78
1141.00,99.82
1140.00,99.85
1139.00,99.87
1138.00,99.87
1137.00,99.87
1136.00,99.87
1135.00,99.87
1134.00,99.86
1133.00,99.83
1132.00,99.76
1131.00,99.66
1130.00,99.54
1129.00,99.40
1128.00,99.23
1127.00,99.06
1126.00,98.89
1125.00,98.73
1124.00,98.61
1123.00,98.51
1122.00,98.44
1121.00,98.39
1120.00,98.35
1119.00,98.32
1118.00,98.32
1117.00,98.32
1116.00,98.33
1115.00,98.32
1114.00,98.33
1113.00,98.36
1112.00,98.42
1111.00,98.49
1110.00,98.56
1109.00,98.62
1108.00,98.68
1107.00,98.75
1106.00,98.84
1105.00,98.95
1104.00,99.06
1103.00,99.16
1102.00,99.27
1101.00,99.36
1100.00,99.43
1099.00,99.47
1098.00,99.48
1097.00,99.50
1096.00,99.51
1095.00,99.53
1094.00,99.55
1093.00,99.57
1092.00,99.59
1091.00,99.62
1090.00,99.65
1089.00,99.67
1088.00,99.66
1087.00,99.62
1086.00,99.58
1085.00,99.56
1084.00,99.57
1083.00,99.59
1082.00,99.61
1081.00,99.61
1080.00,99.58
1079.00,99.52
1078.00,99.47
1077.00,99.43
1076.00,99.43
1075.00,99.44
1074.00,99.47
1073.00,99.51
1072.00,99.54
1071.00,99.57
1070.00,99.58
1069.00,99.60
1068.00,99.61
1067.00,99.63
1066.00,99.64
1065.00,99.64
1064.00,99.65
1063.00,99.69
1062.00,99.76
1061.00,99.85
1060.00,99.95
1059.00,100.05
1058.00,100.11
1057.00,100.15
1056.00,100.18
1055.00,100.23
1054.00,100.29
1053.00,100.36
1052.00,100.42
1051.00,100.44
1050.00,100.44
1049.00,100.44
1048.00,100.47
1047.00,100.53
1046.00,100.61
1045.00,100.67
1044.00,100.68
1043.00,100.66
1042.00,100.64
1041.00,100.63
1040.00,100.62
1039.00,100.62
1038.00,100.61
1037.00,100.61
1036.00,100.60
1035.00,100.59
1034.00,100.55
1033.00,100.50
1032.00,100.45
1031.00,100.42
1030.00,100.41
1029.00,100.42
1028.00,100.44
1027.00,100.50
1026.00,100.56
1025.00,100.62
1024.00,100.66
1023.00,100.69
1022.00,100.72
1021.00,100.74
1020.00,100.76
1019.00,100.76
1018.00,100.76
1017.00,100.76
1016.00,100.77
1015.00,100.80
1014.00,100.84
1013.00,100.88
1012.00,100.89
1011.00,100.88
1010.00,100.87
1009.00,100.88
1008.00,100.89
1007.00,100.90
1006.00,100.90
1005.00,100.91
1004.00,100.92
1003.00,100.93
1002.00,100.93
1001.00,100.94
1000.00,100.93
999.00,100.92
998.00,100.89
997.00,100.84
996.00,100.79
995.00,100.74
994.00,100.72
993.00,100.70
992.00,100.69
991.00,100.67
990.00,100.66
989.00,100.66
988.00,100.65
987.00,100.64
986.00,100.61
985.00,100.57
984.00,100.52
983.00,100.47
982.00,100.44
981.00,100.42
980.00,100.41
979.00,100.38
978.00,100.36
977.00,100.36
976.00,100.36
975.00,100.37
974.00,100.39
973.00,100.40
972.00,100.41
971.00,100.41
970.00,100.39
969.00,100.36
968.00,100.33
967.00,100.30
966.00,100.27
965.00,100.25
964.00,100.23
963.00,100.20
962.00,100.13
961.00,100.06
960.00,99.99
959.00,99.96
958.00,99.99
957.00,100.06
956.00,100.14
955.00,100.21
954.00,100.28
953.00,100.32
952.00,100.35
951.00,100.36
950.00,100.37
949.00,100.41
948.00,100.48
947.00,100.58
946.00,100.68
945.00,100.77
944.00,100.84
943.00,100.89
942.00,100.92
941.00,100.94
940.00,100.93
939.00,100.93
938.00,100.93
937.00,100.92
936.00,100.90
935.00,100.86
934.00,100.80
933.00,100.73
932.00,100.64
931.00,100.56
930.00,100.49
929.00,100.46
928.00,100.45
927.00,100.48
926.00,100.54
925.00,100.64
924.00,100.75
923.00,100.85
922.00,100.91
921.00,100.95
920.00,100.97
919.00,101.01
918.00,101.05
917.00,101.09
916.00,101.11
915.00,101.13
914.00,101.14
913.00,101.16
912.00,101.19
911.00,101.22
910.00,101.25
909.00,101.27
908.00,101.29
907.00,101.30
906.00,101.32
905.00,101.34
904.00,101.38
903.00,101.41
902.00,101.44
901.00,101.46
900.00,101.48
899.00,101.50
898.00,101.49
897.00,101.48
896.00,101.45
895.00,101.44
894.00,101.46
893.00,101.50
892.00,101.55
891.00,101.57
890.00,101.57
889.00,101.57
888.00,101.59
887.00,101.59
886.00,101.59
885.00,101.59
884.00,101.59
883.00,101.61
882.00,101.63
881.00,101.63
880.00,101.64
879.00,101.65
878.00,101.67
877.00,101.72
876.00,101.76
875.00,101.78
874.00,101.79
873.00,101.80
872.00,101.80
871.00,101.80
870.00,101.78
869.00,101.75
868.00,101.74
867.00,101.76
866.00,101.79
865.00,101.82
864.00,101.84
863.00,101.84
862.00,101.85
861.00,101.85
860.00,101.85
859.00,101.85
858.00,101.85
857.00,101.86
856.00,101.85
855.00,101.83
854.00,101.80
853.00,101.78
852.00,101.78
851.00,101.77
850.00,101.76
849.00,101.73
848.00,101.68
847.00,101.61
846.00,101.55
845.00,101.53
844.00,101.55
843.00,101.58
842.00,101.60
841.00,101.60
840.00,101.58
839.00,101.53
838.00,101.44
837.00,101.33
836.00,101.21
835.00,101.13
834.00,101.10
833.00,101.12
832.00,101.16
831.00,101.21
830.00,101.25
829.00,101.29
828.00,101.31
827.00,101.34
826.00,101.37
825.00,101.39
824.00,101.41
823.00,101.42
822.00,101.42
821.00,101.43
820.00,101.45
819.00,101.45
818.00,101.44
817.00,101.42
816.00,101.39
815.00,101.36
814.00,101.34
813.00,101.33
812.00,101.33
811.00,101.32
810.00,101.31
809.00,101.30
808.00,101.28
807.00,101.25
806.00,101.21
805.00,101.15
804.00,101.11
803.00,101.11
802.00,101.12
801.00,101.10
800.00,101.05
799.00,100.98
798.00,100.94
797.00,100.94
796.00,100.93
795.00,100.89
794.00,100.82
793.00,100.76
792.00,100.72
791.00,100.69
790.00,100.65
789.00,100.57
788.00,100.49
787.00,100.44
786.00,100.43
785.00,100.44
784.00,100.44
783.00,100.39
782.00,100.34
781.00,100.28
780.00,100.25
779.00,100.22
778.00,100.19
777.00,100.17
776.00,100.16
775.00,100.14
774.00,100.09
773.00,100.00
772.00,99.90
771.00,99.84
770.00,99.83
769.00,99.82
768.00,99.78
767.00,99.70
766.00,99.64
765.00,99.63
764.00,99.65
763.00,99.66
762.00,99.63
761.00,99.59
760.00,99.57
759.00,99.54
758.00,99.50
757.00,99.44
756.00,99.36
755.00,99.29
754.00,99.23
753.00,99.17
752.00,99.10
751.00,99.02
750.00,98.95
749.00,98.88
748.00,98.83
747.00,98.77
746.00,98.72
745.00,98.65
744.00,98.56
743.00,98.45
742.00,98.32
741.00,98.17
740.00,98.02
739.00,97.85
738.00,97.65
737.00,97.41
736.00,97.12
735.00,96.81
734.00,96.51
733.00,96.25
732.00,96.01
731.00,95.79
730.00,95.60
729.00,95.46
728.00,95.41
727.00,95.45
726.00,95.57
725.00,95.69
724.00,95.78
723.00,95.83
722.00,95.86
721.00,95.88
720.00,95.89
719.00,95.86
718.00,95.80
717.00,95.72
716.00,95.65
715.00,95.58
714.00,95.51
713.00,95.45
712.00,95.41
711.00,95.39
710.00,95.35
709.00,95.29
708.00,95.21
707.00,95.14
706.00,95.09
705.00,95.08
704.00,95.10
703.00,95.12
702.00,95.10
701.00,95.00
700.00,94.83
699.00,94.63
698.00,94.43
697.00,94.24
696.00,94.06
695.00,93.87
694.00,93.70
693.00,93.55
692.00,93.41
691.00,93.28
690.00,93.15
689.00,93.04
688.00,92.97
687.00,92.94
686.00,92.92
685.00,92.90
684.00,92.90
683.00,92.95
682.00,93.00
681.00,93.01
680.00,92.98
679.00,92.97
678.00,93.03
677.00,93.13
676.00,93.22
675.00,93.27
674.00,93.31
673.00,93.40
672.00,93.50
671.00,93.57
670.00,93.61
669.00,93.66
668.00,93.80
667.00,93.96
666.00,94.11
665.00,94.24
664.00,94.35
663.00,94.43
662.00,94.48
661.00,94.51
660.00,94.59
659.00,94.75
658.00,94.97
657.00,95.19
656.00,95.35
655.00,95.44
654.00,95.46
653.00,95.46
652.00,95.45
651.00,95.46
650.00,95.54
649.00,95.71
648.00,95.90
647.00,96.01
646.00,96.01
645.00,95.97
644.00,95.99
643.00,96.08
642.00,96.19
641.00,96.24
640.00,96.17
639.00,96.01
638.00,95.81
637.00,95.67
636.00,95.60
635.00,95.60
634.00,95.63
633.00,95.71
632.00,95.84
631.00,95.97
630.00,96.00
629.00,95.90
628.00,95.77
627.00,95.76
626.00,95.90
625.00,96.08
624.00,96.16
623.00,96.13
622.00,96.13
621.00,96.27
620.00,96.54
619.00,96.79
618.00,96.84
617.00,96.60
616.00,96.21
615.00,95.89
614.00,95.79
613.00,95.84
612.00,95.91
611.00,95.99
610.00,96.13
609.00,96.34
608.00,96.49
607.00,96.50
606.00,96.44
605.00,96.41
604.00,96.42
603.00,96.42
602.00,96.44
601.00,96.58
600.00,96.77
599.00,96.78
598.00,96.47
597.00,95.96
596.00,95.50
595.00,95.29
594.00,95.33
593.00,95.52
592.00,95.66
591.00,95.51
590.00,94.98
589.00,94.29
588.00,93.81
587.00,93.77
586.00,94.07
585.00,94.44
584.00,94.79
583.00,95.06
582.00,95.09
581.00,94.66
580.00,93.89
579.00,93.24
578.00,92.97
577.00,92.87
576.00,92.60
575.00,92.23
574.00,92.11
573.00,92.45
572.00,93.10
571.00,93.75
570.00,94.15
569.00,94.24
568.00,94.13
567.00,93.94
566.00,93.73
565.00,93.63
564.00,93.83
563.00,94.49
562.00,95.49
561.00,96.43
560.00,97.03
559.00,97.19
558.00,96.99
557.00,96.59
556.00,96.07
555.00,95.48
554.00,94.89
553.00,94.39
552.00,93.99
551.00,93.73
550.00,93.72
