Created as New Dataset,90. Du Pont
cm-1,%T
4000.00,100.14
3999.00,100.11
3998.00,100.09
3997.00,100.06
3996.00,100.04
3995.00,100.02
3994.00,100.02
3993.00,100.02
3992.00,100.03
3991.00,100.02
3990.00,100.02
3989.00,100.01
3988.00,100.01
3987.00,100.02
3986.00,100.03
3985.00,100.03
3984.00,100.04
3983.00,100.04
3982.00,100.04
3981.00,100.04
3980.00,100.04
3979.00,100.04
3978.00,100.04
3977.00,100.03
3976.00,100.03
3975.00,100.04
3974.00,100.06
3973.00,100.07
3972.00,100.08
3971.00,100.08
3970.00,100.07
3969.00,100.06
3968.00,100.05
3967.00,100.05
3966.00,100.06
3965.00,100.07
3964.00,100.07
3963.00,100.07
3962.00,100.07
3961.00,100.07
3960.00,100.07
3959.00,100.07
3958.00,100.06
3957.00,100.05
3956.00,100.04
3955.00,100.04
3954.00,100.05
3953.00,100.05
3952.00,100.05
3951.00,100.05
3950.00,100.06
3949.00,100.08
3948.00,100.09
3947.00,100.09
3946.00,100.09
3945.00,100.09
3944.00,100.09
3943.00,100.10
3942.00,100.11
3941.00,100.13
3940.00,100.14
3939.00,100.14
3938.00,100.14
3937.00,100.13
3936.00,100.13
3935.00,100.12
3934.00,100.10
3933.00,100.07
3932.00,100.07
3931.00,100.08
3930.00,100.11
3929.00,100.13
3928.00,100.14
3927.00,100.12
3926.00,100.10
3925.00,100.08
3924.00,100.07
3923.00,100.08
3922.00,100.10
3921.00,100.13
3920.00,100.14
3919.00,100.13
3918.00,100.12
3917.00,100.09
3916.00,100.08
3915.00,100.08
3914.00,100.08
3913.00,100.07
3912.00,100.06
3911.00,100.05
3910.00,100.06
3909.00,100.08
3908.00,100.09
3907.00,100.10
3906.00,100.09
3905.00,100.08
3904.00,100.08
3903.00,100.11
3902.00,100.13
3901.00,100.14
3900.00,100.13
3899.00,100.12
3898.00,100.14
3897.00,100.16
3896.00,100.17
3895.00,100.17
3894.00,100.15
3893.00,100.13
3892.00,100.10
3891.00,100.07
3890.00,100.07
3889.00,100.08
3888.00,100.10
3887.00,100.11
3886.00,100.11
3885.00,100.09
3884.00,100.09
3883.00,100.09
3882.00,100.09
3881.00,100.08
3880.00,100.07
3879.00,100.06
3878.00,100.08
3877.00,100.09
3876.00,100.10
3875.00,100.11
3874.00,100.12
3873.00,100.16
3872.00,100.18
3871.00,100.18
3870.00,100.15
3869.00,100.12
3868.00,100.11
3867.00,100.13
3866.00,100.13
3865.00,100.10
3864.00,100.07
3863.00,100.05
3862.00,100.05
3861.00,100.07
3860.00,100.09
3859.00,100.12
3858.00,100.15
3857.00,100.18
3856.00,100.22
3855.00,100.24
3854.00,100.24
3853.00,100.22
3852.00,100.22
3851.00,100.22
3850.00,100.20
3849.00,100.15
3848.00,100.12
3847.00,100.11
3846.00,100.13
3845.00,100.15
3844.00,100.16
3843.00,100.16
3842.00,100.17
3841.00,100.18
3840.00,100.19
3839.00,100.17
3838.00,100.15
3837.00,100.13
3836.00,100.12
3835.00,100.12
3834.00,100.10
3833.00,100.07
3832.00,100.05
3831.00,100.04
3830.00,100.04
3829.00,100.05
3828.00,100.06
3827.00,100.08
3826.00,100.09
3825.00,100.11
3824.00,100.13
3823.00,100.15
3822.00,100.14
3821.00,100.11
3820.00,100.11
3819.00,100.12
3818.00,100.13
3817.00,100.12
3816.00,100.09
3815.00,100.08
3814.00,100.08
3813.00,100.08
3812.00,100.07
3811.00,100.06
3810.00,100.07
3809.00,100.10
3808.00,100.13
3807.00,100.15
3806.00,100.15
3805.00,100.15
3804.00,100.14
3803.00,100.11
3802.00,100.06
3801.00,100.02
3800.00,100.00
3799.00,100.00
3798.00,100.00
3797.00,99.99
3796.00,99.99
3795.00,100.00
3794.00,100.02
3793.00,100.02
3792.00,100.01
3791.00,100.01
3790.00,100.02
3789.00,100.04
3788.00,100.06
3787.00,100.07
3786.00,100.07
3785.00,100.06
3784.00,100.05
3783.00,100.04
3782.00,100.03
3781.00,100.02
3780.00,100.01
3779.00,100.00
3778.00,99.98
3777.00,99.98
3776.00,99.97
3775.00,99.97
3774.00,99.98
3773.00,100.00
3772.00,100.02
3771.00,100.04
3770.00,100.04
3769.00,100.04
3768.00,100.03
3767.00,100.00
3766.00,99.97
3765.00,99.95
3764.00,99.95
3763.00,99.98
3762.00,100.01
3761.00,100.03
3760.00,100.03
3759.00,100.01
3758.00,99.99
3757.00,99.99
3756.00,100.00
3755.00,100.02
3754.00,100.06
3753.00,100.10
3752.00,100.13
3751.00,100.14
3750.00,100.15
3749.00,100.16
3748.00,100.17
3747.00,100.18
3746.00,100.17
3745.00,100.13
3744.00,100.10
3743.00,100.10
3742.00,100.11
3741.00,100.10
3740.00,100.08
3739.00,100.06
3738.00,100.06
3737.00,100.07
3736.00,100.07
3735.00,100.06
3734.00,100.05
3733.00,100.04
3732.00,100.01
3731.00,99.99
3730.00,99.99
3729.00,100.02
3728.00,100.06
3727.00,100.07
3726.00,100.06
3725.00,100.04
3724.00,100.04
3723.00,100.06
3722.00,100.07
3721.00,100.07
3720.00,100.05
3719.00,100.02
3718.00,99.99
3717.00,99.98
3716.00,99.98
3715.00,100.00
3714.00,100.02
3713.00,100.04
3712.00,100.06
3711.00,100.07
3710.00,100.06
3709.00,100.02
3708.00,99.98
3707.00,99.95
3706.00,99.93
3705.00,99.94
3704.00,99.94
3703.00,99.93
3702.00,99.93
3701.00,99.93
3700.00,99.96
3699.00,99.98
3698.00,99.99
3697.00,99.99
3696.00,99.97
3695.00,99.96
3694.00,99.95
3693.00,99.95
3692.00,99.95
3691.00,99.94
3690.00,99.91
3689.00,99.87
3688.00,99.86
3687.00,99.87
3686.00,99.90
3685.00,99.91
3684.00,99.91
3683.00,99.90
3682.00,99.89
3681.00,99.89
3680.00,99.88
3679.00,99.87
3678.00,99.86
3677.00,99.87
3676.00,99.88
3675.00,99.91
3674.00,99.95
3673.00,99.98
3672.00,99.99
3671.00,99.96
3670.00,99.92
3669.00,99.90
3668.00,99.90
3667.00,99.90
3666.00,99.88
3665.00,99.86
3664.00,99.84
3663.00,99.84
3662.00,99.85
3661.00,99.85
3660.00,99.87
3659.00,99.90
3658.00,99.92
3657.00,99.92
3656.00,99.90
3655.00,99.88
3654.00,99.87
3653.00,99.87
3652.00,99.87
3651.00,99.89
3650.00,99.91
3649.00,99.90
3648.00,99.89
3647.00,99.87
3646.00,99.87
3645.00,99.86
3644.00,99.84
3643.00,99.82
3642.00,99.80
3641.00,99.79
3640.00,99.78
3639.00,99.79
3638.00,99.79
3637.00,99.80
3636.00,99.79
3635.00,99.79
3634.00,99.79
3633.00,99.82
3632.00,99.86
3631.00,99.89
3630.00,99.88
3629.00,99.86
3628.00,99.84
3627.00,99.86
3626.00,99.87
3625.00,99.85
3624.00,99.80
3623.00,99.77
3622.00,99.76
3621.00,99.76
3620.00,99.78
3619.00,99.79
3618.00,99.81
3617.00,99.84
3616.00,99.86
3615.00,99.86
3614.00,99.84
3613.00,99.80
3612.00,99.77
3611.00,99.74
3610.00,99.74
3609.00,99.75
3608.00,99.76
3607.00,99.75
3606.00,99.74
3605.00,99.73
3604.00,99.71
3603.00,99.71
3602.00,99.71
3601.00,99.72
3600.00,99.72
3599.00,99.70
3598.00,99.67
3597.00,99.64
3596.00,99.64
3595.00,99.65
3594.00,99.68
3593.00,99.70
3592.00,99.71
3591.00,99.72
3590.00,99.72
3589.00,99.72
3588.00,99.72
3587.00,99.72
3586.00,99.72
3585.00,99.72
3584.00,99.71
3583.00,99.67
3582.00,99.62
3581.00,99.59
3580.00,99.57
3579.00,99.58
3578.00,99.58
3577.00,99.57
3576.00,99.56
3575.00,99.54
3574.00,99.52
3573.00,99.51
3572.00,99.50
3571.00,99.52
3570.00,99.57
3569.00,99.63
3568.00,99.67
3567.00,99.69
3566.00,99.68
3565.00,99.67
3564.00,99.63
3563.00,99.56
3562.00,99.48
3561.00,99.42
3560.00,99.40
3559.00,99.39
3558.00,99.39
3557.00,99.38
3556.00,99.37
3555.00,99.37
3554.00,99.39
3553.00,99.42
3552.00,99.44
3551.00,99.44
3550.00,99.42
3549.00,99.40
3548.00,99.38
3547.00,99.37
3546.00,99.37
3545.00,99.37
3544.00,99.38
3543.00,99.39
3542.00,99.39
3541.00,99.37
3540.00,99.34
3539.00,99.31
3538.00,99.28
3537.00,99.26
3536.00,99.25
3535.00,99.25
3534.00,99.26
3533.00,99.26
3532.00,99.27
3531.00,99.27
3530.00,99.27
3529.00,99.27
3528.00,99.25
3527.00,99.24
3526.00,99.23
3525.00,99.22
3524.00,99.21
3523.00,99.19
3522.00,99.18
3521.00,99.16
3520.00,99.15
3519.00,99.15
3518.00,99.15
3517.00,99.14
3516.00,99.13
3515.00,99.10
3514.00,99.08
3513.00,99.07
3512.00,99.09
3511.00,99.11
3510.00,99.12
3509.00,99.10
3508.00,99.08
3507.00,99.07
3506.00,99.07
3505.00,99.09
3504.00,99.10
3503.00,99.11
3502.00,99.10
3501.00,99.09
3500.00,99.07
3499.00,99.05
3498.00,99.04
3497.00,99.02
3496.00,99.01
3495.00,98.99
3494.00,98.99
3493.00,98.99
3492.00,99.01
3491.00,99.03
3490.00,99.05
3489.00,99.05
3488.00,99.04
3487.00,99.02
3486.00,99.00
3485.00,98.99
3484.00,98.99
3483.00,99.00
3482.00,99.00
3481.00,99.00
3480.00,98.99
3479.00,98.99
3478.00,98.99
3477.00,98.99
3476.00,98.99
3475.00,98.99
3474.00,98.99
3473.00,98.99
3472.00,98.98
3471.00,98.96
3470.00,98.93
3469.00,98.89
3468.00,98.87
3467.00,98.86
3466.00,98.88
3465.00,98.90
3464.00,98.91
3463.00,98.92
3462.00,98.92
3461.00,98.92
3460.00,98.93
3459.00,98.93
3458.00,98.92
3457.00,98.89
3456.00,98.87
3455.00,98.85
3454.00,98.85
3453.00,98.83
3452.00,98.82
3451.00,98.82
3450.00,98.83
3449.00,98.85
3448.00,98.87
3447.00,98.88
3446.00,98.88
3445.00,98.88
3444.00,98.88
3443.00,98.87
3442.00,98.86
3441.00,98.85
3440.00,98.85
3439.00,98.86
3438.00,98.87
3437.00,98.86
3436.00,98.84
3435.00,98.83
3434.00,98.82
3433.00,98.82
3432.00,98.81
3431.00,98.79
3430.00,98.79
3429.00,98.80
3428.00,98.81
3427.00,98.83
3426.00,98.84
3425.00,98.85
3424.00,98.86
3423.00,98.86
3422.00,98.86
3421.00,98.84
3420.00,98.81
3419.00,98.78
3418.00,98.76
3417.00,98.76
3416.00,98.77
3415.00,98.79
3414.00,98.81
3413.00,98.82
3412.00,98.83
3411.00,98.83
3410.00,98.83
3409.00,98.82
3408.00,98.81
3407.00,98.79
3406.00,98.77
3405.00,98.76
3404.00,98.78
3403.00,98.79
3402.00,98.79
3401.00,98.76
3400.00,98.73
3399.00,98.71
3398.00,98.70
3397.00,98.70
3396.00,98.70
3395.00,98.71
3394.00,98.71
3393.00,98.71
3392.00,98.69
3391.00,98.67
3390.00,98.65
3389.00,98.63
3388.00,98.61
3387.00,98.59
3386.00,98.57
3385.00,98.56
3384.00,98.56
3383.00,98.56
3382.00,98.56
3381.00,98.54
3380.00,98.52
3379.00,98.51
3378.00,98.50
3377.00,98.49
3376.00,98.48
3375.00,98.48
3374.00,98.47
3373.00,98.45
3372.00,98.43
3371.00,98.41
3370.00,98.39
3369.00,98.38
3368.00,98.37
3367.00,98.36
3366.00,98.34
3365.00,98.31
3364.00,98.28
3363.00,98.26
3362.00,98.24
3361.00,98.23
3360.00,98.21
3359.00,98.19
3358.00,98.17
3357.00,98.15
3356.00,98.12
3355.00,98.08
3354.00,98.03
3353.00,97.99
3352.00,97.95
3351.00,97.92
3350.00,97.87
3349.00,97.81
3348.00,97.76
3347.00,97.73
3346.00,97.70
3345.00,97.66
3344.00,97.62
3343.00,97.56
3342.00,97.51
3341.00,97.46
3340.00,97.40
3339.00,97.34
3338.00,97.28
3337.00,97.20
3336.00,97.11
3335.00,97.02
3334.00,96.92
3333.00,96.82
3332.00,96.74
3331.00,96.66
3330.00,96.57
3329.00,96.47
3328.00,96.37
3327.00,96.26
3326.00,96.15
3325.00,96.02
3324.00,95.87
3323.00,95.70
3322.00,95.53
3321.00,95.37
3320.00,95.21
3319.00,95.04
3318.00,94.85
3317.00,94.63
3316.00,94.39
3315.00,94.13
3314.00,93.87
3313.00,93.62
3312.00,93.37
3311.00,93.12
3310.00,92.86
3309.00,92.60
3308.00,92.35
3307.00,92.10
3306.00,91.86
3305.00,91.64
3304.00,91.44
3303.00,91.28
3302.00,91.14
3301.00,91.04
3300.00,90.96
3299.00,90.93
3298.00,90.92
3297.00,90.93
3296.00,90.95
3295.00,90.98
3294.00,91.04
3293.00,91.14
3292.00,91.27
3291.00,91.42
3290.00,91.58
3289.00,91.73
3288.00,91.88
3287.00,92.02
3286.00,92.16
3285.00,92.30
3284.00,92.43
3283.00,92.58
3282.00,92.72
3281.00,92.86
3280.00,92.97
3279.00,93.07
3278.00,93.16
3277.00,93.25
3276.00,93.37
3275.00,93.50
3274.00,93.64
3273.00,93.77
3272.00,93.88
3271.00,93.96
3270.00,94.02
3269.00,94.08
3268.00,94.14
3267.00,94.23
3266.00,94.31
3265.00,94.40
3264.00,94.49
3263.00,94.57
3262.00,94.65
3261.00,94.73
3260.00,94.81
3259.00,94.90
3258.00,94.98
3257.00,95.06
3256.00,95.13
3255.00,95.22
3254.00,95.30
3253.00,95.38
3252.00,95.46
3251.00,95.54
3250.00,95.62
3249.00,95.69
3248.00,95.75
3247.00,95.79
3246.00,95.82
3245.00,95.87
3244.00,95.92
3243.00,95.98
3242.00,96.05
3241.00,96.12
3240.00,96.18
3239.00,96.24
3238.00,96.29
3237.00,96.34
3236.00,96.40
3235.00,96.47
3234.00,96.53
3233.00,96.59
3232.00,96.66
3231.00,96.71
3230.00,96.77
3229.00,96.82
3228.00,96.85
3227.00,96.89
3226.00,96.92
3225.00,96.95
3224.00,96.97
3223.00,96.98
3222.00,96.99
3221.00,97.02
3220.00,97.05
3219.00,97.08
3218.00,97.11
3217.00,97.13
3216.00,97.15
3215.00,97.18
3214.00,97.20
3213.00,97.22
3212.00,97.25
3211.00,97.27
3210.00,97.29
3209.00,97.31
3208.00,97.32
3207.00,97.33
3206.00,97.34
3205.00,97.36
3204.00,97.38
3203.00,97.40
3202.00,97.42
3201.00,97.43
3200.00,97.44
3199.00,97.45
3198.00,97.45
3197.00,97.45
3196.00,97.46
3195.00,97.47
3194.00,97.50
3193.00,97.54
3192.00,97.56
3191.00,97.57
3190.00,97.58
3189.00,97.59
3188.00,97.62
3187.00,97.65
3186.00,97.69
3185.00,97.72
3184.00,97.73
3183.00,97.75
3182.00,97.77
3181.00,97.79
3180.00,97.81
3179.00,97.83
3178.00,97.84
3177.00,97.86
3176.00,97.90
3175.00,97.93
3174.00,97.96
3173.00,97.98
3172.00,97.99
3171.00,98.01
3170.00,98.03
3169.00,98.04
3168.00,98.06
3167.00,98.08
3166.00,98.10
3165.00,98.12
3164.00,98.16
3163.00,98.19
3162.00,98.23
3161.00,98.27
3160.00,98.30
3159.00,98.32
3158.00,98.33
3157.00,98.34
3156.00,98.35
3155.00,98.37
3154.00,98.37
3153.00,98.37
3152.00,98.36
3151.00,98.36
3150.00,98.36
3149.00,98.37
3148.00,98.37
3147.00,98.38
3146.00,98.38
3145.00,98.38
3144.00,98.40
3143.00,98.42
3142.00,98.44
3141.00,98.45
3140.00,98.47
3139.00,98.50
3138.00,98.52
3137.00,98.52
3136.00,98.50
3135.00,98.47
3134.00,98.43
3133.00,98.41
3132.00,98.41
3131.00,98.43
3130.00,98.45
3129.00,98.45
3128.00,98.43
3127.00,98.41
3126.00,98.40
3125.00,98.41
3124.00,98.42
3123.00,98.44
3122.00,98.46
3121.00,98.46
3120.00,98.46
3119.00,98.46
3118.00,98.45
3117.00,98.45
3116.00,98.43
3115.00,98.40
3114.00,98.37
3113.00,98.35
3112.00,98.33
3111.00,98.31
3110.00,98.28
3109.00,98.25
3108.00,98.22
3107.00,98.19
3106.00,98.17
3105.00,98.15
3104.00,98.12
3103.00,98.10
3102.00,98.07
3101.00,98.05
3100.00,98.03
3099.00,98.02
3098.00,98.00
3097.00,97.97
3096.00,97.95
3095.00,97.92
3094.00,97.88
3093.00,97.85
3092.00,97.82
3091.00,97.80
3090.00,97.79
3089.00,97.79
3088.00,97.78
3087.00,97.76
3086.00,97.73
3085.00,97.71
3084.00,97.69
3083.00,97.69
3082.00,97.69
3081.00,97.69
3080.00,97.69
3079.00,97.68
3078.00,97.68
3077.00,97.68
3076.00,97.69
3075.00,97.70
3074.00,97.71
3073.00,97.72
3072.00,97.72
3071.00,97.73
3070.00,97.73
3069.00,97.73
3068.00,97.73
3067.00,97.74
3066.00,97.75
3065.00,97.76
3064.00,97.76
3063.00,97.75
3062.00,97.75
3061.00,97.75
3060.00,97.76
3059.00,97.78
3058.00,97.80
3057.00,97.82
3056.00,97.85
3055.00,97.87
3054.00,97.89
3053.00,97.93
3052.00,97.98
3051.00,98.04
3050.00,98.10
3049.00,98.15
3048.00,98.19
3047.00,98.22
3046.00,98.24
3045.00,98.27
3044.00,98.30
3043.00,98.34
3042.00,98.38
3041.00,98.42
3040.00,98.46
3039.00,98.49
3038.00,98.51
3037.00,98.54
3036.00,98.56
3035.00,98.58
3034.00,98.60
3033.00,98.62
3032.00,98.65
3031.00,98.67
3030.00,98.69
3029.00,98.71
3028.00,98.72
3027.00,98.73
3026.00,98.74
3025.00,98.76
3024.00,98.78
3023.00,98.79
3022.00,98.80
3021.00,98.80
3020.00,98.81
3019.00,98.83
3018.00,98.84
3017.00,98.85
3016.00,98.85
3015.00,98.85
3014.00,98.84
3013.00,98.83
3012.00,98.83
3011.00,98.84
3010.00,98.85
3009.00,98.86
3008.00,98.88
3007.00,98.89
3006.00,98.90
3005.00,98.91
3004.00,98.91
3003.00,98.90
3002.00,98.90
3001.00,98.89
3000.00,98.89
2999.00,98.89
2998.00,98.90
2997.00,98.90
2996.00,98.90
2995.00,98.88
2994.00,98.87
2993.00,98.86
2992.00,98.85
2991.00,98.85
2990.00,98.85
2989.00,98.83
2988.00,98.82
2987.00,98.80
2986.00,98.79
2985.00,98.78
2984.00,98.77
2983.00,98.76
2982.00,98.73
2981.00,98.70
2980.00,98.64
2979.00,98.56
2978.00,98.49
2977.00,98.43
2976.00,98.39
2975.00,98.36
2974.00,98.32
2973.00,98.26
2972.00,98.18
2971.00,98.09
2970.00,98.00
2969.00,97.92
2968.00,97.82
2967.00,97.72
2966.00,97.62
2965.00,97.52
2964.00,97.43
2963.00,97.35
2962.00,97.28
2961.00,97.20
2960.00,97.11
2959.00,97.00
2958.00,96.87
2957.00,96.73
2956.00,96.59
2955.00,96.44
2954.00,96.28
2953.00,96.09
2952.00,95.88
2951.00,95.65
2950.00,95.39
2949.00,95.11
2948.00,94.82
2947.00,94.56
2946.00,94.31
2945.00,94.09
2944.00,93.89
2943.00,93.71
2942.00,93.53
2941.00,93.36
2940.00,93.20
2939.00,93.02
2938.00,92.85
2937.00,92.68
2936.00,92.52
2935.00,92.39
2934.00,92.30
2933.00,92.25
2932.00,92.25
2931.00,92.28
2930.00,92.35
2929.00,92.44
2928.00,92.55
2927.00,92.67
2926.00,92.79
2925.00,92.90
2924.00,93.00
2923.00,93.11
2922.00,93.22
2921.00,93.33
2920.00,93.46
2919.00,93.58
2918.00,93.71
2917.00,93.85
2916.00,93.99
2915.00,94.14
2914.00,94.27
2913.00,94.40
2912.00,94.50
2911.00,94.59
2910.00,94.67
2909.00,94.75
2908.00,94.83
2907.00,94.91
2906.00,95.01
2905.00,95.11
2904.00,95.23
2903.00,95.36
2902.00,95.48
2901.00,95.61
2900.00,95.73
2899.00,95.84
2898.00,95.95
2897.00,96.07
2896.00,96.17
2895.00,96.26
2894.00,96.32
2893.00,96.37
2892.00,96.42
2891.00,96.46
2890.00,96.49
2889.00,96.51
2888.00,96.51
2887.00,96.50
2886.00,96.46
2885.00,96.40
2884.00,96.32
2883.00,96.23
2882.00,96.12
2881.00,96.00
2880.00,95.87
2879.00,95.72
2878.00,95.58
2877.00,95.45
2876.00,95.34
2875.00,95.25
2874.00,95.18
2873.00,95.13
2872.00,95.10
2871.00,95.08
2870.00,95.04
2869.00,94.99
2868.00,94.92
2867.00,94.83
2866.00,94.75
2865.00,94.66
2864.00,94.58
2863.00,94.50
2862.00,94.42
2861.00,94.34
2860.00,94.28
2859.00,94.25
2858.00,94.25
2857.00,94.29
2856.00,94.36
2855.00,94.46
2854.00,94.60
2853.00,94.78
2852.00,94.97
2851.00,95.18
2850.00,95.39
2849.00,95.61
2848.00,95.84
2847.00,96.08
2846.00,96.30
2845.00,96.51
2844.00,96.69
2843.00,96.85
2842.00,96.99
2841.00,97.11
2840.00,97.22
2839.00,97.32
2838.00,97.41
2837.00,97.49
2836.00,97.56
2835.00,97.62
2834.00,97.66
2833.00,97.69
2832.00,97.70
2831.00,97.72
2830.00,97.74
2829.00,97.78
2828.00,97.81
2827.00,97.84
2826.00,97.86
2825.00,97.88
2824.00,97.89
2823.00,97.91
2822.00,97.93
2821.00,97.97
2820.00,98.01
2819.00,98.05
2818.00,98.07
2817.00,98.08
2816.00,98.08
2815.00,98.09
2814.00,98.10
2813.00,98.13
2812.00,98.16
2811.00,98.18
2810.00,98.19
2809.00,98.21
2808.00,98.22
2807.00,98.23
2806.00,98.23
2805.00,98.24
2804.00,98.24
2803.00,98.25
2802.00,98.27
2801.00,98.28
2800.00,98.29
2799.00,98.30
2798.00,98.31
2797.00,98.33
2796.00,98.35
2795.00,98.37
2794.00,98.39
2793.00,98.40
2792.00,98.41
2791.00,98.43
2790.00,98.44
2789.00,98.44
2788.00,98.45
2787.00,98.45
2786.00,98.46
2785.00,98.48
2784.00,98.48
2783.00,98.49
2782.00,98.49
2781.00,98.49
2780.00,98.49
2779.00,98.50
2778.00,98.50
2777.00,98.50
2776.00,98.50
2775.00,98.49
2774.00,98.48
2773.00,98.48
2772.00,98.48
2771.00,98.50
2770.00,98.51
2769.00,98.52
2768.00,98.53
2767.00,98.54
2766.00,98.56
2765.00,98.57
2764.00,98.57
2763.00,98.58
2762.00,98.58
2761.00,98.58
2760.00,98.59
2759.00,98.59
2758.00,98.59
2757.00,98.58
2756.00,98.57
2755.00,98.57
2754.00,98.57
2753.00,98.57
2752.00,98.58
2751.00,98.60
2750.00,98.61
2749.00,98.62
2748.00,98.62
2747.00,98.61
2746.00,98.60
2745.00,98.61
2744.00,98.62
2743.00,98.62
2742.00,98.62
2741.00,98.63
2740.00,98.64
2739.00,98.65
2738.00,98.65
2737.00,98.65
2736.00,98.64
2735.00,98.63
2734.00,98.63
2733.00,98.63
2732.00,98.63
2731.00,98.64
2730.00,98.65
2729.00,98.67
2728.00,98.69
2727.00,98.70
2726.00,98.71
2725.00,98.72
2724.00,98.73
2723.00,98.74
2722.00,98.74
2721.00,98.75
2720.00,98.76
2719.00,98.77
2718.00,98.78
2717.00,98.77
2716.00,98.77
2715.00,98.77
2714.00,98.77
2713.00,98.78
2712.00,98.78
2711.00,98.79
2710.00,98.80
2709.00,98.81
2708.00,98.82
2707.00,98.81
2706.00,98.80
2705.00,98.79
2704.00,98.78
2703.00,98.79
2702.00,98.79
2701.00,98.80
2700.00,98.80
2699.00,98.80
2698.00,98.80
2697.00,98.80
2696.00,98.80
2695.00,98.79
2694.00,98.79
2693.00,98.78
2692.00,98.79
2691.00,98.79
2690.00,98.80
2689.00,98.81
2688.00,98.83
2687.00,98.83
2686.00,98.83
2685.00,98.82
2684.00,98.82
2683.00,98.83
2682.00,98.84
2681.00,98.84
2680.00,98.83
2679.00,98.82
2678.00,98.81
2677.00,98.81
2676.00,98.82
2675.00,98.83
2674.00,98.84
2673.00,98.84
2672.00,98.84
2671.00,98.83
2670.00,98.83
2669.00,98.83
2668.00,98.82
2667.00,98.82
2666.00,98.81
2665.00,98.81
2664.00,98.82
2663.00,98.83
2662.00,98.83
2661.00,98.83
2660.00,98.83
2659.00,98.82
2658.00,98.82
2657.00,98.82
2656.00,98.83
2655.00,98.84
2654.00,98.84
2653.00,98.83
2652.00,98.81
2651.00,98.80
2650.00,98.80
2649.00,98.80
2648.00,98.81
2647.00,98.83
2646.00,98.84
2645.00,98.84
2644.00,98.83
2643.00,98.83
2642.00,98.83
2641.00,98.82
2640.00,98.80
2639.00,98.78
2638.00,98.78
2637.00,98.79
2636.00,98.80
2635.00,98.80
2634.00,98.79
2633.00,98.77
2632.00,98.75
2631.00,98.75
2630.00,98.75
2629.00,98.77
2628.00,98.79
2627.00,98.80
2626.00,98.80
2625.00,98.80
2624.00,98.80
2623.00,98.81
2622.00,98.82
2621.00,98.83
2620.00,98.82
2619.00,98.81
2618.00,98.79
2617.00,98.80
2616.00,98.81
2615.00,98.82
2614.00,98.81
2613.00,98.78
2612.00,98.75
2611.00,98.73
2610.00,98.72
2609.00,98.73
2608.00,98.72
2607.00,98.71
2606.00,98.69
2605.00,98.68
2604.00,98.69
2603.00,98.70
2602.00,98.71
2601.00,98.73
2600.00,98.74
2599.00,98.74
2598.00,98.73
2597.00,98.72
2596.00,98.70
2595.00,98.69
2594.00,98.69
2593.00,98.70
2592.00,98.71
2591.00,98.71
2590.00,98.70
2589.00,98.68
2588.00,98.68
2587.00,98.69
2586.00,98.69
2585.00,98.68
2584.00,98.66
2583.00,98.65
2582.00,98.67
2581.00,98.70
2580.00,98.72
2579.00,98.74
2578.00,98.74
2577.00,98.72
2576.00,98.71
2575.00,98.70
2574.00,98.69
2573.00,98.70
2572.00,98.70
2571.00,98.70
2570.00,98.69
2569.00,98.68
2568.00,98.69
2567.00,98.70
2566.00,98.71
2565.00,98.71
2564.00,98.71
2563.00,98.71
2562.00,98.70
2561.00,98.69
2560.00,98.69
2559.00,98.71
2558.00,98.72
2557.00,98.72
2556.00,98.71
2555.00,98.70
2554.00,98.71
2553.00,98.72
2552.00,98.75
2551.00,98.76
2550.00,98.75
2549.00,98.72
2548.00,98.70
2547.00,98.70
2546.00,98.71
2545.00,98.72
2544.00,98.72
2543.00,98.72
2542.00,98.72
2541.00,98.72
2540.00,98.74
2539.00,98.75
2538.00,98.75
2537.00,98.74
2536.00,98.72
2535.00,98.72
2534.00,98.72
2533.00,98.73
2532.00,98.73
2531.00,98.72
2530.00,98.71
2529.00,98.71
2528.00,98.72
2527.00,98.72
2526.00,98.72
2525.00,98.72
2524.00,98.73
2523.00,98.73
2522.00,98.73
2521.00,98.73
2520.00,98.73
2519.00,98.74
2518.00,98.74
2517.00,98.73
2516.00,98.72
2515.00,98.71
2514.00,98.71
2513.00,98.72
2512.00,98.73
2511.00,98.75
2510.00,98.77
2509.00,98.78
2508.00,98.78
2507.00,98.78
2506.00,98.76
2505.00,98.74
2504.00,98.72
2503.00,98.72
2502.00,98.72
2501.00,98.72
2500.00,98.72
2499.00,98.72
2498.00,98.72
2497.00,98.71
2496.00,98.69
2495.00,98.68
2494.00,98.69
2493.00,98.70
2492.00,98.72
2491.00,98.71
2490.00,98.70
2489.00,98.68
2488.00,98.67
2487.00,98.69
2486.00,98.72
2485.00,98.75
2484.00,98.75
2483.00,98.74
2482.00,98.72
2481.00,98.70
2480.00,98.70
2479.00,98.70
2478.00,98.71
2477.00,98.72
2476.00,98.74
2475.00,98.78
2474.00,98.81
2473.00,98.82
2472.00,98.79
2471.00,98.74
2470.00,98.69
2469.00,98.66
2468.00,98.67
2467.00,98.69
2466.00,98.71
2465.00,98.73
2464.00,98.75
2463.00,98.76
2462.00,98.77
2461.00,98.78
2460.00,98.79
2459.00,98.78
2458.00,98.76
2457.00,98.72
2456.00,98.70
2455.00,98.70
2454.00,98.71
2453.00,98.73
2452.00,98.75
2451.00,98.76
2450.00,98.76
2449.00,98.75
2448.00,98.74
2447.00,98.73
2446.00,98.73
2445.00,98.72
2444.00,98.72
2443.00,98.72
2442.00,98.71
2441.00,98.72
2440.00,98.73
2439.00,98.76
2438.00,98.79
2437.00,98.81
2436.00,98.81
2435.00,98.80
2434.00,98.77
2433.00,98.75
2432.00,98.74
2431.00,98.74
2430.00,98.74
2429.00,98.75
2428.00,98.76
2427.00,98.77
2426.00,98.77
2425.00,98.76
2424.00,98.76
2423.00,98.77
2422.00,98.78
2421.00,98.78
2420.00,98.76
2419.00,98.74
2418.00,98.73
2417.00,98.74
2416.00,98.75
2415.00,98.76
2414.00,98.76
2413.00,98.76
2412.00,98.76
2411.00,98.77
2410.00,98.77
2409.00,98.77
2408.00,98.76
2407.00,98.75
2406.00,98.75
2405.00,98.74
2404.00,98.75
2403.00,98.75
2402.00,98.76
2401.00,98.76
2400.00,98.76
2399.00,98.76
2398.00,98.76
2397.00,98.77
2396.00,98.78
2395.00,98.79
2394.00,98.79
2393.00,98.80
2392.00,98.80
2391.00,98.81
2390.00,98.80
2389.00,98.79
2388.00,98.79
2387.00,98.81
2386.00,98.85
2385.00,98.87
2384.00,98.87
2383.00,98.86
2382.00,98.85
2381.00,98.85
2380.00,98.86
2379.00,98.88
2378.00,98.92
2377.00,98.95
2376.00,98.98
2375.00,98.99
2374.00,98.99
2373.00,98.97
2372.00,98.95
2371.00,98.92
2370.00,98.89
2369.00,98.87
2368.00,98.87
2367.00,98.88
2366.00,98.90
2365.00,98.91
2364.00,98.92
2363.00,98.92
2362.00,98.89
2361.00,98.86
2360.00,98.84
2359.00,98.83
2358.00,98.84
2357.00,98.85
2356.00,98.86
2355.00,98.86
2354.00,98.86
2353.00,98.85
2352.00,98.84
2351.00,98.83
2350.00,98.83
2349.00,98.82
2348.00,98.81
2347.00,98.82
2346.00,98.82
2345.00,98.81
2344.00,98.78
2343.00,98.77
2342.00,98.78
2341.00,98.80
2340.00,98.82
2339.00,98.83
2338.00,98.83
2337.00,98.83
2336.00,98.82
2335.00,98.80
2334.00,98.76
2333.00,98.73
2332.00,98.73
2331.00,98.74
2330.00,98.73
2329.00,98.71
2328.00,98.69
2327.00,98.70
2326.00,98.72
2325.00,98.73
2324.00,98.71
2323.00,98.68
2322.00,98.66
2321.00,98.67
2320.00,98.68
2319.00,98.69
2318.00,98.70
2317.00,98.70
2316.00,98.70
2315.00,98.68
2314.00,98.66
2313.00,98.66
2312.00,98.68
2311.00,98.72
2310.00,98.75
2309.00,98.76
2308.00,98.77
2307.00,98.77
2306.00,98.77
2305.00,98.78
2304.00,98.79
2303.00,98.79
2302.00,98.78
2301.00,98.76
2300.00,98.73
2299.00,98.70
2298.00,98.68
2297.00,98.67
2296.00,98.67
2295.00,98.67
2294.00,98.67
2293.00,98.65
2292.00,98.63
2291.00,98.61
2290.00,98.60
2289.00,98.61
2288.00,98.63
2287.00,98.64
2286.00,98.63
2285.00,98.60
2284.00,98.57
2283.00,98.54
2282.00,98.51
2281.00,98.51
2280.00,98.52
2279.00,98.56
2278.00,98.60
2277.00,98.61
2276.00,98.60
2275.00,98.58
2274.00,98.57
2273.00,98.57
2272.00,98.55
2271.00,98.51
2270.00,98.47
2269.00,98.44
2268.00,98.43
2267.00,98.44
2266.00,98.45
2265.00,98.47
2264.00,98.49
2263.00,98.52
2262.00,98.54
2261.00,98.55
2260.00,98.55
2259.00,98.54
2258.00,98.51
2257.00,98.47
2256.00,98.43
2255.00,98.39
2254.00,98.39
2253.00,98.41
2252.00,98.44
2251.00,98.46
2250.00,98.48
2249.00,98.48
2248.00,98.47
2247.00,98.45
2246.00,98.43
2245.00,98.42
2244.00,98.42
2243.00,98.44
2242.00,98.44
2241.00,98.44
2240.00,98.43
2239.00,98.43
2238.00,98.42
2237.00,98.41
2236.00,98.40
2235.00,98.38
2234.00,98.36
2233.00,98.34
2232.00,98.35
2231.00,98.40
2230.00,98.46
2229.00,98.51
2228.00,98.52
2227.00,98.52
2226.00,98.52
2225.00,98.52
2224.00,98.50
2223.00,98.46
2222.00,98.41
2221.00,98.37
2220.00,98.36
2219.00,98.38
2218.00,98.39
2217.00,98.38
2216.00,98.37
2215.00,98.35
2214.00,98.33
2213.00,98.30
2212.00,98.26
2211.00,98.26
2210.00,98.29
2209.00,98.35
2208.00,98.40
2207.00,98.42
2206.00,98.39
2205.00,98.32
2204.00,98.23
2203.00,98.17
2202.00,98.14
2201.00,98.15
2200.00,98.20
2199.00,98.27
2198.00,98.32
2197.00,98.35
2196.00,98.35
2195.00,98.33
2194.00,98.30
2193.00,98.30
2192.00,98.32
2191.00,98.35
2190.00,98.34
2189.00,98.30
2188.00,98.24
2187.00,98.19
2186.00,98.15
2185.00,98.13
2184.00,98.13
2183.00,98.16
2182.00,98.20
2181.00,98.25
2180.00,98.28
2179.00,98.29
2178.00,98.24
2177.00,98.18
2176.00,98.12
2175.00,98.12
2174.00,98.17
2173.00,98.21
2172.00,98.22
2171.00,98.19
2170.00,98.15
2169.00,98.11
2168.00,98.09
2167.00,98.09
2166.00,98.08
2165.00,98.09
2164.00,98.11
2163.00,98.11
2162.00,98.06
2161.00,97.98
2160.00,97.95
2159.00,98.00
2158.00,98.08
2157.00,98.12
2156.00,98.13
2155.00,98.15
2154.00,98.18
2153.00,98.23
2152.00,98.26
2151.00,98.29
2150.00,98.30
2149.00,98.28
2148.00,98.27
2147.00,98.28
2146.00,98.31
2145.00,98.32
2144.00,98.34
2143.00,98.35
2142.00,98.36
2141.00,98.36
2140.00,98.35
2139.00,98.36
2138.00,98.40
2137.00,98.43
2136.00,98.44
2135.00,98.44
2134.00,98.46
2133.00,98.50
2132.00,98.53
2131.00,98.53
2130.00,98.51
2129.00,98.48
2128.00,98.47
2127.00,98.48
2126.00,98.48
2125.00,98.49
2124.00,98.49
2123.00,98.49
2122.00,98.47
2121.00,98.46
2120.00,98.45
2119.00,98.44
2118.00,98.45
2117.00,98.47
2116.00,98.48
2115.00,98.49
2114.00,98.48
2113.00,98.45
2112.00,98.43
2111.00,98.44
2110.00,98.46
2109.00,98.47
2108.00,98.48
2107.00,98.48
2106.00,98.48
2105.00,98.48
2104.00,98.49
2103.00,98.50
2102.00,98.51
2101.00,98.50
2100.00,98.48
2099.00,98.45
2098.00,98.42
2097.00,98.40
2096.00,98.38
2095.00,98.36
2094.00,98.37
2093.00,98.38
2092.00,98.40
2091.00,98.41
2090.00,98.41
2089.00,98.39
2088.00,98.36
2087.00,98.34
2086.00,98.35
2085.00,98.37
2084.00,98.40
2083.00,98.40
2082.00,98.39
2081.00,98.39
2080.00,98.40
2079.00,98.42
2078.00,98.42
2077.00,98.38
2076.00,98.34
2075.00,98.31
2074.00,98.31
2073.00,98.31
2072.00,98.33
2071.00,98.34
2070.00,98.35
2069.00,98.37
2068.00,98.40
2067.00,98.42
2066.00,98.43
2065.00,98.41
2064.00,98.39
2063.00,98.37
2062.00,98.35
2061.00,98.34
2060.00,98.33
2059.00,98.31
2058.00,98.28
2057.00,98.26
2056.00,98.25
2055.00,98.26
2054.00,98.29
2053.00,98.32
2052.00,98.34
2051.00,98.35
2050.00,98.35
2049.00,98.34
2048.00,98.32
2047.00,98.30
2046.00,98.28
2045.00,98.26
2044.00,98.24
2043.00,98.23
2042.00,98.21
2041.00,98.19
2040.00,98.18
2039.00,98.17
2038.00,98.15
2037.00,98.15
2036.00,98.16
2035.00,98.19
2034.00,98.20
2033.00,98.18
2032.00,98.17
2031.00,98.17
2030.00,98.21
2029.00,98.26
2028.00,98.30
2027.00,98.33
2026.00,98.32
2025.00,98.29
2024.00,98.27
2023.00,98.28
2022.00,98.29
2021.00,98.28
2020.00,98.25
2019.00,98.23
2018.00,98.24
2017.00,98.30
2016.00,98.36
2015.00,98.38
2014.00,98.32
2013.00,98.25
2012.00,98.23
2011.00,98.26
2010.00,98.32
2009.00,98.36
2008.00,98.37
2007.00,98.37
2006.00,98.37
2005.00,98.34
2004.00,98.31
2003.00,98.29
2002.00,98.29
2001.00,98.31
2000.00,98.35
1999.00,98.38
1998.00,98.39
1997.00,98.39
1996.00,98.39
1995.00,98.39
1994.00,98.35
1993.00,98.28
1992.00,98.22
1991.00,98.18
1990.00,98.16
1989.00,98.15
1988.00,98.17
1987.00,98.21
1986.00,98.26
1985.00,98.29
1984.00,98.27
1983.00,98.23
1982.00,98.20
1981.00,98.18
1980.00,98.20
1979.00,98.25
1978.00,98.29
1977.00,98.29
1976.00,98.23
1975.00,98.17
1974.00,98.14
1973.00,98.17
1972.00,98.27
1971.00,98.38
1970.00,98.45
1969.00,98.42
1968.00,98.33
1967.00,98.27
1966.00,98.25
1965.00,98.27
1964.00,98.31
1963.00,98.34
1962.00,98.38
1961.00,98.41
1960.00,98.44
1959.00,98.47
1958.00,98.50
1957.00,98.52
1956.00,98.52
1955.00,98.49
1954.00,98.48
1953.00,98.49
1952.00,98.53
1951.00,98.54
1950.00,98.53
1949.00,98.50
1948.00,98.49
1947.00,98.49
1946.00,98.49
1945.00,98.51
1944.00,98.54
1943.00,98.59
1942.00,98.62
1941.00,98.61
1940.00,98.58
1939.00,98.57
1938.00,98.56
1937.00,98.56
1936.00,98.56
1935.00,98.56
1934.00,98.57
1933.00,98.56
1932.00,98.55
1931.00,98.53
1930.00,98.52
1929.00,98.52
1928.00,98.54
1927.00,98.56
1926.00,98.57
1925.00,98.55
1924.00,98.51
1923.00,98.48
1922.00,98.47
1921.00,98.50
1920.00,98.54
1919.00,98.59
1918.00,98.60
1917.00,98.60
1916.00,98.59
1915.00,98.58
1914.00,98.58
1913.00,98.58
1912.00,98.58
1911.00,98.59
1910.00,98.61
1909.00,98.63
1908.00,98.65
1907.00,98.66
1906.00,98.66
1905.00,98.67
1904.00,98.67
1903.00,98.67
1902.00,98.67
1901.00,98.66
1900.00,98.65
1899.00,98.66
1898.00,98.67
1897.00,98.69
1896.00,98.70
1895.00,98.70
1894.00,98.69
1893.00,98.69
1892.00,98.71
1891.00,98.72
1890.00,98.74
1889.00,98.74
1888.00,98.74
1887.00,98.73
1886.00,98.71
1885.00,98.68
1884.00,98.67
1883.00,98.69
1882.00,98.72
1881.00,98.76
1880.00,98.78
1879.00,98.78
1878.00,98.77
1877.00,98.76
1876.00,98.75
1875.00,98.75
1874.00,98.75
1873.00,98.75
1872.00,98.74
1871.00,98.74
1870.00,98.74
1869.00,98.76
1868.00,98.77
1867.00,98.78
1866.00,98.78
1865.00,98.80
1864.00,98.82
1863.00,98.84
1862.00,98.86
1861.00,98.86
1860.00,98.84
1859.00,98.83
1858.00,98.82
1857.00,98.81
1856.00,98.80
1855.00,98.79
1854.00,98.77
1853.00,98.75
1852.00,98.75
1851.00,98.75
1850.00,98.76
1849.00,98.78
1848.00,98.80
1847.00,98.82
1846.00,98.84
1845.00,98.84
1844.00,98.84
1843.00,98.84
1842.00,98.85
1841.00,98.86
1840.00,98.87
1839.00,98.89
1838.00,98.90
1837.00,98.89
1836.00,98.88
1835.00,98.88
1834.00,98.89
1833.00,98.90
1832.00,98.90
1831.00,98.91
1830.00,98.92
1829.00,98.94
1828.00,98.95
1827.00,98.95
1826.00,98.95
1825.00,98.94
1824.00,98.94
1823.00,98.94
1822.00,98.92
1821.00,98.91
1820.00,98.89
1819.00,98.90
1818.00,98.92
1817.00,98.93
1816.00,98.93
1815.00,98.93
1814.00,98.92
1813.00,98.92
1812.00,98.93
1811.00,98.97
1810.00,99.00
1809.00,99.01
1808.00,98.99
1807.00,98.97
1806.00,98.95
1805.00,98.94
1804.00,98.95
1803.00,98.96
1802.00,98.98
1801.00,98.99
1800.00,98.99
1799.00,98.99
1798.00,98.99
1797.00,98.99
1796.00,99.00
1795.00,99.01
1794.00,99.02
1793.00,99.02
1792.00,99.02
1791.00,99.01
1790.00,99.01
1789.00,99.01
1788.00,99.02
1787.00,99.02
1786.00,99.02
1785.00,99.03
1784.00,99.03
1783.00,99.04
1782.00,99.04
1781.00,99.04
1780.00,99.04
1779.00,99.05
1778.00,99.05
1777.00,99.05
1776.00,99.05
1775.00,99.06
1774.00,99.07
1773.00,99.07
1772.00,99.06
1771.00,99.03
1770.00,99.00
1769.00,98.97
1768.00,98.96
1767.00,98.96
1766.00,98.96
1765.00,98.95
1764.00,98.96
1763.00,98.98
1762.00,99.01
1761.00,99.02
1760.00,99.02
1759.00,99.01
1758.00,99.00
1757.00,98.99
1756.00,98.98
1755.00,98.97
1754.00,98.96
1753.00,98.96
1752.00,98.97
1751.00,98.98
1750.00,98.98
1749.00,98.96
1748.00,98.94
1747.00,98.92
1746.00,98.91
1745.00,98.90
1744.00,98.88
1743.00,98.85
1742.00,98.82
1741.00,98.80
1740.00,98.80
1739.00,98.81
1738.00,98.83
1737.00,98.83
1736.00,98.83
1735.00,98.82
1734.00,98.82
1733.00,98.82
1732.00,98.83
1731.00,98.82
1730.00,98.82
1729.00,98.82
1728.00,98.82
1727.00,98.83
1726.00,98.84
1725.00,98.85
1724.00,98.85
1723.00,98.85
1722.00,98.86
1721.00,98.86
1720.00,98.86
1719.00,98.86
1718.00,98.85
1717.00,98.85
1716.00,98.85
1715.00,98.85
1714.00,98.86
1713.00,98.87
1712.00,98.86
1711.00,98.85
1710.00,98.86
1709.00,98.86
1708.00,98.87
1707.00,98.87
1706.00,98.87
1705.00,98.88
1704.00,98.89
1703.00,98.90
1702.00,98.91
1701.00,98.91
1700.00,98.92
1699.00,98.95
1698.00,98.97
1697.00,98.97
1696.00,98.97
1695.00,98.98
1694.00,98.97
1693.00,98.93
1692.00,98.89
1691.00,98.87
1690.00,98.86
1689.00,98.84
1688.00,98.83
1687.00,98.81
1686.00,98.77
1685.00,98.68
1684.00,98.56
1683.00,98.45
1682.00,98.36
1681.00,98.26
1680.00,98.15
1679.00,98.05
1678.00,97.95
1677.00,97.82
1676.00,97.66
1675.00,97.48
1674.00,97.31
1673.00,97.16
1672.00,96.99
1671.00,96.81
1670.00,96.58
1669.00,96.30
1668.00,96.00
1667.00,95.71
1666.00,95.45
1665.00,95.19
1664.00,94.87
1663.00,94.52
1662.00,94.17
1661.00,93.85
1660.00,93.52
1659.00,93.19
1658.00,92.87
1657.00,92.57
1656.00,92.27
1655.00,91.93
1654.00,91.49
1653.00,90.92
1652.00,90.44
1651.00,90.06
1650.00,89.71
1649.00,89.33
1648.00,88.87
1647.00,88.31
1646.00,87.75
1645.00,87.22
1644.00,86.70
1643.00,86.18
1642.00,85.68
1641.00,85.16
1640.00,84.64
1639.00,84.14
1638.00,83.65
1637.00,83.16
1636.00,82.67
1635.00,82.28
1634.00,82.03
1633.00,81.85
1632.00,81.74
1631.00,81.72
1630.00,81.83
1629.00,82.09
1628.00,82.43
1627.00,82.78
1626.00,83.08
1625.00,83.38
1624.00,83.77
1623.00,84.25
1622.00,84.72
1621.00,85.09
1620.00,85.36
1619.00,85.64
1618.00,86.07
1617.00,86.68
1616.00,87.32
1615.00,87.82
1614.00,88.16
1613.00,88.47
1612.00,88.81
1611.00,89.17
1610.00,89.52
1609.00,89.82
1608.00,90.11
1607.00,90.41
1606.00,90.70
1605.00,90.98
1604.00,91.28
1603.00,91.60
1602.00,91.90
1601.00,92.18
1600.00,92.43
1599.00,92.67
1598.00,92.87
1597.00,93.06
1596.00,93.24
1595.00,93.39
1594.00,93.52
1593.00,93.63
1592.00,93.74
1591.00,93.84
1590.00,93.91
1589.00,93.96
1588.00,94.01
1587.00,94.05
1586.00,94.06
1585.00,94.03
1584.00,94.00
1583.00,93.96
1582.00,93.91
1581.00,93.84
1580.00,93.76
1579.00,93.68
1578.00,93.56
1577.00,93.42
1576.00,93.27
1575.00,93.13
1574.00,92.97
1573.00,92.80
1572.00,92.64
1571.00,92.46
1570.00,92.25
1569.00,92.01
1568.00,91.79
1567.00,91.58
1566.00,91.35
1565.00,91.09
1564.00,90.85
1563.00,90.62
1562.00,90.40
1561.00,90.17
1560.00,89.92
1559.00,89.65
1558.00,89.41
1557.00,89.18
1556.00,88.94
1555.00,88.71
1554.00,88.46
1553.00,88.21
1552.00,87.94
1551.00,87.67
1550.00,87.38
1549.00,87.07
1548.00,86.76
1547.00,86.43
1546.00,86.06
1545.00,85.66
1544.00,85.25
1543.00,84.84
1542.00,84.41
1541.00,83.91
1540.00,83.38
1539.00,82.89
1538.00,82.48
1537.00,82.10
1536.00,81.75
1535.00,81.44
1534.00,81.22
1533.00,81.12
1532.00,81.09
1531.00,81.08
1530.00,81.12
1529.00,81.24
1528.00,81.47
1527.00,81.80
1526.00,82.17
1525.00,82.52
1524.00,82.82
1523.00,83.17
1522.00,83.69
1521.00,84.32
1520.00,84.82
1519.00,85.16
1518.00,85.51
1517.00,85.97
1516.00,86.42
1515.00,86.78
1514.00,87.06
1513.00,87.34
1512.00,87.65
1511.00,87.94
1510.00,88.17
1509.00,88.40
1508.00,88.70
1507.00,89.18
1506.00,89.68
1505.00,89.98
1504.00,90.12
1503.00,90.23
1502.00,90.37
1501.00,90.54
1500.00,90.73
1499.00,90.92
1498.00,91.13
1497.00,91.37
1496.00,91.58
1495.00,91.75
1494.00,91.88
1493.00,91.98
1492.00,92.08
1491.00,92.22
1490.00,92.39
1489.00,92.55
1488.00,92.63
1487.00,92.67
1486.00,92.69
1485.00,92.67
1484.00,92.59
1483.00,92.45
1482.00,92.24
1481.00,91.94
1480.00,91.54
1479.00,91.08
1478.00,90.54
1477.00,89.97
1476.00,89.45
1475.00,89.09
1474.00,88.98
1473.00,89.18
1472.00,89.54
1471.00,89.82
1470.00,89.93
1469.00,89.89
1468.00,89.73
1467.00,89.47
1466.00,89.19
1465.00,88.98
1464.00,88.92
1463.00,88.99
1462.00,89.10
1461.00,89.25
1460.00,89.42
1459.00,89.64
1458.00,89.94
1457.00,90.28
1456.00,90.53
1455.00,90.64
1454.00,90.70
1453.00,90.78
1452.00,90.88
1451.00,90.99
1450.00,91.09
1449.00,91.18
1448.00,91.26
1447.00,91.30
1446.00,91.30
1445.00,91.29
1444.00,91.26
1443.00,91.23
1442.00,91.21
1441.00,91.18
1440.00,91.14
1439.00,91.09
1438.00,91.06
1437.00,91.08
1436.00,91.13
1435.00,91.18
1434.00,91.21
1433.00,91.26
1432.00,91.35
1431.00,91.46
1430.00,91.58
1429.00,91.69
1428.00,91.77
1427.00,91.80
1426.00,91.80
1425.00,91.77
1424.00,91.71
1423.00,91.60
1422.00,91.42
1421.00,91.15
1420.00,90.74
1419.00,90.23
1418.00,89.77
1417.00,89.50
1416.00,89.45
1415.00,89.63
1414.00,89.96
1413.00,90.40
1412.00,90.87
1411.00,91.32
1410.00,91.71
1409.00,92.03
1408.00,92.29
1407.00,92.49
1406.00,92.67
1405.00,92.84
1404.00,92.98
1403.00,93.08
1402.00,93.14
1401.00,93.19
1400.00,93.24
1399.00,93.28
1398.00,93.30
1397.00,93.29
1396.00,93.26
1395.00,93.22
1394.00,93.17
1393.00,93.12
1392.00,93.04
1391.00,92.96
1390.00,92.87
1389.00,92.80
1388.00,92.73
1387.00,92.66
1386.00,92.60
1385.00,92.54
1384.00,92.47
1383.00,92.40
1382.00,92.33
1381.00,92.25
1380.00,92.15
1379.00,92.02
1378.00,91.85
1377.00,91.67
1376.00,91.47
1375.00,91.26
1374.00,91.05
1373.00,90.88
1372.00,90.75
1371.00,90.66
1370.00,90.61
1369.00,90.63
1368.00,90.68
1367.00,90.75
1366.00,90.82
1365.00,90.89
1364.00,90.99
1363.00,91.10
1362.00,91.23
1361.00,91.35
1360.00,91.43
1359.00,91.50
1358.00,91.56
1357.00,91.63
1356.00,91.71
1355.00,91.79
1354.00,91.87
1353.00,91.96
1352.00,92.04
1351.00,92.13
1350.00,92.22
1349.00,92.33
1348.00,92.42
1347.00,92.51
1346.00,92.59
1345.00,92.66
1344.00,92.73
1343.00,92.80
1342.00,92.86
1341.00,92.93
1340.00,92.99
1339.00,93.05
1338.00,93.10
1337.00,93.13
1336.00,93.16
1335.00,93.18
1334.00,93.19
1333.00,93.20
1332.00,93.19
1331.00,93.18
1330.00,93.18
1329.00,93.20
1328.00,93.22
1327.00,93.25
1326.00,93.29
1325.00,93.34
1324.00,93.40
1323.00,93.45
1322.00,93.49
1321.00,93.52
1320.00,93.55
1319.00,93.56
1318.00,93.57
1317.00,93.57
1316.00,93.57
1315.00,93.57
1314.00,93.55
1313.00,93.52
1312.00,93.47
1311.00,93.41
1310.00,93.35
1309.00,93.29
1308.00,93.23
1307.00,93.16
1306.00,93.09
1305.00,93.03
1304.00,92.99
1303.00,92.96
1302.00,92.96
1301.00,92.96
1300.00,92.98
1299.00,93.00
1298.00,93.02
1297.00,93.02
1296.00,93.02
1295.00,93.00
1294.00,92.96
1293.00,92.91
1292.00,92.86
1291.00,92.80
1290.00,92.73
1289.00,92.64
1288.00,92.50
1287.00,92.32
1286.00,92.10
1285.00,91.85
1284.00,91.57
1283.00,91.27
1282.00,90.95
1281.00,90.60
1280.00,90.23
1279.00,89.85
1278.00,89.51
1277.00,89.22
1276.00,89.00
1275.00,88.85
1274.00,88.78
1273.00,88.75
1272.00,88.75
1271.00,88.78
1270.00,88.84
1269.00,88.94
1268.00,89.06
1267.00,89.20
1266.00,89.35
1265.00,89.49
1264.00,89.64
1263.00,89.77
1262.00,89.91
1261.00,90.05
1260.00,90.20
1259.00,90.34
1258.00,90.47
1257.00,90.58
1256.00,90.68
1255.00,90.77
1254.00,90.87
1253.00,90.97
1252.00,91.07
1251.00,91.17
1250.00,91.27
1249.00,91.36
1248.00,91.43
1247.00,91.51
1246.00,91.58
1245.00,91.65
1244.00,91.71
1243.00,91.76
1242.00,91.82
1241.00,91.88
1240.00,91.95
1239.00,92.01
1238.00,92.08
1237.00,92.14
1236.00,92.20
1235.00,92.27
1234.00,92.35
1233.00,92.43
1232.00,92.51
1231.00,92.58
1230.00,92.65
1229.00,92.69
1228.00,92.70
1227.00,92.67
1226.00,92.63
1225.00,92.59
1224.00,92.57
1223.00,92.62
1222.00,92.73
1221.00,92.88
1220.00,93.02
1219.00,93.14
1218.00,93.25
1217.00,93.33
1216.00,93.39
1215.00,93.43
1214.00,93.46
1213.00,93.48
1212.00,93.48
1211.00,93.45
1210.00,93.40
1209.00,93.31
1208.00,93.17
1207.00,92.97
1206.00,92.69
1205.00,92.35
1204.00,91.92
1203.00,91.43
1202.00,90.89
1201.00,90.33
1200.00,89.81
1199.00,89.39
1198.00,89.14
1197.00,89.10
1196.00,89.26
1195.00,89.58
1194.00,90.00
1193.00,90.43
1192.00,90.83
1191.00,91.16
1190.00,91.42
1189.00,91.62
1188.00,91.76
1187.00,91.85
1186.00,91.88
1185.00,91.86
1184.00,91.79
1183.00,91.70
1182.00,91.60
1181.00,91.51
1180.00,91.45
1179.00,91.42
1178.00,91.45
1177.00,91.56
1176.00,91.73
1175.00,91.93
1174.00,92.14
1173.00,92.35
1172.00,92.54
1171.00,92.72
1170.00,92.89
1169.00,93.05
1168.00,93.19
1167.00,93.32
1166.00,93.43
1165.00,93.53
1164.00,93.61
1163.00,93.66
1162.00,93.68
1161.00,93.70
1160.00,93.71
1159.00,93.71
1158.00,93.69
1157.00,93.65
1156.00,93.60
1155.00,93.53
1154.00,93.46
1153.00,93.39
1152.00,93.31
1151.00,93.22
1150.00,93.11
1149.00,93.01
1148.00,92.95
1147.00,92.93
1146.00,92.92
1145.00,92.91
1144.00,92.89
1143.00,92.87
1142.00,92.83
1141.00,92.78
1140.00,92.71
1139.00,92.66
1138.00,92.66
1137.00,92.73
1136.00,92.86
1135.00,93.02
1134.00,93.18
1133.00,93.33
1132.00,93.46
1131.00,93.59
1130.00,93.72
1129.00,93.84
1128.00,93.95
1127.00,94.02
1126.00,94.06
1125.00,94.09
1124.00,94.12
1123.00,94.15
1122.00,94.19
1121.00,94.21
1120.00,94.23
1119.00,94.24
1118.00,94.26
1117.00,94.27
1116.00,94.28
1115.00,94.28
1114.00,94.27
1113.00,94.27
1112.00,94.26
1111.00,94.27
1110.00,94.30
1109.00,94.34
1108.00,94.37
1107.00,94.38
1106.00,94.38
1105.00,94.37
1104.00,94.36
1103.00,94.36
1102.00,94.37
1101.00,94.39
1100.00,94.43
1099.00,94.45
1098.00,94.45
1097.00,94.43
1096.00,94.41
1095.00,94.42
1094.00,94.45
1093.00,94.49
1092.00,94.52
1091.00,94.53
1090.00,94.51
1089.00,94.50
1088.00,94.51
1087.00,94.54
1086.00,94.59
1085.00,94.65
1084.00,94.69
1083.00,94.72
1082.00,94.73
1081.00,94.77
1080.00,94.82
1079.00,94.88
1078.00,94.93
1077.00,94.97
1076.00,94.99
1075.00,94.98
1074.00,94.97
1073.00,94.95
1072.00,94.90
1071.00,94.82
1070.00,94.72
1069.00,94.65
1068.00,94.61
1067.00,94.58
1066.00,94.54
1065.00,94.50
1064.00,94.48
1063.00,94.51
1062.00,94.56
1061.00,94.61
1060.00,94.64
1059.00,94.66
1058.00,94.68
1057.00,94.71
1056.00,94.74
1055.00,94.77
1054.00,94.77
1053.00,94.77
1052.00,94.77
1051.00,94.77
1050.00,94.78
1049.00,94.79
1048.00,94.78
1047.00,94.74
1046.00,94.70
1045.00,94.66
1044.00,94.63
1043.00,94.60
1042.00,94.57
1041.00,94.54
1040.00,94.53
1039.00,94.53
1038.00,94.57
1037.00,94.64
1036.00,94.72
1035.00,94.81
1034.00,94.88
1033.00,94.93
1032.00,94.96
1031.00,94.98
1030.00,95.00
1029.00,95.03
1028.00,95.06
1027.00,95.08
1026.00,95.09
1025.00,95.10
1024.00,95.11
1023.00,95.11
1022.00,95.13
1021.00,95.16
1020.00,95.19
1019.00,95.21
1018.00,95.21
1017.00,95.20
1016.00,95.19
1015.00,95.18
1014.00,95.18
1013.00,95.18
1012.00,95.17
1011.00,95.17
1010.00,95.18
1009.00,95.21
1008.00,95.26
1007.00,95.32
1006.00,95.36
1005.00,95.38
1004.00,95.39
1003.00,95.39
1002.00,95.40
1001.00,95.41
1000.00,95.42
999.00,95.41
998.00,95.41
997.00,95.44
996.00,95.49
995.00,95.55
994.00,95.58
993.00,95.59
992.00,95.59
991.00,95.59
990.00,95.60
989.00,95.62
988.00,95.64
987.00,95.65
986.00,95.66
985.00,95.68
984.00,95.70
983.00,95.73
982.00,95.77
981.00,95.82
980.00,95.87
979.00,95.91
978.00,95.94
977.00,95.96
976.00,95.96
975.00,95.96
974.00,95.93
973.00,95.91
972.00,95.89
971.00,95.89
970.00,95.89
969.00,95.91
968.00,95.94
967.00,95.97
966.00,95.98
965.00,95.99
964.00,96.00
963.00,96.01
962.00,96.02
961.00,96.01
960.00,95.99
959.00,95.95
958.00,95.91
957.00,95.90
956.00,95.89
955.00,95.89
954.00,95.88
953.00,95.85
952.00,95.82
951.00,95.78
950.00,95.75
949.00,95.73
948.00,95.69
947.00,95.64
946.00,95.57
945.00,95.48
944.00,95.38
943.00,95.25
942.00,95.06
941.00,94.81
940.00,94.47
939.00,94.05
938.00,93.56
937.00,93.08
936.00,92.68
935.00,92.44
934.00,92.37
933.00,92.45
932.00,92.64
931.00,92.90
930.00,93.19
929.00,93.48
928.00,93.75
927.00,93.99
926.00,94.20
925.00,94.38
924.00,94.52
923.00,94.62
922.00,94.71
921.00,94.79
920.00,94.87
919.00,94.94
918.00,95.00
917.00,95.06
916.00,95.11
915.00,95.15
914.00,95.19
913.00,95.23
912.00,95.25
911.00,95.23
910.00,95.18
909.00,95.10
908.00,95.00
907.00,94.92
906.00,94.89
905.00,94.93
904.00,95.01
903.00,95.12
902.00,95.23
901.00,95.33
900.00,95.42
899.00,95.50
898.00,95.58
897.00,95.66
896.00,95.72
895.00,95.75
894.00,95.76
893.00,95.77
892.00,95.78
891.00,95.81
890.00,95.83
889.00,95.84
888.00,95.85
887.00,95.86
886.00,95.88
885.00,95.89
884.00,95.91
883.00,95.92
882.00,95.93
881.00,95.92
880.00,95.89
879.00,95.87
878.00,95.86
877.00,95.85
876.00,95.83
875.00,95.79
874.00,95.77
873.00,95.78
872.00,95.83
871.00,95.89
870.00,95.94
869.00,95.97
868.00,95.98
867.00,96.01
866.00,96.04
865.00,96.06
864.00,96.06
863.00,96.05
862.00,96.06
861.00,96.08
860.00,96.10
859.00,96.10
858.00,96.09
857.00,96.08
856.00,96.07
855.00,96.07
854.00,96.07
853.00,96.09
852.00,96.11
851.00,96.11
850.00,96.09
849.00,96.05
848.00,96.01
847.00,96.01
846.00,96.05
845.00,96.09
844.00,96.11
843.00,96.11
842.00,96.11
841.00,96.11
840.00,96.12
839.00,96.11
838.00,96.09
837.00,96.05
836.00,96.01
835.00,95.99
834.00,95.98
833.00,96.00
832.00,96.03
831.00,96.05
830.00,96.06
829.00,96.06
828.00,96.05
827.00,96.02
826.00,96.00
825.00,95.99
824.00,95.99
823.00,95.97
822.00,95.95
821.00,95.91
820.00,95.89
819.00,95.88
818.00,95.88
817.00,95.88
816.00,95.86
815.00,95.83
814.00,95.78
813.00,95.74
812.00,95.71
811.00,95.71
810.00,95.71
809.00,95.68
808.00,95.63
807.00,95.58
806.00,95.55
805.00,95.54
804.00,95.52
803.00,95.49
802.00,95.43
801.00,95.38
800.00,95.34
799.00,95.34
798.00,95.36
797.00,95.38
796.00,95.39
795.00,95.39
794.00,95.39
793.00,95.39
792.00,95.39
791.00,95.37
790.00,95.35
789.00,95.31
788.00,95.28
787.00,95.24
786.00,95.20
785.00,95.17
784.00,95.15
783.00,95.14
782.00,95.12
781.00,95.11
780.00,95.09
779.00,95.05
778.00,94.99
777.00,94.94
776.00,94.90
775.00,94.89
774.00,94.89
773.00,94.87
772.00,94.84
771.00,94.79
770.00,94.75
769.00,94.70
768.00,94.65
767.00,94.60
766.00,94.54
765.00,94.47
764.00,94.41
763.00,94.36
762.00,94.32
761.00,94.30
760.00,94.27
759.00,94.25
758.00,94.23
757.00,94.21
756.00,94.21
755.00,94.20
754.00,94.19
753.00,94.14
752.00,94.08
751.00,94.02
750.00,93.96
749.00,93.90
748.00,93.85
747.00,93.81
746.00,93.78
745.00,93.75
744.00,93.70
743.00,93.63
742.00,93.55
741.00,93.45
740.00,93.32
739.00,93.17
738.00,93.00
737.00,92.79
736.00,92.56
735.00,92.29
734.00,92.01
733.00,91.70
732.00,91.37
731.00,91.06
730.00,90.85
729.00,90.74
728.00,90.72
727.00,90.73
726.00,90.76
725.00,90.78
724.00,90.79
723.00,90.79
722.00,90.77
721.00,90.72
720.00,90.65
719.00,90.58
718.00,90.55
717.00,90.55
716.00,90.56
715.00,90.54
714.00,90.49
713.00,90.44
712.00,90.40
711.00,90.40
710.00,90.41
709.00,90.38
708.00,90.30
707.00,90.18
706.00,90.03
705.00,89.89
704.00,89.79
703.00,89.70
702.00,89.60
701.00,89.46
700.00,89.26
699.00,89.03
698.00,88.79
697.00,88.54
696.00,88.28
695.00,88.03
694.00,87.77
693.00,87.52
692.00,87.27
691.00,87.04
690.00,86.85
689.00,86.68
688.00,86.55
687.00,86.45
686.00,86.38
685.00,86.32
684.00,86.28
683.00,86.27
682.00,86.29
681.00,86.35
680.00,86.42
679.00,86.50
678.00,86.57
677.00,86.66
676.00,86.76
675.00,86.91
674.00,87.09
673.00,87.26
672.00,87.38
671.00,87.43
670.00,87.43
669.00,87.48
668.00,87.63
667.00,87.80
666.00,87.93
665.00,88.06
664.00,88.18
663.00,88.31
662.00,88.40
661.00,88.47
660.00,88.55
659.00,88.69
658.00,88.88
657.00,89.08
656.00,89.26
655.00,89.39
654.00,89.47
653.00,89.55
652.00,89.64
651.00,89.74
650.00,89.81
649.00,89.84
648.00,89.86
647.00,89.88
646.00,89.89
645.00,89.86
644.00,89.83
643.00,89.84
642.00,89.93
641.00,90.03
640.00,90.09
639.00,90.10
638.00,90.11
637.00,90.12
636.00,90.14
635.00,90.13
634.00,90.08
633.00,89.96
632.00,89.84
631.00,89.81
630.00,89.94
629.00,90.15
628.00,90.35
627.00,90.48
626.00,90.57
625.00,90.64
624.00,90.65
623.00,90.54
622.00,90.33
621.00,90.09
620.00,89.91
619.00,89.87
618.00,90.02
617.00,90.25
616.00,90.35
615.00,90.21
614.00,89.94
613.00,89.77
612.00,89.88
611.00,90.20
610.00,90.48
609.00,90.48
608.00,90.22
607.00,89.89
606.00,89.74
605.00,89.82
604.00,90.00
603.00,90.12
602.00,90.12
601.00,90.08
600.00,90.08
599.00,90.14
598.00,90.18
597.00,90.17
596.00,90.13
595.00,90.06
594.00,89.90
593.00,89.60
592.00,89.23
591.00,89.01
590.00,89.07
589.00,89.30
588.00,89.42
587.00,89.17
586.00,88.53
585.00,87.70
584.00,87.01
583.00,86.63
582.00,86.43
581.00,86.15
580.00,85.71
579.00,85.27
578.00,84.96
577.00,84.75
576.00,84.72
575.00,85.01
574.00,85.43
573.00,85.53
572.00,85.19
571.00,84.82
570.00,84.92
569.00,85.53
568.00,86.40
567.00,87.26
566.00,87.84
565.00,87.98
564.00,87.84
563.00,87.69
562.00,87.65
561.00,87.58
560.00,87.51
559.00,87.68
558.00,88.17
557.00,88.69
556.00,89.05
555.00,89.41
554.00,90.00
553.00,90.61
552.00,90.87
551.00,90.62
550.00,90.11
