Created as New Dataset,124 Philips (Green)
cm-1,%T
4000.00,100.64
3999.00,100.64
3998.00,100.64
3997.00,100.64
3996.00,100.65
3995.00,100.65
3994.00,100.64
3993.00,100.61
3992.00,100.57
3991.00,100.54
3990.00,100.54
3989.00,100.56
3988.00,100.59
3987.00,100.62
3986.00,100.63
3985.00,100.63
3984.00,100.64
3983.00,100.64
3982.00,100.65
3981.00,100.65
3980.00,100.65
3979.00,100.65
3978.00,100.65
3977.00,100.64
3976.00,100.62
3975.00,100.61
3974.00,100.60
3973.00,100.60
3972.00,100.60
3971.00,100.61
3970.00,100.61
3969.00,100.61
3968.00,100.59
3967.00,100.58
3966.00,100.57
3965.00,100.57
3964.00,100.58
3963.00,100.59
3962.00,100.61
3961.00,100.64
3960.00,100.67
3959.00,100.69
3958.00,100.69
3957.00,100.69
3956.00,100.68
3955.00,100.67
3954.00,100.66
3953.00,100.65
3952.00,100.63
3951.00,100.62
3950.00,100.63
3949.00,100.64
3948.00,100.66
3947.00,100.67
3946.00,100.67
3945.00,100.66
3944.00,100.65
3943.00,100.65
3942.00,100.65
3941.00,100.65
3940.00,100.64
3939.00,100.62
3938.00,100.62
3937.00,100.62
3936.00,100.62
3935.00,100.62
3934.00,100.62
3933.00,100.61
3932.00,100.61
3931.00,100.61
3930.00,100.61
3929.00,100.61
3928.00,100.61
3927.00,100.58
3926.00,100.55
3925.00,100.52
3924.00,100.52
3923.00,100.53
3922.00,100.56
3921.00,100.59
3920.00,100.61
3919.00,100.61
3918.00,100.60
3917.00,100.59
3916.00,100.59
3915.00,100.60
3914.00,100.60
3913.00,100.61
3912.00,100.61
3911.00,100.62
3910.00,100.64
3909.00,100.66
3908.00,100.67
3907.00,100.66
3906.00,100.63
3905.00,100.60
3904.00,100.59
3903.00,100.59
3902.00,100.61
3901.00,100.61
3900.00,100.61
3899.00,100.60
3898.00,100.60
3897.00,100.60
3896.00,100.59
3895.00,100.58
3894.00,100.57
3893.00,100.56
3892.00,100.55
3891.00,100.54
3890.00,100.54
3889.00,100.54
3888.00,100.54
3887.00,100.54
3886.00,100.54
3885.00,100.55
3884.00,100.55
3883.00,100.54
3882.00,100.53
3881.00,100.54
3880.00,100.57
3879.00,100.59
3878.00,100.61
3877.00,100.59
3876.00,100.55
3875.00,100.51
3874.00,100.49
3873.00,100.50
3872.00,100.51
3871.00,100.53
3870.00,100.55
3869.00,100.56
3868.00,100.57
3867.00,100.54
3866.00,100.51
3865.00,100.49
3864.00,100.49
3863.00,100.51
3862.00,100.52
3861.00,100.52
3860.00,100.51
3859.00,100.51
3858.00,100.51
3857.00,100.52
3856.00,100.54
3855.00,100.55
3854.00,100.55
3853.00,100.55
3852.00,100.56
3851.00,100.55
3850.00,100.54
3849.00,100.53
3848.00,100.53
3847.00,100.53
3846.00,100.53
3845.00,100.51
3844.00,100.49
3843.00,100.49
3842.00,100.51
3841.00,100.52
3840.00,100.51
3839.00,100.49
3838.00,100.47
3837.00,100.48
3836.00,100.49
3835.00,100.50
3834.00,100.50
3833.00,100.49
3832.00,100.48
3831.00,100.48
3830.00,100.49
3829.00,100.49
3828.00,100.47
3827.00,100.46
3826.00,100.47
3825.00,100.48
3824.00,100.49
3823.00,100.48
3822.00,100.46
3821.00,100.46
3820.00,100.48
3819.00,100.49
3818.00,100.46
3817.00,100.43
3816.00,100.42
3815.00,100.43
3814.00,100.45
3813.00,100.44
3812.00,100.42
3811.00,100.42
3810.00,100.43
3809.00,100.45
3808.00,100.45
3807.00,100.45
3806.00,100.46
3805.00,100.48
3804.00,100.49
3803.00,100.49
3802.00,100.49
3801.00,100.49
3800.00,100.49
3799.00,100.46
3798.00,100.42
3797.00,100.38
3796.00,100.37
3795.00,100.38
3794.00,100.39
3793.00,100.40
3792.00,100.41
3791.00,100.43
3790.00,100.43
3789.00,100.42
3788.00,100.41
3787.00,100.41
3786.00,100.41
3785.00,100.41
3784.00,100.41
3783.00,100.41
3782.00,100.38
3781.00,100.35
3780.00,100.33
3779.00,100.33
3778.00,100.35
3777.00,100.39
3776.00,100.41
3775.00,100.42
3774.00,100.41
3773.00,100.38
3772.00,100.34
3771.00,100.30
3770.00,100.27
3769.00,100.27
3768.00,100.26
3767.00,100.25
3766.00,100.24
3765.00,100.24
3764.00,100.26
3763.00,100.28
3762.00,100.29
3761.00,100.29
3760.00,100.29
3759.00,100.30
3758.00,100.31
3757.00,100.32
3756.00,100.31
3755.00,100.29
3754.00,100.29
3753.00,100.29
3752.00,100.32
3751.00,100.34
3750.00,100.35
3749.00,100.35
3748.00,100.35
3747.00,100.32
3746.00,100.27
3745.00,100.22
3744.00,100.21
3743.00,100.24
3742.00,100.27
3741.00,100.28
3740.00,100.28
3739.00,100.29
3738.00,100.29
3737.00,100.28
3736.00,100.26
3735.00,100.25
3734.00,100.24
3733.00,100.23
3732.00,100.21
3731.00,100.21
3730.00,100.23
3729.00,100.26
3728.00,100.29
3727.00,100.31
3726.00,100.31
3725.00,100.30
3724.00,100.29
3723.00,100.28
3722.00,100.28
3721.00,100.28
3720.00,100.28
3719.00,100.26
3718.00,100.23
3717.00,100.21
3716.00,100.20
3715.00,100.19
3714.00,100.18
3713.00,100.16
3712.00,100.14
3711.00,100.13
3710.00,100.12
3709.00,100.12
3708.00,100.11
3707.00,100.12
3706.00,100.13
3705.00,100.14
3704.00,100.14
3703.00,100.13
3702.00,100.13
3701.00,100.14
3700.00,100.17
3699.00,100.20
3698.00,100.21
3697.00,100.21
3696.00,100.20
3695.00,100.20
3694.00,100.21
3693.00,100.22
3692.00,100.22
3691.00,100.21
3690.00,100.17
3689.00,100.14
3688.00,100.14
3687.00,100.16
3686.00,100.18
3685.00,100.19
3684.00,100.20
3683.00,100.20
3682.00,100.21
3681.00,100.22
3680.00,100.24
3679.00,100.26
3678.00,100.26
3677.00,100.23
3676.00,100.18
3675.00,100.14
3674.00,100.14
3673.00,100.14
3672.00,100.12
3671.00,100.10
3670.00,100.10
3669.00,100.12
3668.00,100.14
3667.00,100.14
3666.00,100.12
3665.00,100.10
3664.00,100.10
3663.00,100.10
3662.00,100.11
3661.00,100.12
3660.00,100.13
3659.00,100.13
3658.00,100.12
3657.00,100.10
3656.00,100.08
3655.00,100.08
3654.00,100.08
3653.00,100.07
3652.00,100.07
3651.00,100.06
3650.00,100.04
3649.00,100.02
3648.00,100.02
3647.00,100.03
3646.00,100.06
3645.00,100.08
3644.00,100.10
3643.00,100.10
3642.00,100.11
3641.00,100.13
3640.00,100.14
3639.00,100.14
3638.00,100.15
3637.00,100.15
3636.00,100.16
3635.00,100.17
3634.00,100.18
3633.00,100.20
3632.00,100.22
3631.00,100.24
3630.00,100.24
3629.00,100.23
3628.00,100.20
3627.00,100.17
3626.00,100.14
3625.00,100.11
3624.00,100.12
3623.00,100.15
3622.00,100.18
3621.00,100.19
3620.00,100.17
3619.00,100.14
3618.00,100.12
3617.00,100.10
3616.00,100.08
3615.00,100.07
3614.00,100.07
3613.00,100.08
3612.00,100.09
3611.00,100.08
3610.00,100.06
3609.00,100.05
3608.00,100.06
3607.00,100.08
3606.00,100.10
3605.00,100.12
3604.00,100.13
3603.00,100.14
3602.00,100.14
3601.00,100.13
3600.00,100.14
3599.00,100.16
3598.00,100.20
3597.00,100.23
3596.00,100.24
3595.00,100.22
3594.00,100.19
3593.00,100.17
3592.00,100.15
3591.00,100.15
3590.00,100.15
3589.00,100.16
3588.00,100.16
3587.00,100.16
3586.00,100.16
3585.00,100.15
3584.00,100.14
3583.00,100.13
3582.00,100.12
3581.00,100.10
3580.00,100.08
3579.00,100.08
3578.00,100.08
3577.00,100.09
3576.00,100.09
3575.00,100.10
3574.00,100.10
3573.00,100.11
3572.00,100.11
3571.00,100.11
3570.00,100.11
3569.00,100.11
3568.00,100.11
3567.00,100.11
3566.00,100.12
3565.00,100.12
3564.00,100.12
3563.00,100.11
3562.00,100.09
3561.00,100.08
3560.00,100.06
3559.00,100.06
3558.00,100.05
3557.00,100.05
3556.00,100.06
3555.00,100.09
3554.00,100.12
3553.00,100.14
3552.00,100.15
3551.00,100.14
3550.00,100.13
3549.00,100.12
3548.00,100.12
3547.00,100.13
3546.00,100.13
3545.00,100.12
3544.00,100.10
3543.00,100.08
3542.00,100.07
3541.00,100.06
3540.00,100.07
3539.00,100.07
3538.00,100.07
3537.00,100.08
3536.00,100.08
3535.00,100.09
3534.00,100.08
3533.00,100.07
3532.00,100.06
3531.00,100.05
3530.00,100.05
3529.00,100.05
3528.00,100.03
3527.00,100.02
3526.00,100.01
3525.00,100.00
3524.00,100.01
3523.00,100.02
3522.00,100.04
3521.00,100.04
3520.00,100.04
3519.00,100.03
3518.00,100.02
3517.00,100.01
3516.00,100.01
3515.00,100.00
3514.00,99.98
3513.00,99.96
3512.00,99.95
3511.00,99.96
3510.00,99.98
3509.00,100.02
3508.00,100.03
3507.00,100.03
3506.00,100.02
3505.00,100.01
3504.00,100.00
3503.00,100.00
3502.00,99.98
3501.00,99.97
3500.00,99.95
3499.00,99.93
3498.00,99.92
3497.00,99.92
3496.00,99.94
3495.00,99.95
3494.00,99.96
3493.00,99.95
3492.00,99.94
3491.00,99.94
3490.00,99.95
3489.00,99.97
3488.00,99.99
3487.00,100.00
3486.00,100.01
3485.00,100.02
3484.00,100.01
3483.00,100.01
3482.00,100.01
3481.00,100.01
3480.00,100.00
3479.00,99.99
3478.00,99.98
3477.00,99.99
3476.00,100.01
3475.00,100.03
3474.00,100.02
3473.00,100.00
3472.00,99.97
3471.00,99.96
3470.00,99.95
3469.00,99.95
3468.00,99.95
3467.00,99.95
3466.00,99.96
3465.00,99.98
3464.00,100.00
3463.00,100.01
3462.00,100.00
3461.00,99.98
3460.00,99.96
3459.00,99.94
3458.00,99.93
3457.00,99.93
3456.00,99.94
3455.00,99.95
3454.00,99.95
3453.00,99.95
3452.00,99.95
3451.00,99.95
3450.00,99.95
3449.00,99.94
3448.00,99.93
3447.00,99.91
3446.00,99.90
3445.00,99.89
3444.00,99.88
3443.00,99.87
3442.00,99.88
3441.00,99.90
3440.00,99.92
3439.00,99.93
3438.00,99.93
3437.00,99.91
3436.00,99.90
3435.00,99.89
3434.00,99.90
3433.00,99.92
3432.00,99.95
3431.00,99.98
3430.00,99.99
3429.00,99.97
3428.00,99.94
3427.00,99.91
3426.00,99.90
3425.00,99.91
3424.00,99.93
3423.00,99.95
3422.00,99.97
3421.00,99.98
3420.00,99.98
3419.00,99.97
3418.00,99.95
3417.00,99.95
3416.00,99.95
3415.00,99.94
3414.00,99.93
3413.00,99.92
3412.00,99.91
3411.00,99.91
3410.00,99.90
3409.00,99.90
3408.00,99.90
3407.00,99.92
3406.00,99.95
3405.00,99.96
3404.00,99.96
3403.00,99.95
3402.00,99.93
3401.00,99.91
3400.00,99.91
3399.00,99.90
3398.00,99.90
3397.00,99.90
3396.00,99.90
3395.00,99.90
3394.00,99.90
3393.00,99.89
3392.00,99.89
3391.00,99.91
3390.00,99.92
3389.00,99.94
3388.00,99.95
3387.00,99.96
3386.00,99.95
3385.00,99.95
3384.00,99.94
3383.00,99.92
3382.00,99.91
3381.00,99.89
3380.00,99.88
3379.00,99.87
3378.00,99.88
3377.00,99.89
3376.00,99.91
3375.00,99.93
3374.00,99.93
3373.00,99.91
3372.00,99.90
3371.00,99.89
3370.00,99.89
3369.00,99.89
3368.00,99.87
3367.00,99.85
3366.00,99.84
3365.00,99.84
3364.00,99.85
3363.00,99.86
3362.00,99.86
3361.00,99.86
3360.00,99.87
3359.00,99.89
3358.00,99.92
3357.00,99.94
3356.00,99.96
3355.00,99.96
3354.00,99.95
3353.00,99.92
3352.00,99.90
3351.00,99.88
3350.00,99.88
3349.00,99.90
3348.00,99.93
3347.00,99.94
3346.00,99.94
3345.00,99.93
3344.00,99.91
3343.00,99.90
3342.00,99.90
3341.00,99.91
3340.00,99.92
3339.00,99.92
3338.00,99.92
3337.00,99.91
3336.00,99.91
3335.00,99.90
3334.00,99.90
3333.00,99.90
3332.00,99.90
3331.00,99.89
3330.00,99.85
3329.00,99.81
3328.00,99.78
3327.00,99.78
3326.00,99.81
3325.00,99.85
3324.00,99.87
3323.00,99.88
3322.00,99.87
3321.00,99.86
3320.00,99.85
3319.00,99.86
3318.00,99.87
3317.00,99.89
3316.00,99.91
3315.00,99.92
3314.00,99.93
3313.00,99.93
3312.00,99.93
3311.00,99.92
3310.00,99.90
3309.00,99.88
3308.00,99.87
3307.00,99.87
3306.00,99.88
3305.00,99.88
3304.00,99.88
3303.00,99.88
3302.00,99.89
3301.00,99.90
3300.00,99.90
3299.00,99.89
3298.00,99.88
3297.00,99.87
3296.00,99.86
3295.00,99.86
3294.00,99.86
3293.00,99.87
3292.00,99.89
3291.00,99.91
3290.00,99.92
3289.00,99.91
3288.00,99.88
3287.00,99.86
3286.00,99.85
3285.00,99.84
3284.00,99.83
3283.00,99.82
3282.00,99.80
3281.00,99.79
3280.00,99.80
3279.00,99.82
3278.00,99.84
3277.00,99.85
3276.00,99.84
3275.00,99.83
3274.00,99.82
3273.00,99.82
3272.00,99.83
3271.00,99.85
3270.00,99.85
3269.00,99.84
3268.00,99.82
3267.00,99.80
3266.00,99.79
3265.00,99.79
3264.00,99.79
3263.00,99.79
3262.00,99.79
3261.00,99.80
3260.00,99.80
3259.00,99.81
3258.00,99.83
3257.00,99.84
3256.00,99.84
3255.00,99.84
3254.00,99.84
3253.00,99.84
3252.00,99.84
3251.00,99.84
3250.00,99.84
3249.00,99.85
3248.00,99.86
3247.00,99.88
3246.00,99.88
3245.00,99.87
3244.00,99.87
3243.00,99.86
3242.00,99.84
3241.00,99.82
3240.00,99.80
3239.00,99.78
3238.00,99.78
3237.00,99.79
3236.00,99.80
3235.00,99.81
3234.00,99.83
3233.00,99.84
3232.00,99.85
3231.00,99.86
3230.00,99.86
3229.00,99.86
3228.00,99.86
3227.00,99.86
3226.00,99.85
3225.00,99.84
3224.00,99.82
3223.00,99.81
3222.00,99.78
3221.00,99.76
3220.00,99.73
3219.00,99.72
3218.00,99.71
3217.00,99.71
3216.00,99.70
3215.00,99.69
3214.00,99.68
3213.00,99.68
3212.00,99.68
3211.00,99.67
3210.00,99.66
3209.00,99.65
3208.00,99.65
3207.00,99.66
3206.00,99.68
3205.00,99.70
3204.00,99.72
3203.00,99.73
3202.00,99.72
3201.00,99.70
3200.00,99.68
3199.00,99.67
3198.00,99.66
3197.00,99.65
3196.00,99.66
3195.00,99.68
3194.00,99.69
3193.00,99.69
3192.00,99.69
3191.00,99.68
3190.00,99.69
3189.00,99.70
3188.00,99.72
3187.00,99.72
3186.00,99.73
3185.00,99.74
3184.00,99.75
3183.00,99.75
3182.00,99.74
3181.00,99.73
3180.00,99.71
3179.00,99.71
3178.00,99.71
3177.00,99.70
3176.00,99.69
3175.00,99.68
3174.00,99.67
3173.00,99.69
3172.00,99.71
3171.00,99.72
3170.00,99.71
3169.00,99.69
3168.00,99.66
3167.00,99.65
3166.00,99.66
3165.00,99.67
3164.00,99.68
3163.00,99.68
3162.00,99.67
3161.00,99.67
3160.00,99.69
3159.00,99.70
3158.00,99.71
3157.00,99.72
3156.00,99.74
3155.00,99.76
3154.00,99.79
3153.00,99.79
3152.00,99.78
3151.00,99.74
3150.00,99.71
3149.00,99.69
3148.00,99.69
3147.00,99.70
3146.00,99.72
3145.00,99.73
3144.00,99.72
3143.00,99.71
3142.00,99.70
3141.00,99.72
3140.00,99.74
3139.00,99.75
3138.00,99.75
3137.00,99.74
3136.00,99.74
3135.00,99.74
3134.00,99.75
3133.00,99.76
3132.00,99.77
3131.00,99.77
3130.00,99.76
3129.00,99.74
3128.00,99.74
3127.00,99.75
3126.00,99.77
3125.00,99.77
3124.00,99.77
3123.00,99.77
3122.00,99.77
3121.00,99.77
3120.00,99.77
3119.00,99.78
3118.00,99.78
3117.00,99.78
3116.00,99.78
3115.00,99.78
3114.00,99.78
3113.00,99.78
3112.00,99.78
3111.00,99.79
3110.00,99.79
3109.00,99.79
3108.00,99.79
3107.00,99.80
3106.00,99.79
3105.00,99.79
3104.00,99.79
3103.00,99.79
3102.00,99.80
3101.00,99.80
3100.00,99.80
3099.00,99.81
3098.00,99.83
3097.00,99.85
3096.00,99.86
3095.00,99.86
3094.00,99.84
3093.00,99.81
3092.00,99.79
3091.00,99.78
3090.00,99.79
3089.00,99.81
3088.00,99.81
3087.00,99.80
3086.00,99.80
3085.00,99.80
3084.00,99.81
3083.00,99.81
3082.00,99.80
3081.00,99.80
3080.00,99.80
3079.00,99.80
3078.00,99.81
3077.00,99.82
3076.00,99.82
3075.00,99.81
3074.00,99.79
3073.00,99.77
3072.00,99.75
3071.00,99.74
3070.00,99.74
3069.00,99.76
3068.00,99.78
3067.00,99.80
3066.00,99.82
3065.00,99.82
3064.00,99.81
3063.00,99.80
3062.00,99.79
3061.00,99.79
3060.00,99.79
3059.00,99.79
3058.00,99.79
3057.00,99.78
3056.00,99.76
3055.00,99.74
3054.00,99.74
3053.00,99.74
3052.00,99.75
3051.00,99.76
3050.00,99.75
3049.00,99.74
3048.00,99.74
3047.00,99.75
3046.00,99.76
3045.00,99.77
3044.00,99.78
3043.00,99.79
3042.00,99.79
3041.00,99.78
3040.00,99.78
3039.00,99.77
3038.00,99.77
3037.00,99.77
3036.00,99.77
3035.00,99.76
3034.00,99.75
3033.00,99.73
3032.00,99.72
3031.00,99.71
3030.00,99.71
3029.00,99.71
3028.00,99.71
3027.00,99.69
3026.00,99.66
3025.00,99.64
3024.00,99.62
3023.00,99.61
3022.00,99.61
3021.00,99.60
3020.00,99.59
3019.00,99.58
3018.00,99.57
3017.00,99.56
3016.00,99.54
3015.00,99.52
3014.00,99.51
3013.00,99.48
3012.00,99.45
3011.00,99.42
3010.00,99.39
3009.00,99.35
3008.00,99.32
3007.00,99.28
3006.00,99.26
3005.00,99.24
3004.00,99.21
3003.00,99.16
3002.00,99.10
3001.00,99.02
3000.00,98.95
2999.00,98.87
2998.00,98.79
2997.00,98.70
2996.00,98.62
2995.00,98.54
2994.00,98.45
2993.00,98.35
2992.00,98.24
2991.00,98.11
2990.00,97.98
2989.00,97.84
2988.00,97.68
2987.00,97.50
2986.00,97.30
2985.00,97.08
2984.00,96.83
2983.00,96.55
2982.00,96.24
2981.00,95.90
2980.00,95.52
2979.00,95.10
2978.00,94.64
2977.00,94.12
2976.00,93.53
2975.00,92.89
2974.00,92.19
2973.00,91.42
2972.00,90.56
2971.00,89.60
2970.00,88.56
2969.00,87.45
2968.00,86.28
2967.00,85.03
2966.00,83.75
2965.00,82.45
2964.00,81.21
2963.00,80.07
2962.00,79.08
2961.00,78.27
2960.00,77.62
2959.00,77.10
2958.00,76.65
2957.00,76.24
2956.00,75.84
2955.00,75.42
2954.00,74.99
2953.00,74.60
2952.00,74.31
2951.00,74.23
2950.00,74.42
2949.00,74.97
2948.00,75.86
2947.00,77.06
2946.00,78.49
2945.00,80.02
2944.00,81.53
2943.00,82.88
2942.00,83.98
2941.00,84.78
2940.00,85.28
2939.00,85.48
2938.00,85.43
2937.00,85.15
2936.00,84.68
2935.00,84.03
2934.00,83.22
2933.00,82.29
2932.00,81.27
2931.00,80.18
2930.00,79.05
2929.00,77.93
2928.00,76.84
2927.00,75.83
2926.00,74.89
2925.00,74.02
2924.00,73.19
2923.00,72.38
2922.00,71.60
2921.00,70.88
2920.00,70.27
2919.00,69.82
2918.00,69.59
2917.00,69.60
2916.00,69.84
2915.00,70.27
2914.00,70.82
2913.00,71.44
2912.00,72.08
2911.00,72.70
2910.00,73.29
2909.00,73.87
2908.00,74.46
2907.00,75.07
2906.00,75.70
2905.00,76.36
2904.00,77.05
2903.00,77.76
2902.00,78.49
2901.00,79.23
2900.00,79.98
2899.00,80.70
2898.00,81.38
2897.00,82.00
2896.00,82.56
2895.00,83.05
2894.00,83.48
2893.00,83.83
2892.00,84.11
2891.00,84.33
2890.00,84.48
2889.00,84.57
2888.00,84.60
2887.00,84.56
2886.00,84.47
2885.00,84.34
2884.00,84.16
2883.00,83.92
2882.00,83.65
2881.00,83.36
2880.00,83.08
2879.00,82.83
2878.00,82.65
2877.00,82.56
2876.00,82.56
2875.00,82.61
2874.00,82.65
2873.00,82.64
2872.00,82.56
2871.00,82.41
2870.00,82.24
2869.00,82.10
2868.00,82.08
2867.00,82.27
2866.00,82.75
2865.00,83.54
2864.00,84.60
2863.00,85.82
2862.00,87.08
2861.00,88.28
2860.00,89.32
2859.00,90.15
2858.00,90.78
2857.00,91.23
2856.00,91.53
2855.00,91.69
2854.00,91.72
2853.00,91.63
2852.00,91.43
2851.00,91.14
2850.00,90.76
2849.00,90.30
2848.00,89.74
2847.00,89.09
2846.00,88.34
2845.00,87.51
2844.00,86.62
2843.00,85.72
2842.00,84.83
2841.00,84.03
2840.00,83.40
2839.00,83.01
2838.00,82.95
2837.00,83.25
2836.00,83.92
2835.00,84.92
2834.00,86.15
2833.00,87.51
2832.00,88.88
2831.00,90.15
2830.00,91.26
2829.00,92.20
2828.00,92.97
2827.00,93.60
2826.00,94.12
2825.00,94.55
2824.00,94.90
2823.00,95.19
2822.00,95.44
2821.00,95.66
2820.00,95.86
2819.00,96.05
2818.00,96.21
2817.00,96.35
2816.00,96.46
2815.00,96.55
2814.00,96.64
2813.00,96.73
2812.00,96.83
2811.00,96.92
2810.00,97.00
2809.00,97.09
2808.00,97.18
2807.00,97.26
2806.00,97.34
2805.00,97.43
2804.00,97.51
2803.00,97.59
2802.00,97.67
2801.00,97.74
2800.00,97.81
2799.00,97.88
2798.00,97.93
2797.00,97.96
2796.00,97.99
2795.00,98.02
2794.00,98.06
2793.00,98.11
2792.00,98.17
2791.00,98.22
2790.00,98.26
2789.00,98.31
2788.00,98.36
2787.00,98.41
2786.00,98.46
2785.00,98.51
2784.00,98.55
2783.00,98.60
2782.00,98.65
2781.00,98.70
2780.00,98.75
2779.00,98.79
2778.00,98.81
2777.00,98.83
2776.00,98.85
2775.00,98.87
2774.00,98.89
2773.00,98.90
2772.00,98.90
2771.00,98.91
2770.00,98.91
2769.00,98.92
2768.00,98.92
2767.00,98.92
2766.00,98.93
2765.00,98.94
2764.00,98.96
2763.00,98.99
2762.00,99.01
2761.00,99.04
2760.00,99.05
2759.00,99.05
2758.00,99.05
2757.00,99.05
2756.00,99.05
2755.00,99.06
2754.00,99.06
2753.00,99.05
2752.00,99.04
2751.00,99.03
2750.00,99.02
2749.00,99.02
2748.00,99.03
2747.00,99.04
2746.00,99.04
2745.00,99.04
2744.00,99.02
2743.00,99.00
2742.00,98.97
2741.00,98.95
2740.00,98.93
2739.00,98.91
2738.00,98.88
2737.00,98.86
2736.00,98.84
2735.00,98.82
2734.00,98.80
2733.00,98.77
2732.00,98.75
2731.00,98.73
2730.00,98.70
2729.00,98.67
2728.00,98.64
2727.00,98.59
2726.00,98.52
2725.00,98.47
2724.00,98.43
2723.00,98.42
2722.00,98.44
2721.00,98.47
2720.00,98.53
2719.00,98.60
2718.00,98.66
2717.00,98.71
2716.00,98.76
2715.00,98.80
2714.00,98.85
2713.00,98.90
2712.00,98.93
2711.00,98.96
2710.00,98.99
2709.00,99.01
2708.00,99.03
2707.00,99.05
2706.00,99.07
2705.00,99.09
2704.00,99.10
2703.00,99.12
2702.00,99.13
2701.00,99.13
2700.00,99.14
2699.00,99.14
2698.00,99.15
2697.00,99.17
2696.00,99.18
2695.00,99.20
2694.00,99.22
2693.00,99.22
2692.00,99.21
2691.00,99.20
2690.00,99.18
2689.00,99.18
2688.00,99.18
2687.00,99.19
2686.00,99.19
2685.00,99.19
2684.00,99.19
2683.00,99.19
2682.00,99.19
2681.00,99.19
2680.00,99.18
2679.00,99.18
2678.00,99.17
2677.00,99.17
2676.00,99.18
2675.00,99.18
2674.00,99.18
2673.00,99.18
2672.00,99.18
2671.00,99.18
2670.00,99.19
2669.00,99.20
2668.00,99.21
2667.00,99.22
2666.00,99.21
2665.00,99.20
2664.00,99.18
2663.00,99.17
2662.00,99.17
2661.00,99.16
2660.00,99.14
2659.00,99.13
2658.00,99.11
2657.00,99.11
2656.00,99.12
2655.00,99.12
2654.00,99.13
2653.00,99.12
2652.00,99.11
2651.00,99.09
2650.00,99.08
2649.00,99.07
2648.00,99.07
2647.00,99.07
2646.00,99.08
2645.00,99.09
2644.00,99.09
2643.00,99.10
2642.00,99.09
2641.00,99.08
2640.00,99.06
2639.00,99.04
2638.00,99.03
2637.00,99.03
2636.00,99.03
2635.00,99.02
2634.00,98.99
2633.00,98.96
2632.00,98.94
2631.00,98.94
2630.00,98.95
2629.00,98.96
2628.00,98.96
2627.00,98.95
2626.00,98.92
2625.00,98.88
2624.00,98.86
2623.00,98.85
2622.00,98.86
2621.00,98.87
2620.00,98.87
2619.00,98.87
2618.00,98.86
2617.00,98.85
2616.00,98.83
2615.00,98.81
2614.00,98.79
2613.00,98.77
2612.00,98.77
2611.00,98.77
2610.00,98.78
2609.00,98.78
2608.00,98.78
2607.00,98.77
2606.00,98.77
2605.00,98.77
2604.00,98.77
2603.00,98.77
2602.00,98.78
2601.00,98.78
2600.00,98.76
2599.00,98.74
2598.00,98.73
2597.00,98.71
2596.00,98.69
2595.00,98.67
2594.00,98.65
2593.00,98.65
2592.00,98.66
2591.00,98.67
2590.00,98.68
2589.00,98.67
2588.00,98.64
2587.00,98.61
2586.00,98.58
2585.00,98.57
2584.00,98.56
2583.00,98.54
2582.00,98.51
2581.00,98.48
2580.00,98.46
2579.00,98.47
2578.00,98.49
2577.00,98.52
2576.00,98.55
2575.00,98.56
2574.00,98.56
2573.00,98.56
2572.00,98.56
2571.00,98.58
2570.00,98.59
2569.00,98.61
2568.00,98.62
2567.00,98.62
2566.00,98.61
2565.00,98.61
2564.00,98.63
2563.00,98.65
2562.00,98.67
2561.00,98.67
2560.00,98.66
2559.00,98.64
2558.00,98.64
2557.00,98.66
2556.00,98.68
2555.00,98.70
2554.00,98.70
2553.00,98.69
2552.00,98.67
2551.00,98.67
2550.00,98.67
2549.00,98.67
2548.00,98.68
2547.00,98.68
2546.00,98.68
2545.00,98.68
2544.00,98.69
2543.00,98.69
2542.00,98.70
2541.00,98.69
2540.00,98.68
2539.00,98.68
2538.00,98.67
2537.00,98.68
2536.00,98.70
2535.00,98.71
2534.00,98.72
2533.00,98.71
2532.00,98.69
2531.00,98.69
2530.00,98.71
2529.00,98.74
2528.00,98.77
2527.00,98.78
2526.00,98.78
2525.00,98.78
2524.00,98.79
2523.00,98.80
2522.00,98.82
2521.00,98.82
2520.00,98.80
2519.00,98.76
2518.00,98.74
2517.00,98.73
2516.00,98.73
2515.00,98.73
2514.00,98.72
2513.00,98.73
2512.00,98.74
2511.00,98.77
2510.00,98.79
2509.00,98.79
2508.00,98.78
2507.00,98.77
2506.00,98.78
2505.00,98.80
2504.00,98.83
2503.00,98.86
2502.00,98.87
2501.00,98.88
2500.00,98.89
2499.00,98.89
2498.00,98.88
2497.00,98.87
2496.00,98.86
2495.00,98.85
2494.00,98.84
2493.00,98.83
2492.00,98.82
2491.00,98.80
2490.00,98.78
2489.00,98.78
2488.00,98.79
2487.00,98.79
2486.00,98.79
2485.00,98.79
2484.00,98.79
2483.00,98.79
2482.00,98.80
2481.00,98.81
2480.00,98.82
2479.00,98.82
2478.00,98.82
2477.00,98.81
2476.00,98.81
2475.00,98.82
2474.00,98.82
2473.00,98.81
2472.00,98.80
2471.00,98.79
2470.00,98.80
2469.00,98.81
2468.00,98.81
2467.00,98.81
2466.00,98.81
2465.00,98.81
2464.00,98.82
2463.00,98.83
2462.00,98.84
2461.00,98.83
2460.00,98.83
2459.00,98.82
2458.00,98.81
2457.00,98.78
2456.00,98.76
2455.00,98.74
2454.00,98.74
2453.00,98.76
2452.00,98.78
2451.00,98.79
2450.00,98.80
2449.00,98.81
2448.00,98.82
2447.00,98.83
2446.00,98.83
2445.00,98.82
2444.00,98.80
2443.00,98.78
2442.00,98.78
2441.00,98.78
2440.00,98.80
2439.00,98.82
2438.00,98.84
2437.00,98.84
2436.00,98.84
2435.00,98.84
2434.00,98.84
2433.00,98.84
2432.00,98.84
2431.00,98.84
2430.00,98.85
2429.00,98.86
2428.00,98.86
2427.00,98.85
2426.00,98.82
2425.00,98.80
2424.00,98.79
2423.00,98.79
2422.00,98.80
2421.00,98.79
2420.00,98.80
2419.00,98.81
2418.00,98.84
2417.00,98.88
2416.00,98.92
2415.00,98.94
2414.00,98.96
2413.00,98.95
2412.00,98.94
2411.00,98.92
2410.00,98.91
2409.00,98.91
2408.00,98.91
2407.00,98.92
2406.00,98.92
2405.00,98.93
2404.00,98.95
2403.00,98.97
2402.00,99.00
2401.00,99.02
2400.00,99.03
2399.00,99.04
2398.00,99.02
2397.00,99.01
2396.00,99.00
2395.00,99.01
2394.00,99.03
2393.00,99.05
2392.00,99.07
2391.00,99.10
2390.00,99.12
2389.00,99.13
2388.00,99.12
2387.00,99.12
2386.00,99.14
2385.00,99.18
2384.00,99.22
2383.00,99.26
2382.00,99.30
2381.00,99.34
2380.00,99.38
2379.00,99.43
2378.00,99.51
2377.00,99.60
2376.00,99.68
2375.00,99.72
2374.00,99.73
2373.00,99.70
2372.00,99.67
2371.00,99.65
2370.00,99.66
2369.00,99.69
2368.00,99.73
2367.00,99.78
2366.00,99.85
2365.00,99.91
2364.00,99.95
2363.00,99.93
2362.00,99.88
2361.00,99.81
2360.00,99.79
2359.00,99.81
2358.00,99.86
2357.00,99.88
2356.00,99.85
2355.00,99.82
2354.00,99.83
2353.00,99.87
2352.00,99.92
2351.00,99.94
2350.00,99.92
2349.00,99.87
2348.00,99.85
2347.00,99.88
2346.00,99.98
2345.00,100.08
2344.00,100.12
2343.00,100.04
2342.00,99.91
2341.00,99.82
2340.00,99.79
2339.00,99.80
2338.00,99.81
2337.00,99.81
2336.00,99.78
2335.00,99.75
2334.00,99.72
2333.00,99.71
2332.00,99.71
2331.00,99.72
2330.00,99.70
2329.00,99.65
2328.00,99.58
2327.00,99.50
2326.00,99.42
2325.00,99.35
2324.00,99.31
2323.00,99.32
2322.00,99.35
2321.00,99.37
2320.00,99.37
2319.00,99.34
2318.00,99.30
2317.00,99.25
2316.00,99.23
2315.00,99.25
2314.00,99.28
2313.00,99.31
2312.00,99.33
2311.00,99.33
2310.00,99.30
2309.00,99.26
2308.00,99.21
2307.00,99.17
2306.00,99.15
2305.00,99.14
2304.00,99.12
2303.00,99.08
2302.00,99.04
2301.00,98.99
2300.00,98.95
2299.00,98.90
2298.00,98.84
2297.00,98.79
2296.00,98.76
2295.00,98.74
2294.00,98.72
2293.00,98.68
2292.00,98.63
2291.00,98.58
2290.00,98.54
2289.00,98.49
2288.00,98.43
2287.00,98.39
2286.00,98.36
2285.00,98.34
2284.00,98.32
2283.00,98.28
2282.00,98.24
2281.00,98.21
2280.00,98.20
2279.00,98.20
2278.00,98.20
2277.00,98.21
2276.00,98.20
2275.00,98.17
2274.00,98.13
2273.00,98.07
2272.00,98.01
2271.00,97.97
2270.00,97.97
2269.00,97.99
2268.00,98.01
2267.00,98.01
2266.00,98.01
2265.00,98.01
2264.00,98.00
2263.00,97.98
2262.00,97.94
2261.00,97.88
2260.00,97.79
2259.00,97.72
2258.00,97.67
2257.00,97.66
2256.00,97.68
2255.00,97.71
2254.00,97.73
2253.00,97.71
2252.00,97.66
2251.00,97.61
2250.00,97.58
2249.00,97.57
2248.00,97.59
2247.00,97.62
2246.00,97.63
2245.00,97.61
2244.00,97.57
2243.00,97.52
2242.00,97.47
2241.00,97.43
2240.00,97.40
2239.00,97.37
2238.00,97.36
2237.00,97.36
2236.00,97.38
2235.00,97.39
2234.00,97.38
2233.00,97.38
2232.00,97.38
2231.00,97.39
2230.00,97.40
2229.00,97.37
2228.00,97.32
2227.00,97.26
2226.00,97.21
2225.00,97.16
2224.00,97.14
2223.00,97.14
2222.00,97.16
2221.00,97.17
2220.00,97.16
2219.00,97.12
2218.00,97.08
2217.00,97.05
2216.00,97.02
2215.00,96.98
2214.00,96.94
2213.00,96.92
2212.00,96.93
2211.00,96.95
2210.00,96.94
2209.00,96.89
2208.00,96.85
2207.00,96.82
2206.00,96.81
2205.00,96.81
2204.00,96.81
2203.00,96.80
2202.00,96.77
2201.00,96.74
2200.00,96.69
2199.00,96.63
2198.00,96.57
2197.00,96.50
2196.00,96.47
2195.00,96.46
2194.00,96.48
2193.00,96.49
2192.00,96.48
2191.00,96.45
2190.00,96.41
2189.00,96.36
2188.00,96.29
2187.00,96.22
2186.00,96.15
2185.00,96.11
2184.00,96.09
2183.00,96.11
2182.00,96.15
2181.00,96.21
2180.00,96.25
2179.00,96.27
2178.00,96.26
2177.00,96.23
2176.00,96.20
2175.00,96.18
2174.00,96.17
2173.00,96.16
2172.00,96.12
2171.00,96.06
2170.00,96.00
2169.00,95.91
2168.00,95.81
2167.00,95.68
2166.00,95.56
2165.00,95.44
2164.00,95.31
2163.00,95.18
2162.00,95.05
2161.00,95.02
2160.00,95.14
2159.00,95.40
2158.00,95.72
2157.00,96.02
2156.00,96.25
2155.00,96.40
2154.00,96.48
2153.00,96.52
2152.00,96.52
2151.00,96.52
2150.00,96.53
2149.00,96.58
2148.00,96.66
2147.00,96.73
2146.00,96.81
2145.00,96.88
2144.00,96.99
2143.00,97.11
2142.00,97.21
2141.00,97.26
2140.00,97.26
2139.00,97.26
2138.00,97.27
2137.00,97.31
2136.00,97.39
2135.00,97.49
2134.00,97.59
2133.00,97.68
2132.00,97.72
2131.00,97.75
2130.00,97.75
2129.00,97.76
2128.00,97.78
2127.00,97.82
2126.00,97.86
2125.00,97.88
2124.00,97.88
2123.00,97.87
2122.00,97.88
2121.00,97.89
2120.00,97.90
2119.00,97.89
2118.00,97.87
2117.00,97.85
2116.00,97.82
2115.00,97.79
2114.00,97.77
2113.00,97.78
2112.00,97.80
2111.00,97.83
2110.00,97.83
2109.00,97.79
2108.00,97.74
2107.00,97.70
2106.00,97.69
2105.00,97.71
2104.00,97.73
2103.00,97.77
2102.00,97.80
2101.00,97.82
2100.00,97.81
2099.00,97.79
2098.00,97.79
2097.00,97.80
2096.00,97.83
2095.00,97.86
2094.00,97.89
2093.00,97.91
2092.00,97.90
2091.00,97.88
2090.00,97.83
2089.00,97.80
2088.00,97.79
2087.00,97.79
2086.00,97.78
2085.00,97.75
2084.00,97.73
2083.00,97.72
2082.00,97.71
2081.00,97.68
2080.00,97.64
2079.00,97.62
2078.00,97.61
2077.00,97.63
2076.00,97.63
2075.00,97.61
2074.00,97.56
2073.00,97.51
2072.00,97.48
2071.00,97.48
2070.00,97.48
2069.00,97.46
2068.00,97.43
2067.00,97.41
2066.00,97.41
2065.00,97.41
2064.00,97.42
2063.00,97.45
2062.00,97.46
2061.00,97.46
2060.00,97.41
2059.00,97.35
2058.00,97.30
2057.00,97.29
2056.00,97.30
2055.00,97.28
2054.00,97.20
2053.00,97.05
2052.00,96.88
2051.00,96.73
2050.00,96.62
2049.00,96.58
2048.00,96.59
2047.00,96.64
2046.00,96.69
2045.00,96.71
2044.00,96.69
2043.00,96.62
2042.00,96.51
2041.00,96.36
2040.00,96.23
2039.00,96.17
2038.00,96.16
2037.00,96.17
2036.00,96.18
2035.00,96.19
2034.00,96.23
2033.00,96.28
2032.00,96.32
2031.00,96.34
2030.00,96.35
2029.00,96.31
2028.00,96.22
2027.00,96.12
2026.00,96.05
2025.00,96.05
2024.00,96.08
2023.00,96.13
2022.00,96.15
2021.00,96.17
2020.00,96.22
2019.00,96.30
2018.00,96.37
2017.00,96.38
2016.00,96.32
2015.00,96.25
2014.00,96.21
2013.00,96.22
2012.00,96.27
2011.00,96.32
2010.00,96.38
2009.00,96.47
2008.00,96.57
2007.00,96.66
2006.00,96.70
2005.00,96.70
2004.00,96.69
2003.00,96.67
2002.00,96.66
2001.00,96.63
2000.00,96.57
1999.00,96.50
1998.00,96.45
1997.00,96.46
1996.00,96.53
1995.00,96.62
1994.00,96.69
1993.00,96.69
1992.00,96.67
1991.00,96.64
1990.00,96.64
1989.00,96.66
1988.00,96.66
1987.00,96.64
1986.00,96.61
1985.00,96.57
1984.00,96.51
1983.00,96.43
1982.00,96.32
1981.00,96.23
1980.00,96.17
1979.00,96.15
1978.00,96.14
1977.00,96.13
1976.00,96.13
1975.00,96.18
1974.00,96.26
1973.00,96.32
1972.00,96.36
1971.00,96.40
1970.00,96.46
1969.00,96.54
1968.00,96.62
1967.00,96.69
1966.00,96.76
1965.00,96.83
1964.00,96.90
1963.00,96.97
1962.00,97.03
1961.00,97.09
1960.00,97.16
1959.00,97.25
1958.00,97.32
1957.00,97.35
1956.00,97.34
1955.00,97.30
1954.00,97.28
1953.00,97.29
1952.00,97.33
1951.00,97.37
1950.00,97.42
1949.00,97.45
1948.00,97.47
1947.00,97.48
1946.00,97.49
1945.00,97.52
1944.00,97.56
1943.00,97.58
1942.00,97.60
1941.00,97.61
1940.00,97.66
1939.00,97.73
1938.00,97.81
1937.00,97.86
1936.00,97.87
1935.00,97.85
1934.00,97.85
1933.00,97.89
1932.00,97.96
1931.00,98.03
1930.00,98.09
1929.00,98.11
1928.00,98.10
1927.00,98.07
1926.00,98.04
1925.00,98.01
1924.00,98.01
1923.00,98.04
1922.00,98.07
1921.00,98.09
1920.00,98.12
1919.00,98.15
1918.00,98.19
1917.00,98.20
1916.00,98.20
1915.00,98.20
1914.00,98.20
1913.00,98.20
1912.00,98.19
1911.00,98.20
1910.00,98.22
1909.00,98.26
1908.00,98.29
1907.00,98.31
1906.00,98.32
1905.00,98.32
1904.00,98.33
1903.00,98.34
1902.00,98.35
1901.00,98.37
1900.00,98.39
1899.00,98.42
1898.00,98.44
1897.00,98.46
1896.00,98.46
1895.00,98.43
1894.00,98.40
1893.00,98.38
1892.00,98.39
1891.00,98.43
1890.00,98.46
1889.00,98.48
1888.00,98.48
1887.00,98.49
1886.00,98.50
1885.00,98.52
1884.00,98.53
1883.00,98.53
1882.00,98.52
1881.00,98.51
1880.00,98.51
1879.00,98.51
1878.00,98.51
1877.00,98.52
1876.00,98.53
1875.00,98.54
1874.00,98.56
1873.00,98.59
1872.00,98.61
1871.00,98.63
1870.00,98.63
1869.00,98.63
1868.00,98.61
1867.00,98.60
1866.00,98.59
1865.00,98.59
1864.00,98.60
1863.00,98.61
1862.00,98.62
1861.00,98.63
1860.00,98.64
1859.00,98.66
1858.00,98.68
1857.00,98.70
1856.00,98.70
1855.00,98.71
1854.00,98.72
1853.00,98.74
1852.00,98.75
1851.00,98.77
1850.00,98.77
1849.00,98.76
1848.00,98.74
1847.00,98.73
1846.00,98.73
1845.00,98.72
1844.00,98.70
1843.00,98.68
1842.00,98.70
1841.00,98.73
1840.00,98.78
1839.00,98.81
1838.00,98.81
1837.00,98.80
1836.00,98.77
1835.00,98.76
1834.00,98.76
1833.00,98.78
1832.00,98.81
1831.00,98.83
1830.00,98.83
1829.00,98.81
1828.00,98.79
1827.00,98.77
1826.00,98.77
1825.00,98.78
1824.00,98.80
1823.00,98.82
1822.00,98.84
1821.00,98.86
1820.00,98.88
1819.00,98.91
1818.00,98.94
1817.00,98.96
1816.00,98.96
1815.00,98.95
1814.00,98.94
1813.00,98.93
1812.00,98.92
1811.00,98.93
1810.00,98.93
1809.00,98.93
1808.00,98.93
1807.00,98.93
1806.00,98.93
1805.00,98.93
1804.00,98.93
1803.00,98.93
1802.00,98.93
1801.00,98.92
1800.00,98.92
1799.00,98.92
1798.00,98.92
1797.00,98.93
1796.00,98.93
1795.00,98.94
1794.00,98.95
1793.00,98.95
1792.00,98.94
1791.00,98.95
1790.00,98.96
1789.00,98.96
1788.00,98.96
1787.00,98.96
1786.00,98.95
1785.00,98.95
1784.00,98.95
1783.00,98.95
1782.00,98.94
1781.00,98.92
1780.00,98.91
1779.00,98.91
1778.00,98.92
1777.00,98.93
1776.00,98.93
1775.00,98.93
1774.00,98.91
1773.00,98.90
1772.00,98.89
1771.00,98.88
1770.00,98.88
1769.00,98.87
1768.00,98.85
1767.00,98.82
1766.00,98.80
1765.00,98.77
1764.00,98.76
1763.00,98.77
1762.00,98.78
1761.00,98.78
1760.00,98.75
1759.00,98.72
1758.00,98.69
1757.00,98.68
1756.00,98.67
1755.00,98.66
1754.00,98.65
1753.00,98.65
1752.00,98.64
1751.00,98.64
1750.00,98.65
1749.00,98.64
1748.00,98.62
1747.00,98.59
1746.00,98.58
1745.00,98.58
1744.00,98.57
1743.00,98.56
1742.00,98.55
1741.00,98.53
1740.00,98.52
1739.00,98.50
1738.00,98.48
1737.00,98.47
1736.00,98.48
1735.00,98.49
1734.00,98.50
1733.00,98.48
1732.00,98.45
1731.00,98.43
1730.00,98.42
1729.00,98.42
1728.00,98.44
1727.00,98.45
1726.00,98.46
1725.00,98.46
1724.00,98.46
1723.00,98.45
1722.00,98.46
1721.00,98.47
1720.00,98.48
1719.00,98.49
1718.00,98.49
1717.00,98.48
1716.00,98.46
1715.00,98.45
1714.00,98.45
1713.00,98.45
1712.00,98.45
1711.00,98.46
1710.00,98.48
1709.00,98.50
1708.00,98.51
1707.00,98.50
1706.00,98.50
1705.00,98.50
1704.00,98.51
1703.00,98.52
1702.00,98.52
1701.00,98.52
1700.00,98.52
1699.00,98.52
1698.00,98.52
1697.00,98.53
1696.00,98.54
1695.00,98.56
1694.00,98.57
1693.00,98.57
1692.00,98.58
1691.00,98.59
1690.00,98.60
1689.00,98.60
1688.00,98.59
1687.00,98.58
1686.00,98.57
1685.00,98.57
1684.00,98.57
1683.00,98.58
1682.00,98.59
1681.00,98.59
1680.00,98.59
1679.00,98.58
1678.00,98.57
1677.00,98.57
1676.00,98.56
1675.00,98.56
1674.00,98.55
1673.00,98.54
1672.00,98.54
1671.00,98.53
1670.00,98.52
1669.00,98.51
1668.00,98.51
1667.00,98.52
1666.00,98.53
1665.00,98.54
1664.00,98.55
1663.00,98.56
1662.00,98.56
1661.00,98.54
1660.00,98.53
1659.00,98.52
1658.00,98.51
1657.00,98.49
1656.00,98.47
1655.00,98.45
1654.00,98.44
1653.00,98.45
1652.00,98.44
1651.00,98.41
1650.00,98.38
1649.00,98.35
1648.00,98.33
1647.00,98.33
1646.00,98.36
1645.00,98.38
1644.00,98.39
1643.00,98.41
1642.00,98.43
1641.00,98.45
1640.00,98.47
1639.00,98.48
1638.00,98.49
1637.00,98.49
1636.00,98.51
1635.00,98.53
1634.00,98.54
1633.00,98.53
1632.00,98.53
1631.00,98.54
1630.00,98.55
1629.00,98.56
1628.00,98.56
1627.00,98.57
1626.00,98.57
1625.00,98.58
1624.00,98.59
1623.00,98.62
1622.00,98.63
1621.00,98.62
1620.00,98.60
1619.00,98.59
1618.00,98.59
1617.00,98.61
1616.00,98.62
1615.00,98.62
1614.00,98.61
1613.00,98.60
1612.00,98.60
1611.00,98.61
1610.00,98.61
1609.00,98.61
1608.00,98.60
1607.00,98.60
1606.00,98.61
1605.00,98.64
1604.00,98.66
1603.00,98.67
1602.00,98.68
1601.00,98.68
1600.00,98.67
1599.00,98.66
1598.00,98.66
1597.00,98.66
1596.00,98.66
1595.00,98.67
1594.00,98.67
1593.00,98.66
1592.00,98.67
1591.00,98.68
1590.00,98.70
1589.00,98.72
1588.00,98.72
1587.00,98.72
1586.00,98.72
1585.00,98.72
1584.00,98.72
1583.00,98.73
1582.00,98.73
1581.00,98.72
1580.00,98.71
1579.00,98.70
1578.00,98.71
1577.00,98.72
1576.00,98.71
1575.00,98.69
1574.00,98.67
1573.00,98.66
1572.00,98.65
1571.00,98.65
1570.00,98.65
1569.00,98.65
1568.00,98.63
1567.00,98.62
1566.00,98.61
1565.00,98.61
1564.00,98.60
1563.00,98.61
1562.00,98.62
1561.00,98.61
1560.00,98.60
1559.00,98.59
1558.00,98.61
1557.00,98.62
1556.00,98.62
1555.00,98.61
1554.00,98.59
1553.00,98.58
1552.00,98.58
1551.00,98.59
1550.00,98.60
1549.00,98.60
1548.00,98.59
1547.00,98.59
1546.00,98.58
1545.00,98.57
1544.00,98.57
1543.00,98.58
1542.00,98.59
1541.00,98.59
1540.00,98.58
1539.00,98.58
1538.00,98.57
1537.00,98.54
1536.00,98.52
1535.00,98.50
1534.00,98.48
1533.00,98.47
1532.00,98.47
1531.00,98.47
1530.00,98.47
1529.00,98.45
1528.00,98.42
1527.00,98.39
1526.00,98.36
1525.00,98.35
1524.00,98.33
1523.00,98.33
1522.00,98.31
1521.00,98.29
1520.00,98.26
1519.00,98.25
1518.00,98.26
1517.00,98.27
1516.00,98.27
1515.00,98.26
1514.00,98.26
1513.00,98.25
1512.00,98.25
1511.00,98.25
1510.00,98.25
1509.00,98.24
1508.00,98.21
1507.00,98.20
1506.00,98.20
1505.00,98.19
1504.00,98.17
1503.00,98.14
1502.00,98.11
1501.00,98.07
1500.00,98.02
1499.00,97.98
1498.00,97.94
1497.00,97.89
1496.00,97.83
1495.00,97.78
1494.00,97.74
1493.00,97.69
1492.00,97.63
1491.00,97.55
1490.00,97.46
1489.00,97.35
1488.00,97.24
1487.00,97.15
1486.00,97.07
1485.00,96.98
1484.00,96.87
1483.00,96.76
1482.00,96.62
1481.00,96.44
1480.00,96.24
1479.00,96.03
1478.00,95.78
1477.00,95.46
1476.00,95.08
1475.00,94.64
1474.00,94.06
1473.00,93.29
1472.00,92.37
1471.00,91.45
1470.00,90.55
1469.00,89.60
1468.00,88.59
1467.00,87.53
1466.00,86.37
1465.00,85.16
1464.00,84.05
1463.00,83.18
1462.00,82.54
1461.00,82.04
1460.00,81.67
1459.00,81.40
1458.00,81.16
1457.00,80.94
1456.00,80.81
1455.00,80.78
1454.00,80.84
1453.00,80.98
1452.00,81.25
1451.00,81.67
1450.00,82.29
1449.00,83.16
1448.00,84.29
1447.00,85.57
1446.00,86.81
1445.00,87.92
1444.00,88.89
1443.00,89.70
1442.00,90.32
1441.00,90.76
1440.00,91.04
1439.00,91.19
1438.00,91.25
1437.00,91.31
1436.00,91.49
1435.00,91.85
1434.00,92.37
1433.00,93.01
1432.00,93.69
1431.00,94.30
1430.00,94.79
1429.00,95.17
1428.00,95.45
1427.00,95.65
1426.00,95.82
1425.00,95.98
1424.00,96.12
1423.00,96.22
1422.00,96.28
1421.00,96.35
1420.00,96.41
1419.00,96.47
1418.00,96.52
1417.00,96.57
1416.00,96.63
1415.00,96.67
1414.00,96.71
1413.00,96.76
1412.00,96.80
1411.00,96.83
1410.00,96.85
1409.00,96.88
1408.00,96.90
1407.00,96.90
1406.00,96.90
1405.00,96.91
1404.00,96.93
1403.00,96.94
1402.00,96.95
1401.00,96.95
1400.00,96.94
1399.00,96.91
1398.00,96.87
1397.00,96.85
1396.00,96.82
1395.00,96.76
1394.00,96.68
1393.00,96.60
1392.00,96.52
1391.00,96.40
1390.00,96.23
1389.00,96.00
1388.00,95.64
1387.00,95.09
1386.00,94.31
1385.00,93.26
1384.00,91.86
1383.00,90.00
1382.00,87.67
1381.00,84.90
1380.00,81.77
1379.00,78.53
1378.00,75.67
1377.00,73.72
1376.00,73.13
1375.00,74.07
1374.00,76.34
1373.00,79.29
1372.00,82.29
1371.00,85.01
1370.00,87.34
1369.00,89.21
1368.00,90.60
1367.00,91.53
1366.00,92.08
1365.00,92.35
1364.00,92.40
1363.00,92.29
1362.00,92.07
1361.00,91.82
1360.00,91.62
1359.00,91.57
1358.00,91.72
1357.00,92.07
1356.00,92.56
1355.00,93.11
1354.00,93.66
1353.00,94.14
1352.00,94.54
1351.00,94.87
1350.00,95.14
1349.00,95.36
1348.00,95.55
1347.00,95.71
1346.00,95.85
1345.00,95.97
1344.00,96.08
1343.00,96.17
1342.00,96.25
1341.00,96.30
1340.00,96.34
1339.00,96.38
1338.00,96.41
1337.00,96.44
1336.00,96.45
1335.00,96.44
1334.00,96.41
1333.00,96.37
1332.00,96.32
1331.00,96.28
1330.00,96.25
1329.00,96.26
1328.00,96.30
1327.00,96.36
1326.00,96.43
1325.00,96.51
1324.00,96.59
1323.00,96.67
1322.00,96.74
1321.00,96.80
1320.00,96.85
1319.00,96.87
1318.00,96.89
1317.00,96.90
1316.00,96.92
1315.00,96.94
1314.00,96.95
1313.00,96.96
1312.00,96.94
1311.00,96.91
1310.00,96.85
1309.00,96.75
1308.00,96.59
1307.00,96.39
1306.00,96.20
1305.00,96.07
1304.00,96.02
1303.00,96.06
1302.00,96.13
1301.00,96.21
1300.00,96.25
1299.00,96.27
1298.00,96.28
1297.00,96.28
1296.00,96.30
1295.00,96.32
1294.00,96.37
1293.00,96.43
1292.00,96.50
1291.00,96.59
1290.00,96.67
1289.00,96.73
1288.00,96.78
1287.00,96.82
1286.00,96.85
1285.00,96.88
1284.00,96.91
1283.00,96.94
1282.00,96.96
1281.00,96.97
1280.00,96.99
1279.00,97.02
1278.00,97.04
1277.00,97.06
1276.00,97.09
1275.00,97.11
1274.00,97.13
1273.00,97.14
1272.00,97.14
1271.00,97.13
1270.00,97.12
1269.00,97.11
1268.00,97.11
1267.00,97.10
1266.00,97.07
1265.00,97.03
1264.00,96.98
1263.00,96.93
1262.00,96.86
1261.00,96.77
1260.00,96.64
1259.00,96.48
1258.00,96.32
1257.00,96.18
1256.00,96.11
1255.00,96.11
1254.00,96.19
1253.00,96.32
1252.00,96.45
1251.00,96.56
1250.00,96.66
1249.00,96.73
1248.00,96.79
1247.00,96.84
1246.00,96.88
1245.00,96.91
1244.00,96.94
1243.00,96.96
1242.00,96.98
1241.00,97.01
1240.00,97.03
1239.00,97.05
1238.00,97.07
1237.00,97.09
1236.00,97.10
1235.00,97.11
1234.00,97.12
1233.00,97.13
1232.00,97.14
1231.00,97.15
1230.00,97.14
1229.00,97.13
1228.00,97.12
1227.00,97.10
1226.00,97.08
1225.00,97.04
1224.00,97.01
1223.00,96.96
1222.00,96.91
1221.00,96.86
1220.00,96.82
1219.00,96.80
1218.00,96.80
1217.00,96.81
1216.00,96.85
1215.00,96.89
1214.00,96.94
1213.00,96.98
1212.00,97.02
1211.00,97.05
1210.00,97.08
1209.00,97.12
1208.00,97.17
1207.00,97.21
1206.00,97.24
1205.00,97.25
1204.00,97.25
1203.00,97.26
1202.00,97.27
1201.00,97.28
1200.00,97.29
1199.00,97.30
1198.00,97.31
1197.00,97.34
1196.00,97.37
1195.00,97.39
1194.00,97.40
1193.00,97.39
1192.00,97.37
1191.00,97.34
1190.00,97.30
1189.00,97.27
1188.00,97.26
1187.00,97.25
1186.00,97.24
1185.00,97.21
1184.00,97.16
1183.00,97.09
1182.00,97.02
1181.00,96.94
1180.00,96.85
1179.00,96.72
1178.00,96.55
1177.00,96.33
1176.00,96.05
1175.00,95.72
1174.00,95.31
1173.00,94.83
1172.00,94.29
1171.00,93.74
1170.00,93.23
1169.00,92.82
1168.00,92.54
1167.00,92.42
1166.00,92.44
1165.00,92.56
1164.00,92.73
1163.00,92.92
1162.00,93.11
1161.00,93.26
1160.00,93.36
1159.00,93.41
1158.00,93.42
1157.00,93.41
1156.00,93.39
1155.00,93.37
1154.00,93.35
1153.00,93.35
1152.00,93.38
1151.00,93.45
1150.00,93.56
1149.00,93.68
1148.00,93.81
1147.00,93.92
1146.00,94.03
1145.00,94.13
1144.00,94.23
1143.00,94.32
1142.00,94.39
1141.00,94.44
1140.00,94.47
1139.00,94.49
1138.00,94.53
1137.00,94.57
1136.00,94.59
1135.00,94.60
1134.00,94.58
1133.00,94.55
1132.00,94.51
1131.00,94.49
1130.00,94.47
1129.00,94.47
1128.00,94.47
1127.00,94.47
1126.00,94.46
1125.00,94.44
1124.00,94.40
1123.00,94.35
1122.00,94.29
1121.00,94.23
1120.00,94.18
1119.00,94.13
1118.00,94.08
1117.00,94.03
1116.00,94.00
1115.00,93.97
1114.00,93.94
1113.00,93.91
1112.00,93.87
1111.00,93.85
1110.00,93.83
1109.00,93.80
1108.00,93.74
1107.00,93.67
1106.00,93.58
1105.00,93.48
1104.00,93.38
1103.00,93.32
1102.00,93.32
1101.00,93.39
1100.00,93.53
1099.00,93.70
1098.00,93.87
1097.00,94.01
1096.00,94.11
1095.00,94.16
1094.00,94.20
1093.00,94.26
1092.00,94.34
1091.00,94.45
1090.00,94.58
1089.00,94.68
1088.00,94.76
1087.00,94.82
1086.00,94.87
1085.00,94.94
1084.00,95.02
1083.00,95.12
1082.00,95.22
1081.00,95.30
1080.00,95.33
1079.00,95.36
1078.00,95.40
1077.00,95.45
1076.00,95.51
1075.00,95.59
1074.00,95.68
1073.00,95.77
1072.00,95.84
1071.00,95.87
1070.00,95.90
1069.00,95.94
1068.00,95.98
1067.00,96.02
1066.00,96.06
1065.00,96.11
1064.00,96.14
1063.00,96.17
1062.00,96.19
1061.00,96.20
1060.00,96.21
1059.00,96.22
1058.00,96.25
1057.00,96.30
1056.00,96.35
1055.00,96.38
1054.00,96.39
1053.00,96.40
1052.00,96.42
1051.00,96.43
1050.00,96.41
1049.00,96.34
1048.00,96.26
1047.00,96.18
1046.00,96.14
1045.00,96.14
1044.00,96.18
1043.00,96.23
1042.00,96.26
1041.00,96.27
1040.00,96.27
1039.00,96.30
1038.00,96.35
1037.00,96.42
1036.00,96.49
1035.00,96.54
1034.00,96.58
1033.00,96.62
1032.00,96.66
1031.00,96.70
1030.00,96.72
1029.00,96.73
1028.00,96.74
1027.00,96.75
1026.00,96.76
1025.00,96.79
1024.00,96.82
1023.00,96.83
1022.00,96.82
1021.00,96.80
1020.00,96.76
1019.00,96.71
1018.00,96.65
1017.00,96.61
1016.00,96.59
1015.00,96.59
1014.00,96.60
1013.00,96.58
1012.00,96.54
1011.00,96.48
1010.00,96.39
1009.00,96.29
1008.00,96.18
1007.00,96.06
1006.00,95.92
1005.00,95.72
1004.00,95.42
1003.00,95.00
1002.00,94.43
1001.00,93.75
1000.00,93.07
999.00,92.51
998.00,92.24
997.00,92.33
996.00,92.74
995.00,93.36
994.00,94.02
993.00,94.63
992.00,95.12
991.00,95.48
990.00,95.74
989.00,95.92
988.00,96.03
987.00,96.09
986.00,96.12
985.00,96.11
984.00,96.07
983.00,95.95
982.00,95.73
981.00,95.42
980.00,94.98
979.00,94.39
978.00,93.66
977.00,92.84
976.00,92.01
975.00,91.29
974.00,90.80
973.00,90.65
972.00,90.89
971.00,91.47
970.00,92.27
969.00,93.11
968.00,93.87
967.00,94.48
966.00,94.94
965.00,95.28
964.00,95.53
963.00,95.72
962.00,95.87
961.00,96.00
960.00,96.12
959.00,96.23
958.00,96.31
957.00,96.38
956.00,96.43
955.00,96.46
954.00,96.49
953.00,96.51
952.00,96.53
951.00,96.53
950.00,96.53
949.00,96.53
948.00,96.54
947.00,96.55
946.00,96.55
945.00,96.53
944.00,96.50
943.00,96.45
942.00,96.40
941.00,96.36
940.00,96.35
939.00,96.38
938.00,96.45
937.00,96.54
936.00,96.62
935.00,96.68
934.00,96.72
933.00,96.77
932.00,96.82
931.00,96.87
930.00,96.89
929.00,96.90
928.00,96.89
927.00,96.89
926.00,96.89
925.00,96.89
924.00,96.90
923.00,96.92
922.00,96.96
921.00,96.99
920.00,97.02
919.00,97.03
918.00,97.03
917.00,97.03
916.00,97.04
915.00,97.04
914.00,97.04
913.00,97.03
912.00,97.02
911.00,97.00
910.00,96.97
909.00,96.92
908.00,96.84
907.00,96.72
906.00,96.57
905.00,96.36
904.00,96.08
903.00,95.75
902.00,95.41
901.00,95.11
900.00,94.92
899.00,94.87
898.00,94.98
897.00,95.22
896.00,95.51
895.00,95.79
894.00,96.02
893.00,96.20
892.00,96.32
891.00,96.41
890.00,96.49
889.00,96.55
888.00,96.60
887.00,96.64
886.00,96.64
885.00,96.62
884.00,96.60
883.00,96.60
882.00,96.62
881.00,96.62
880.00,96.62
879.00,96.59
878.00,96.57
877.00,96.55
876.00,96.53
875.00,96.49
874.00,96.43
873.00,96.38
872.00,96.38
871.00,96.45
870.00,96.55
869.00,96.64
868.00,96.69
867.00,96.71
866.00,96.71
865.00,96.71
864.00,96.69
863.00,96.67
862.00,96.65
861.00,96.63
860.00,96.61
859.00,96.59
858.00,96.57
857.00,96.55
856.00,96.52
855.00,96.49
854.00,96.45
853.00,96.39
852.00,96.31
851.00,96.22
850.00,96.13
849.00,96.02
848.00,95.85
847.00,95.59
846.00,95.19
845.00,94.64
844.00,93.93
843.00,93.17
842.00,92.61
841.00,92.45
840.00,92.76
839.00,93.40
838.00,94.14
837.00,94.78
836.00,95.25
835.00,95.55
834.00,95.73
833.00,95.84
832.00,95.92
831.00,95.98
830.00,96.05
829.00,96.12
828.00,96.19
827.00,96.24
826.00,96.28
825.00,96.31
824.00,96.34
823.00,96.37
822.00,96.38
821.00,96.37
820.00,96.32
819.00,96.25
818.00,96.18
817.00,96.11
816.00,96.02
815.00,95.86
814.00,95.62
813.00,95.31
812.00,94.97
811.00,94.67
810.00,94.50
809.00,94.46
808.00,94.54
807.00,94.70
806.00,94.91
805.00,95.15
804.00,95.40
803.00,95.62
802.00,95.81
801.00,95.95
800.00,96.06
799.00,96.15
798.00,96.23
797.00,96.31
796.00,96.39
795.00,96.46
794.00,96.52
793.00,96.59
792.00,96.64
791.00,96.70
790.00,96.74
789.00,96.78
788.00,96.81
787.00,96.82
786.00,96.84
785.00,96.86
784.00,96.88
783.00,96.92
782.00,96.94
781.00,96.96
780.00,96.96
779.00,96.95
778.00,96.95
777.00,96.97
776.00,97.00
775.00,97.04
774.00,97.08
773.00,97.11
772.00,97.14
771.00,97.18
770.00,97.21
769.00,97.21
768.00,97.17
767.00,97.14
766.00,97.15
765.00,97.20
764.00,97.24
763.00,97.26
762.00,97.25
761.00,97.26
760.00,97.29
759.00,97.33
758.00,97.35
757.00,97.36
756.00,97.35
755.00,97.35
754.00,97.36
753.00,97.37
752.00,97.34
751.00,97.30
750.00,97.27
749.00,97.27
748.00,97.28
747.00,97.27
746.00,97.25
745.00,97.26
744.00,97.28
743.00,97.30
742.00,97.32
741.00,97.33
740.00,97.34
739.00,97.34
738.00,97.31
737.00,97.29
736.00,97.29
735.00,97.31
734.00,97.31
733.00,97.31
732.00,97.28
731.00,97.26
730.00,97.23
729.00,97.21
728.00,97.18
727.00,97.14
726.00,97.10
725.00,97.08
724.00,97.08
723.00,97.10
722.00,97.14
721.00,97.18
720.00,97.18
719.00,97.17
718.00,97.16
717.00,97.19
716.00,97.23
715.00,97.24
714.00,97.23
713.00,97.21
712.00,97.22
711.00,97.22
710.00,97.20
709.00,97.18
708.00,97.17
707.00,97.20
706.00,97.26
705.00,97.32
704.00,97.36
703.00,97.36
702.00,97.35
701.00,97.33
700.00,97.33
699.00,97.33
698.00,97.33
697.00,97.30
696.00,97.25
695.00,97.21
694.00,97.21
693.00,97.24
692.00,97.29
691.00,97.35
690.00,97.40
689.00,97.40
688.00,97.38
687.00,97.34
686.00,97.31
685.00,97.30
684.00,97.30
683.00,97.33
682.00,97.38
681.00,97.44
680.00,97.48
679.00,97.47
678.00,97.44
677.00,97.41
676.00,97.41
675.00,97.42
674.00,97.43
673.00,97.40
672.00,97.34
671.00,97.28
670.00,97.25
669.00,97.29
668.00,97.31
667.00,97.17
666.00,97.03
665.00,97.08
664.00,97.21
663.00,97.30
662.00,97.34
661.00,97.37
660.00,97.40
659.00,97.41
658.00,97.38
657.00,97.33
656.00,97.28
655.00,97.25
654.00,97.26
653.00,97.32
652.00,97.41
651.00,97.46
650.00,97.43
649.00,97.38
648.00,97.38
647.00,97.47
646.00,97.54
645.00,97.52
644.00,97.36
643.00,97.11
642.00,96.87
641.00,96.75
640.00,96.73
639.00,96.74
638.00,96.74
637.00,96.74
636.00,96.78
635.00,96.88
634.00,96.97
633.00,97.01
632.00,96.99
631.00,96.98
630.00,97.05
629.00,97.23
628.00,97.46
627.00,97.64
626.00,97.71
625.00,97.65
624.00,97.48
623.00,97.25
622.00,97.05
621.00,96.96
620.00,96.99
619.00,97.10
618.00,97.31
617.00,97.64
616.00,97.98
615.00,98.16
614.00,98.14
613.00,98.02
612.00,97.81
611.00,97.49
610.00,97.10
609.00,96.82
608.00,96.77
607.00,96.87
606.00,96.93
605.00,96.83
604.00,96.56
603.00,96.15
602.00,95.69
601.00,95.36
600.00,95.39
599.00,95.82
598.00,96.45
597.00,96.90
596.00,96.99
595.00,96.80
594.00,96.62
593.00,96.61
592.00,96.74
591.00,96.84
590.00,96.88
589.00,96.94
588.00,97.08
587.00,97.25
586.00,97.32
585.00,97.23
584.00,97.06
583.00,96.91
582.00,96.84
581.00,96.79
580.00,96.64
579.00,96.45
578.00,96.37
577.00,96.46
576.00,96.52
575.00,96.44
574.00,96.43
573.00,96.70
572.00,97.13
571.00,97.35
570.00,97.25
569.00,97.16
568.00,97.34
567.00,97.66
566.00,97.87
565.00,97.93
564.00,97.94
563.00,97.90
562.00,97.72
561.00,97.30
560.00,96.69
559.00,96.16
558.00,96.14
557.00,96.71
556.00,97.30
555.00,97.16
554.00,96.26
553.00,95.37
552.00,95.27
551.00,95.83
550.00,96.37
