Created as New Dataset,126 Shaw Industries (Green)
cm-1,%T
4000.00,101.16
3999.00,101.14
3998.00,101.12
3997.00,101.09
3996.00,101.08
3995.00,101.08
3994.00,101.08
3993.00,101.08
3992.00,101.07
3991.00,101.05
3990.00,101.03
3989.00,101.03
3988.00,101.05
3987.00,101.08
3986.00,101.10
3985.00,101.11
3984.00,101.12
3983.00,101.12
3982.00,101.12
3981.00,101.10
3980.00,101.07
3979.00,101.05
3978.00,101.04
3977.00,101.04
3976.00,101.06
3975.00,101.08
3974.00,101.09
3973.00,101.10
3972.00,101.09
3971.00,101.06
3970.00,101.04
3969.00,101.03
3968.00,101.04
3967.00,101.08
3966.00,101.12
3965.00,101.15
3964.00,101.16
3963.00,101.15
3962.00,101.14
3961.00,101.12
3960.00,101.12
3959.00,101.13
3958.00,101.14
3957.00,101.15
3956.00,101.14
3955.00,101.14
3954.00,101.13
3953.00,101.12
3952.00,101.12
3951.00,101.11
3950.00,101.11
3949.00,101.10
3948.00,101.10
3947.00,101.10
3946.00,101.09
3945.00,101.09
3944.00,101.08
3943.00,101.07
3942.00,101.07
3941.00,101.08
3940.00,101.10
3939.00,101.11
3938.00,101.11
3937.00,101.11
3936.00,101.10
3935.00,101.09
3934.00,101.07
3933.00,101.05
3932.00,101.03
3931.00,101.01
3930.00,101.01
3929.00,101.02
3928.00,101.03
3927.00,101.03
3926.00,101.02
3925.00,101.02
3924.00,101.01
3923.00,101.01
3922.00,101.01
3921.00,101.01
3920.00,101.02
3919.00,101.03
3918.00,101.04
3917.00,101.05
3916.00,101.05
3915.00,101.05
3914.00,101.05
3913.00,101.05
3912.00,101.06
3911.00,101.07
3910.00,101.08
3909.00,101.07
3908.00,101.07
3907.00,101.06
3906.00,101.05
3905.00,101.05
3904.00,101.05
3903.00,101.05
3902.00,101.05
3901.00,101.06
3900.00,101.08
3899.00,101.10
3898.00,101.10
3897.00,101.10
3896.00,101.08
3895.00,101.06
3894.00,101.04
3893.00,101.05
3892.00,101.06
3891.00,101.08
3890.00,101.10
3889.00,101.12
3888.00,101.13
3887.00,101.11
3886.00,101.08
3885.00,101.06
3884.00,101.05
3883.00,101.05
3882.00,101.05
3881.00,101.05
3880.00,101.05
3879.00,101.06
3878.00,101.05
3877.00,101.04
3876.00,101.03
3875.00,101.02
3874.00,101.02
3873.00,101.03
3872.00,101.04
3871.00,101.03
3870.00,101.03
3869.00,101.03
3868.00,101.04
3867.00,101.04
3866.00,101.04
3865.00,101.03
3864.00,101.03
3863.00,101.04
3862.00,101.04
3861.00,101.05
3860.00,101.06
3859.00,101.09
3858.00,101.12
3857.00,101.16
3856.00,101.17
3855.00,101.15
3854.00,101.08
3853.00,101.02
3852.00,101.00
3851.00,100.99
3850.00,100.98
3849.00,100.99
3848.00,101.01
3847.00,101.05
3846.00,101.09
3845.00,101.12
3844.00,101.16
3843.00,101.18
3842.00,101.20
3841.00,101.19
3840.00,101.16
3839.00,101.12
3838.00,101.09
3837.00,101.08
3836.00,101.09
3835.00,101.10
3834.00,101.12
3833.00,101.12
3832.00,101.12
3831.00,101.11
3830.00,101.11
3829.00,101.11
3828.00,101.11
3827.00,101.10
3826.00,101.08
3825.00,101.07
3824.00,101.06
3823.00,101.06
3822.00,101.07
3821.00,101.07
3820.00,101.07
3819.00,101.06
3818.00,101.02
3817.00,100.99
3816.00,100.96
3815.00,100.94
3814.00,100.93
3813.00,100.92
3812.00,100.90
3811.00,100.90
3810.00,100.90
3809.00,100.92
3808.00,100.96
3807.00,101.01
3806.00,101.05
3805.00,101.07
3804.00,101.06
3803.00,101.01
3802.00,100.95
3801.00,100.92
3800.00,100.91
3799.00,100.92
3798.00,100.92
3797.00,100.90
3796.00,100.89
3795.00,100.90
3794.00,100.92
3793.00,100.94
3792.00,100.95
3791.00,100.96
3790.00,100.96
3789.00,100.95
3788.00,100.94
3787.00,100.93
3786.00,100.92
3785.00,100.91
3784.00,100.92
3783.00,100.94
3782.00,100.95
3781.00,100.96
3780.00,100.94
3779.00,100.92
3778.00,100.91
3777.00,100.90
3776.00,100.89
3775.00,100.90
3774.00,100.90
3773.00,100.91
3772.00,100.90
3771.00,100.89
3770.00,100.87
3769.00,100.87
3768.00,100.87
3767.00,100.88
3766.00,100.88
3765.00,100.88
3764.00,100.87
3763.00,100.86
3762.00,100.85
3761.00,100.84
3760.00,100.85
3759.00,100.85
3758.00,100.86
3757.00,100.87
3756.00,100.88
3755.00,100.88
3754.00,100.89
3753.00,100.88
3752.00,100.87
3751.00,100.85
3750.00,100.84
3749.00,100.85
3748.00,100.87
3747.00,100.87
3746.00,100.86
3745.00,100.82
3744.00,100.80
3743.00,100.80
3742.00,100.81
3741.00,100.80
3740.00,100.79
3739.00,100.78
3738.00,100.78
3737.00,100.78
3736.00,100.79
3735.00,100.79
3734.00,100.80
3733.00,100.80
3732.00,100.80
3731.00,100.82
3730.00,100.84
3729.00,100.86
3728.00,100.88
3727.00,100.90
3726.00,100.90
3725.00,100.88
3724.00,100.83
3723.00,100.79
3722.00,100.75
3721.00,100.74
3720.00,100.76
3719.00,100.78
3718.00,100.80
3717.00,100.81
3716.00,100.81
3715.00,100.80
3714.00,100.79
3713.00,100.78
3712.00,100.78
3711.00,100.79
3710.00,100.79
3709.00,100.79
3708.00,100.77
3707.00,100.77
3706.00,100.77
3705.00,100.77
3704.00,100.78
3703.00,100.78
3702.00,100.78
3701.00,100.78
3700.00,100.79
3699.00,100.79
3698.00,100.79
3697.00,100.77
3696.00,100.75
3695.00,100.72
3694.00,100.70
3693.00,100.69
3692.00,100.70
3691.00,100.71
3690.00,100.75
3689.00,100.77
3688.00,100.79
3687.00,100.79
3686.00,100.78
3685.00,100.77
3684.00,100.75
3683.00,100.73
3682.00,100.72
3681.00,100.72
3680.00,100.74
3679.00,100.77
3678.00,100.80
3677.00,100.81
3676.00,100.81
3675.00,100.80
3674.00,100.80
3673.00,100.82
3672.00,100.83
3671.00,100.82
3670.00,100.79
3669.00,100.76
3668.00,100.74
3667.00,100.73
3666.00,100.72
3665.00,100.70
3664.00,100.68
3663.00,100.68
3662.00,100.69
3661.00,100.72
3660.00,100.73
3659.00,100.74
3658.00,100.73
3657.00,100.73
3656.00,100.72
3655.00,100.72
3654.00,100.73
3653.00,100.75
3652.00,100.78
3651.00,100.82
3650.00,100.83
3649.00,100.81
3648.00,100.76
3647.00,100.72
3646.00,100.70
3645.00,100.69
3644.00,100.69
3643.00,100.67
3642.00,100.65
3641.00,100.64
3640.00,100.63
3639.00,100.63
3638.00,100.63
3637.00,100.64
3636.00,100.65
3635.00,100.67
3634.00,100.69
3633.00,100.71
3632.00,100.74
3631.00,100.78
3630.00,100.80
3629.00,100.81
3628.00,100.81
3627.00,100.79
3626.00,100.77
3625.00,100.74
3624.00,100.72
3623.00,100.72
3622.00,100.74
3621.00,100.76
3620.00,100.77
3619.00,100.75
3618.00,100.73
3617.00,100.72
3616.00,100.72
3615.00,100.73
3614.00,100.73
3613.00,100.73
3612.00,100.72
3611.00,100.71
3610.00,100.71
3609.00,100.70
3608.00,100.69
3607.00,100.67
3606.00,100.65
3605.00,100.64
3604.00,100.65
3603.00,100.66
3602.00,100.67
3601.00,100.66
3600.00,100.64
3599.00,100.64
3598.00,100.64
3597.00,100.65
3596.00,100.65
3595.00,100.65
3594.00,100.65
3593.00,100.64
3592.00,100.64
3591.00,100.65
3590.00,100.66
3589.00,100.67
3588.00,100.68
3587.00,100.67
3586.00,100.67
3585.00,100.66
3584.00,100.65
3583.00,100.63
3582.00,100.61
3581.00,100.60
3580.00,100.59
3579.00,100.59
3578.00,100.60
3577.00,100.60
3576.00,100.61
3575.00,100.61
3574.00,100.62
3573.00,100.63
3572.00,100.63
3571.00,100.62
3570.00,100.60
3569.00,100.59
3568.00,100.58
3567.00,100.58
3566.00,100.57
3565.00,100.56
3564.00,100.56
3563.00,100.56
3562.00,100.56
3561.00,100.54
3560.00,100.54
3559.00,100.56
3558.00,100.59
3557.00,100.62
3556.00,100.64
3555.00,100.64
3554.00,100.63
3553.00,100.61
3552.00,100.58
3551.00,100.56
3550.00,100.57
3549.00,100.58
3548.00,100.60
3547.00,100.60
3546.00,100.58
3545.00,100.55
3544.00,100.53
3543.00,100.51
3542.00,100.51
3541.00,100.51
3540.00,100.52
3539.00,100.54
3538.00,100.57
3537.00,100.59
3536.00,100.59
3535.00,100.58
3534.00,100.57
3533.00,100.58
3532.00,100.58
3531.00,100.57
3530.00,100.55
3529.00,100.51
3528.00,100.48
3527.00,100.48
3526.00,100.48
3525.00,100.48
3524.00,100.49
3523.00,100.49
3522.00,100.50
3521.00,100.52
3520.00,100.54
3519.00,100.55
3518.00,100.55
3517.00,100.53
3516.00,100.52
3515.00,100.52
3514.00,100.52
3513.00,100.53
3512.00,100.53
3511.00,100.51
3510.00,100.49
3509.00,100.47
3508.00,100.47
3507.00,100.47
3506.00,100.47
3505.00,100.47
3504.00,100.46
3503.00,100.45
3502.00,100.44
3501.00,100.44
3500.00,100.44
3499.00,100.45
3498.00,100.45
3497.00,100.44
3496.00,100.43
3495.00,100.42
3494.00,100.43
3493.00,100.44
3492.00,100.46
3491.00,100.49
3490.00,100.50
3489.00,100.51
3488.00,100.49
3487.00,100.47
3486.00,100.45
3485.00,100.45
3484.00,100.45
3483.00,100.44
3482.00,100.43
3481.00,100.40
3480.00,100.38
3479.00,100.38
3478.00,100.40
3477.00,100.42
3476.00,100.45
3475.00,100.47
3474.00,100.46
3473.00,100.45
3472.00,100.43
3471.00,100.43
3470.00,100.44
3469.00,100.46
3468.00,100.47
3467.00,100.48
3466.00,100.48
3465.00,100.48
3464.00,100.47
3463.00,100.45
3462.00,100.42
3461.00,100.38
3460.00,100.34
3459.00,100.31
3458.00,100.30
3457.00,100.31
3456.00,100.32
3455.00,100.35
3454.00,100.37
3453.00,100.38
3452.00,100.40
3451.00,100.42
3450.00,100.45
3449.00,100.45
3448.00,100.43
3447.00,100.41
3446.00,100.39
3445.00,100.38
3444.00,100.38
3443.00,100.38
3442.00,100.38
3441.00,100.37
3440.00,100.37
3439.00,100.36
3438.00,100.34
3437.00,100.33
3436.00,100.32
3435.00,100.33
3434.00,100.35
3433.00,100.36
3432.00,100.37
3431.00,100.38
3430.00,100.37
3429.00,100.36
3428.00,100.36
3427.00,100.36
3426.00,100.37
3425.00,100.38
3424.00,100.39
3423.00,100.38
3422.00,100.38
3421.00,100.37
3420.00,100.37
3419.00,100.38
3418.00,100.37
3417.00,100.37
3416.00,100.36
3415.00,100.36
3414.00,100.37
3413.00,100.38
3412.00,100.39
3411.00,100.40
3410.00,100.41
3409.00,100.41
3408.00,100.41
3407.00,100.40
3406.00,100.39
3405.00,100.38
3404.00,100.35
3403.00,100.33
3402.00,100.33
3401.00,100.34
3400.00,100.36
3399.00,100.37
3398.00,100.38
3397.00,100.38
3396.00,100.38
3395.00,100.37
3394.00,100.36
3393.00,100.36
3392.00,100.37
3391.00,100.38
3390.00,100.38
3389.00,100.38
3388.00,100.38
3387.00,100.38
3386.00,100.38
3385.00,100.37
3384.00,100.35
3383.00,100.35
3382.00,100.36
3381.00,100.38
3380.00,100.39
3379.00,100.38
3378.00,100.37
3377.00,100.36
3376.00,100.34
3375.00,100.33
3374.00,100.33
3373.00,100.34
3372.00,100.36
3371.00,100.40
3370.00,100.43
3369.00,100.45
3368.00,100.45
3367.00,100.43
3366.00,100.40
3365.00,100.38
3364.00,100.38
3363.00,100.40
3362.00,100.42
3361.00,100.43
3360.00,100.44
3359.00,100.43
3358.00,100.42
3357.00,100.40
3356.00,100.39
3355.00,100.38
3354.00,100.38
3353.00,100.39
3352.00,100.40
3351.00,100.39
3350.00,100.39
3349.00,100.38
3348.00,100.37
3347.00,100.36
3346.00,100.35
3345.00,100.36
3344.00,100.37
3343.00,100.37
3342.00,100.37
3341.00,100.36
3340.00,100.35
3339.00,100.35
3338.00,100.35
3337.00,100.35
3336.00,100.35
3335.00,100.37
3334.00,100.38
3333.00,100.39
3332.00,100.39
3331.00,100.39
3330.00,100.39
3329.00,100.39
3328.00,100.38
3327.00,100.37
3326.00,100.37
3325.00,100.37
3324.00,100.37
3323.00,100.38
3322.00,100.38
3321.00,100.39
3320.00,100.39
3319.00,100.37
3318.00,100.35
3317.00,100.34
3316.00,100.34
3315.00,100.35
3314.00,100.36
3313.00,100.37
3312.00,100.37
3311.00,100.38
3310.00,100.39
3309.00,100.42
3308.00,100.45
3307.00,100.47
3306.00,100.47
3305.00,100.45
3304.00,100.41
3303.00,100.36
3302.00,100.33
3301.00,100.33
3300.00,100.34
3299.00,100.37
3298.00,100.40
3297.00,100.40
3296.00,100.40
3295.00,100.38
3294.00,100.36
3293.00,100.36
3292.00,100.37
3291.00,100.38
3290.00,100.38
3289.00,100.40
3288.00,100.41
3287.00,100.42
3286.00,100.42
3285.00,100.41
3284.00,100.40
3283.00,100.39
3282.00,100.39
3281.00,100.38
3280.00,100.36
3279.00,100.35
3278.00,100.35
3277.00,100.35
3276.00,100.37
3275.00,100.38
3274.00,100.39
3273.00,100.40
3272.00,100.41
3271.00,100.40
3270.00,100.40
3269.00,100.39
3268.00,100.39
3267.00,100.40
3266.00,100.41
3265.00,100.42
3264.00,100.43
3263.00,100.44
3262.00,100.44
3261.00,100.43
3260.00,100.42
3259.00,100.41
3258.00,100.40
3257.00,100.40
3256.00,100.39
3255.00,100.39
3254.00,100.40
3253.00,100.40
3252.00,100.39
3251.00,100.39
3250.00,100.40
3249.00,100.42
3248.00,100.44
3247.00,100.45
3246.00,100.45
3245.00,100.43
3244.00,100.40
3243.00,100.38
3242.00,100.37
3241.00,100.36
3240.00,100.37
3239.00,100.37
3238.00,100.36
3237.00,100.35
3236.00,100.35
3235.00,100.36
3234.00,100.38
3233.00,100.40
3232.00,100.41
3231.00,100.41
3230.00,100.41
3229.00,100.40
3228.00,100.39
3227.00,100.38
3226.00,100.38
3225.00,100.39
3224.00,100.39
3223.00,100.38
3222.00,100.35
3221.00,100.32
3220.00,100.29
3219.00,100.27
3218.00,100.27
3217.00,100.29
3216.00,100.32
3215.00,100.34
3214.00,100.35
3213.00,100.34
3212.00,100.32
3211.00,100.31
3210.00,100.30
3209.00,100.30
3208.00,100.30
3207.00,100.31
3206.00,100.32
3205.00,100.32
3204.00,100.31
3203.00,100.30
3202.00,100.30
3201.00,100.32
3200.00,100.35
3199.00,100.35
3198.00,100.33
3197.00,100.32
3196.00,100.30
3195.00,100.28
3194.00,100.26
3193.00,100.24
3192.00,100.24
3191.00,100.27
3190.00,100.30
3189.00,100.32
3188.00,100.33
3187.00,100.32
3186.00,100.31
3185.00,100.32
3184.00,100.33
3183.00,100.35
3182.00,100.36
3181.00,100.37
3180.00,100.36
3179.00,100.34
3178.00,100.33
3177.00,100.33
3176.00,100.33
3175.00,100.33
3174.00,100.33
3173.00,100.32
3172.00,100.32
3171.00,100.33
3170.00,100.33
3169.00,100.34
3168.00,100.35
3167.00,100.35
3166.00,100.35
3165.00,100.35
3164.00,100.35
3163.00,100.36
3162.00,100.37
3161.00,100.38
3160.00,100.39
3159.00,100.40
3158.00,100.38
3157.00,100.36
3156.00,100.34
3155.00,100.34
3154.00,100.35
3153.00,100.37
3152.00,100.38
3151.00,100.39
3150.00,100.40
3149.00,100.39
3148.00,100.38
3147.00,100.38
3146.00,100.39
3145.00,100.40
3144.00,100.40
3143.00,100.40
3142.00,100.39
3141.00,100.38
3140.00,100.38
3139.00,100.38
3138.00,100.38
3137.00,100.38
3136.00,100.38
3135.00,100.38
3134.00,100.39
3133.00,100.41
3132.00,100.42
3131.00,100.44
3130.00,100.46
3129.00,100.47
3128.00,100.46
3127.00,100.44
3126.00,100.42
3125.00,100.40
3124.00,100.39
3123.00,100.38
3122.00,100.37
3121.00,100.37
3120.00,100.38
3119.00,100.40
3118.00,100.42
3117.00,100.43
3116.00,100.42
3115.00,100.42
3114.00,100.41
3113.00,100.42
3112.00,100.42
3111.00,100.42
3110.00,100.41
3109.00,100.39
3108.00,100.38
3107.00,100.38
3106.00,100.41
3105.00,100.43
3104.00,100.44
3103.00,100.43
3102.00,100.41
3101.00,100.40
3100.00,100.41
3099.00,100.42
3098.00,100.43
3097.00,100.44
3096.00,100.44
3095.00,100.45
3094.00,100.45
3093.00,100.45
3092.00,100.45
3091.00,100.46
3090.00,100.46
3089.00,100.47
3088.00,100.46
3087.00,100.44
3086.00,100.42
3085.00,100.41
3084.00,100.42
3083.00,100.44
3082.00,100.46
3081.00,100.47
3080.00,100.49
3079.00,100.49
3078.00,100.50
3077.00,100.49
3076.00,100.48
3075.00,100.47
3074.00,100.47
3073.00,100.46
3072.00,100.46
3071.00,100.44
3070.00,100.43
3069.00,100.42
3068.00,100.41
3067.00,100.41
3066.00,100.42
3065.00,100.43
3064.00,100.44
3063.00,100.46
3062.00,100.46
3061.00,100.45
3060.00,100.43
3059.00,100.41
3058.00,100.40
3057.00,100.41
3056.00,100.41
3055.00,100.41
3054.00,100.41
3053.00,100.41
3052.00,100.41
3051.00,100.41
3050.00,100.41
3049.00,100.42
3048.00,100.43
3047.00,100.44
3046.00,100.44
3045.00,100.43
3044.00,100.41
3043.00,100.39
3042.00,100.37
3041.00,100.37
3040.00,100.37
3039.00,100.38
3038.00,100.38
3037.00,100.38
3036.00,100.37
3035.00,100.37
3034.00,100.37
3033.00,100.36
3032.00,100.36
3031.00,100.37
3030.00,100.38
3029.00,100.38
3028.00,100.38
3027.00,100.37
3026.00,100.35
3025.00,100.33
3024.00,100.31
3023.00,100.31
3022.00,100.31
3021.00,100.31
3020.00,100.31
3019.00,100.30
3018.00,100.29
3017.00,100.27
3016.00,100.26
3015.00,100.24
3014.00,100.22
3013.00,100.20
3012.00,100.19
3011.00,100.18
3010.00,100.16
3009.00,100.13
3008.00,100.09
3007.00,100.06
3006.00,100.03
3005.00,100.01
3004.00,99.98
3003.00,99.96
3002.00,99.93
3001.00,99.91
3000.00,99.89
2999.00,99.86
2998.00,99.83
2997.00,99.78
2996.00,99.72
2995.00,99.66
2994.00,99.59
2993.00,99.53
2992.00,99.47
2991.00,99.40
2990.00,99.33
2989.00,99.24
2988.00,99.13
2987.00,99.01
2986.00,98.87
2985.00,98.71
2984.00,98.54
2983.00,98.36
2982.00,98.18
2981.00,97.97
2980.00,97.74
2979.00,97.46
2978.00,97.14
2977.00,96.77
2976.00,96.36
2975.00,95.89
2974.00,95.37
2973.00,94.80
2972.00,94.17
2971.00,93.46
2970.00,92.68
2969.00,91.83
2968.00,90.91
2967.00,89.95
2966.00,88.97
2965.00,88.00
2964.00,87.10
2963.00,86.30
2962.00,85.64
2961.00,85.10
2960.00,84.68
2959.00,84.31
2958.00,83.94
2957.00,83.49
2956.00,82.91
2955.00,82.18
2954.00,81.34
2953.00,80.50
2952.00,79.80
2951.00,79.35
2950.00,79.25
2949.00,79.56
2948.00,80.28
2947.00,81.34
2946.00,82.66
2945.00,84.07
2944.00,85.43
2943.00,86.65
2942.00,87.64
2941.00,88.36
2940.00,88.82
2939.00,89.06
2938.00,89.10
2937.00,88.94
2936.00,88.60
2935.00,88.08
2934.00,87.40
2933.00,86.59
2932.00,85.67
2931.00,84.66
2930.00,83.61
2929.00,82.55
2928.00,81.51
2927.00,80.49
2926.00,79.51
2925.00,78.58
2924.00,77.68
2923.00,76.81
2922.00,75.96
2921.00,75.15
2920.00,74.45
2919.00,73.92
2918.00,73.68
2917.00,73.75
2916.00,74.15
2915.00,74.79
2914.00,75.58
2913.00,76.42
2912.00,77.24
2911.00,77.99
2910.00,78.66
2909.00,79.29
2908.00,79.89
2907.00,80.49
2906.00,81.11
2905.00,81.74
2904.00,82.39
2903.00,83.05
2902.00,83.70
2901.00,84.36
2900.00,84.99
2899.00,85.61
2898.00,86.18
2897.00,86.70
2896.00,87.15
2895.00,87.53
2894.00,87.84
2893.00,88.09
2892.00,88.25
2891.00,88.35
2890.00,88.39
2889.00,88.37
2888.00,88.31
2887.00,88.23
2886.00,88.12
2885.00,87.98
2884.00,87.81
2883.00,87.60
2882.00,87.35
2881.00,87.09
2880.00,86.83
2879.00,86.60
2878.00,86.43
2877.00,86.36
2876.00,86.36
2875.00,86.41
2874.00,86.45
2873.00,86.43
2872.00,86.33
2871.00,86.15
2870.00,85.93
2869.00,85.72
2868.00,85.60
2867.00,85.66
2866.00,85.97
2865.00,86.55
2864.00,87.40
2863.00,88.44
2862.00,89.57
2861.00,90.66
2860.00,91.64
2859.00,92.44
2858.00,93.06
2857.00,93.52
2856.00,93.82
2855.00,94.00
2854.00,94.07
2853.00,94.03
2852.00,93.91
2851.00,93.72
2850.00,93.44
2849.00,93.07
2848.00,92.60
2847.00,92.03
2846.00,91.37
2845.00,90.64
2844.00,89.85
2843.00,89.05
2842.00,88.29
2841.00,87.63
2840.00,87.13
2839.00,86.86
2838.00,86.87
2837.00,87.19
2836.00,87.81
2835.00,88.68
2834.00,89.72
2833.00,90.84
2832.00,91.94
2831.00,92.94
2830.00,93.82
2829.00,94.56
2828.00,95.16
2827.00,95.63
2826.00,96.01
2825.00,96.31
2824.00,96.57
2823.00,96.81
2822.00,97.02
2821.00,97.21
2820.00,97.36
2819.00,97.49
2818.00,97.62
2817.00,97.73
2816.00,97.83
2815.00,97.92
2814.00,97.99
2813.00,98.06
2812.00,98.13
2811.00,98.19
2810.00,98.25
2809.00,98.31
2808.00,98.38
2807.00,98.46
2806.00,98.55
2805.00,98.64
2804.00,98.72
2803.00,98.79
2802.00,98.85
2801.00,98.91
2800.00,98.96
2799.00,99.00
2798.00,99.04
2797.00,99.07
2796.00,99.10
2795.00,99.14
2794.00,99.18
2793.00,99.23
2792.00,99.27
2791.00,99.31
2790.00,99.34
2789.00,99.37
2788.00,99.40
2787.00,99.44
2786.00,99.48
2785.00,99.53
2784.00,99.57
2783.00,99.60
2782.00,99.63
2781.00,99.65
2780.00,99.66
2779.00,99.66
2778.00,99.66
2777.00,99.67
2776.00,99.70
2775.00,99.74
2774.00,99.78
2773.00,99.80
2772.00,99.80
2771.00,99.81
2770.00,99.82
2769.00,99.84
2768.00,99.86
2767.00,99.88
2766.00,99.89
2765.00,99.90
2764.00,99.90
2763.00,99.89
2762.00,99.89
2761.00,99.90
2760.00,99.90
2759.00,99.90
2758.00,99.90
2757.00,99.91
2756.00,99.91
2755.00,99.92
2754.00,99.92
2753.00,99.93
2752.00,99.93
2751.00,99.93
2750.00,99.93
2749.00,99.92
2748.00,99.91
2747.00,99.92
2746.00,99.92
2745.00,99.92
2744.00,99.91
2743.00,99.89
2742.00,99.87
2741.00,99.86
2740.00,99.84
2739.00,99.82
2738.00,99.79
2737.00,99.76
2736.00,99.74
2735.00,99.72
2734.00,99.72
2733.00,99.72
2732.00,99.69
2731.00,99.65
2730.00,99.61
2729.00,99.57
2728.00,99.54
2727.00,99.50
2726.00,99.45
2725.00,99.40
2724.00,99.37
2723.00,99.36
2722.00,99.37
2721.00,99.41
2720.00,99.45
2719.00,99.51
2718.00,99.56
2717.00,99.61
2716.00,99.65
2715.00,99.69
2714.00,99.72
2713.00,99.75
2712.00,99.78
2711.00,99.80
2710.00,99.83
2709.00,99.84
2708.00,99.85
2707.00,99.87
2706.00,99.89
2705.00,99.91
2704.00,99.92
2703.00,99.94
2702.00,99.96
2701.00,99.98
2700.00,100.00
2699.00,100.02
2698.00,100.03
2697.00,100.03
2696.00,100.03
2695.00,100.04
2694.00,100.05
2693.00,100.04
2692.00,100.02
2691.00,100.01
2690.00,100.01
2689.00,100.01
2688.00,100.01
2687.00,100.01
2686.00,100.01
2685.00,100.00
2684.00,100.00
2683.00,100.00
2682.00,100.00
2681.00,99.99
2680.00,99.98
2679.00,99.97
2678.00,99.97
2677.00,99.98
2676.00,100.00
2675.00,100.01
2674.00,100.02
2673.00,100.03
2672.00,100.03
2671.00,100.03
2670.00,100.01
2669.00,100.01
2668.00,100.01
2667.00,100.02
2666.00,100.03
2665.00,100.03
2664.00,100.02
2663.00,100.00
2662.00,99.99
2661.00,99.98
2660.00,99.97
2659.00,99.96
2658.00,99.94
2657.00,99.93
2656.00,99.92
2655.00,99.92
2654.00,99.93
2653.00,99.94
2652.00,99.95
2651.00,99.94
2650.00,99.93
2649.00,99.93
2648.00,99.92
2647.00,99.91
2646.00,99.90
2645.00,99.89
2644.00,99.88
2643.00,99.89
2642.00,99.89
2641.00,99.89
2640.00,99.88
2639.00,99.88
2638.00,99.88
2637.00,99.88
2636.00,99.88
2635.00,99.86
2634.00,99.85
2633.00,99.83
2632.00,99.82
2631.00,99.81
2630.00,99.80
2629.00,99.79
2628.00,99.78
2627.00,99.77
2626.00,99.75
2625.00,99.73
2624.00,99.72
2623.00,99.71
2622.00,99.70
2621.00,99.69
2620.00,99.68
2619.00,99.67
2618.00,99.66
2617.00,99.64
2616.00,99.63
2615.00,99.62
2614.00,99.62
2613.00,99.64
2612.00,99.66
2611.00,99.68
2610.00,99.69
2609.00,99.69
2608.00,99.68
2607.00,99.67
2606.00,99.67
2605.00,99.68
2604.00,99.68
2603.00,99.68
2602.00,99.68
2601.00,99.67
2600.00,99.67
2599.00,99.67
2598.00,99.66
2597.00,99.64
2596.00,99.62
2595.00,99.60
2594.00,99.59
2593.00,99.58
2592.00,99.58
2591.00,99.56
2590.00,99.53
2589.00,99.50
2588.00,99.47
2587.00,99.46
2586.00,99.45
2585.00,99.43
2584.00,99.41
2583.00,99.39
2582.00,99.37
2581.00,99.36
2580.00,99.37
2579.00,99.37
2578.00,99.39
2577.00,99.41
2576.00,99.45
2575.00,99.49
2574.00,99.52
2573.00,99.54
2572.00,99.54
2571.00,99.53
2570.00,99.52
2569.00,99.50
2568.00,99.49
2567.00,99.51
2566.00,99.54
2565.00,99.56
2564.00,99.57
2563.00,99.57
2562.00,99.56
2561.00,99.54
2560.00,99.53
2559.00,99.52
2558.00,99.52
2557.00,99.54
2556.00,99.56
2555.00,99.58
2554.00,99.58
2553.00,99.57
2552.00,99.55
2551.00,99.55
2550.00,99.55
2549.00,99.57
2548.00,99.59
2547.00,99.60
2546.00,99.60
2545.00,99.59
2544.00,99.57
2543.00,99.57
2542.00,99.58
2541.00,99.59
2540.00,99.59
2539.00,99.57
2538.00,99.55
2537.00,99.53
2536.00,99.52
2535.00,99.54
2534.00,99.55
2533.00,99.56
2532.00,99.56
2531.00,99.55
2530.00,99.55
2529.00,99.55
2528.00,99.55
2527.00,99.56
2526.00,99.58
2525.00,99.58
2524.00,99.58
2523.00,99.57
2522.00,99.56
2521.00,99.55
2520.00,99.54
2519.00,99.54
2518.00,99.55
2517.00,99.57
2516.00,99.60
2515.00,99.63
2514.00,99.65
2513.00,99.65
2512.00,99.64
2511.00,99.62
2510.00,99.61
2509.00,99.61
2508.00,99.61
2507.00,99.63
2506.00,99.65
2505.00,99.67
2504.00,99.67
2503.00,99.66
2502.00,99.66
2501.00,99.67
2500.00,99.68
2499.00,99.69
2498.00,99.69
2497.00,99.69
2496.00,99.69
2495.00,99.69
2494.00,99.69
2493.00,99.69
2492.00,99.69
2491.00,99.69
2490.00,99.68
2489.00,99.67
2488.00,99.66
2487.00,99.67
2486.00,99.69
2485.00,99.70
2484.00,99.69
2483.00,99.68
2482.00,99.68
2481.00,99.69
2480.00,99.70
2479.00,99.71
2478.00,99.69
2477.00,99.68
2476.00,99.66
2475.00,99.65
2474.00,99.65
2473.00,99.66
2472.00,99.66
2471.00,99.67
2470.00,99.67
2469.00,99.66
2468.00,99.64
2467.00,99.62
2466.00,99.61
2465.00,99.62
2464.00,99.64
2463.00,99.65
2462.00,99.65
2461.00,99.65
2460.00,99.64
2459.00,99.63
2458.00,99.62
2457.00,99.63
2456.00,99.64
2455.00,99.66
2454.00,99.67
2453.00,99.67
2452.00,99.65
2451.00,99.63
2450.00,99.61
2449.00,99.60
2448.00,99.58
2447.00,99.56
2446.00,99.56
2445.00,99.57
2444.00,99.60
2443.00,99.64
2442.00,99.67
2441.00,99.69
2440.00,99.71
2439.00,99.70
2438.00,99.70
2437.00,99.68
2436.00,99.66
2435.00,99.64
2434.00,99.61
2433.00,99.61
2432.00,99.61
2431.00,99.62
2430.00,99.62
2429.00,99.62
2428.00,99.63
2427.00,99.65
2426.00,99.67
2425.00,99.69
2424.00,99.69
2423.00,99.70
2422.00,99.70
2421.00,99.70
2420.00,99.71
2419.00,99.72
2418.00,99.73
2417.00,99.74
2416.00,99.76
2415.00,99.77
2414.00,99.77
2413.00,99.76
2412.00,99.74
2411.00,99.71
2410.00,99.69
2409.00,99.69
2408.00,99.71
2407.00,99.74
2406.00,99.79
2405.00,99.82
2404.00,99.83
2403.00,99.83
2402.00,99.83
2401.00,99.84
2400.00,99.84
2399.00,99.85
2398.00,99.86
2397.00,99.85
2396.00,99.85
2395.00,99.84
2394.00,99.85
2393.00,99.86
2392.00,99.86
2391.00,99.85
2390.00,99.85
2389.00,99.87
2388.00,99.89
2387.00,99.92
2386.00,99.95
2385.00,99.98
2384.00,100.02
2383.00,100.06
2382.00,100.11
2381.00,100.17
2380.00,100.23
2379.00,100.28
2378.00,100.33
2377.00,100.36
2376.00,100.41
2375.00,100.45
2374.00,100.50
2373.00,100.52
2372.00,100.50
2371.00,100.43
2370.00,100.34
2369.00,100.31
2368.00,100.36
2367.00,100.47
2366.00,100.57
2365.00,100.63
2364.00,100.65
2363.00,100.64
2362.00,100.61
2361.00,100.59
2360.00,100.57
2359.00,100.54
2358.00,100.51
2357.00,100.51
2356.00,100.54
2355.00,100.59
2354.00,100.63
2353.00,100.65
2352.00,100.66
2351.00,100.66
2350.00,100.67
2349.00,100.67
2348.00,100.67
2347.00,100.68
2346.00,100.68
2345.00,100.67
2344.00,100.68
2343.00,100.72
2342.00,100.75
2341.00,100.77
2340.00,100.78
2339.00,100.78
2338.00,100.76
2337.00,100.72
2336.00,100.67
2335.00,100.63
2334.00,100.60
2333.00,100.60
2332.00,100.63
2331.00,100.68
2330.00,100.71
2329.00,100.70
2328.00,100.68
2327.00,100.62
2326.00,100.52
2325.00,100.39
2324.00,100.29
2323.00,100.24
2322.00,100.26
2321.00,100.29
2320.00,100.29
2319.00,100.25
2318.00,100.19
2317.00,100.14
2316.00,100.11
2315.00,100.12
2314.00,100.15
2313.00,100.18
2312.00,100.17
2311.00,100.15
2310.00,100.12
2309.00,100.11
2308.00,100.11
2307.00,100.11
2306.00,100.09
2305.00,100.05
2304.00,100.00
2303.00,99.94
2302.00,99.88
2301.00,99.84
2300.00,99.82
2299.00,99.79
2298.00,99.76
2297.00,99.73
2296.00,99.70
2295.00,99.67
2294.00,99.64
2293.00,99.61
2292.00,99.58
2291.00,99.55
2290.00,99.52
2289.00,99.49
2288.00,99.44
2287.00,99.38
2286.00,99.32
2285.00,99.26
2284.00,99.21
2283.00,99.17
2282.00,99.14
2281.00,99.13
2280.00,99.12
2279.00,99.14
2278.00,99.16
2277.00,99.17
2276.00,99.16
2275.00,99.14
2274.00,99.10
2273.00,99.06
2272.00,99.01
2271.00,98.96
2270.00,98.92
2269.00,98.89
2268.00,98.88
2267.00,98.87
2266.00,98.87
2265.00,98.88
2264.00,98.90
2263.00,98.91
2262.00,98.90
2261.00,98.86
2260.00,98.81
2259.00,98.77
2258.00,98.75
2257.00,98.75
2256.00,98.77
2255.00,98.79
2254.00,98.78
2253.00,98.75
2252.00,98.72
2251.00,98.69
2250.00,98.66
2249.00,98.61
2248.00,98.55
2247.00,98.50
2246.00,98.48
2245.00,98.46
2244.00,98.43
2243.00,98.38
2242.00,98.33
2241.00,98.31
2240.00,98.32
2239.00,98.35
2238.00,98.38
2237.00,98.41
2236.00,98.44
2235.00,98.46
2234.00,98.45
2233.00,98.40
2232.00,98.33
2231.00,98.28
2230.00,98.27
2229.00,98.27
2228.00,98.26
2227.00,98.23
2226.00,98.22
2225.00,98.22
2224.00,98.21
2223.00,98.20
2222.00,98.19
2221.00,98.19
2220.00,98.20
2219.00,98.19
2218.00,98.18
2217.00,98.16
2216.00,98.13
2215.00,98.07
2214.00,98.01
2213.00,97.96
2212.00,97.95
2211.00,97.96
2210.00,97.97
2209.00,97.95
2208.00,97.93
2207.00,97.91
2206.00,97.90
2205.00,97.88
2204.00,97.86
2203.00,97.83
2202.00,97.80
2201.00,97.79
2200.00,97.79
2199.00,97.81
2198.00,97.83
2197.00,97.82
2196.00,97.79
2195.00,97.70
2194.00,97.60
2193.00,97.52
2192.00,97.51
2191.00,97.52
2190.00,97.50
2189.00,97.45
2188.00,97.40
2187.00,97.38
2186.00,97.38
2185.00,97.38
2184.00,97.35
2183.00,97.32
2182.00,97.29
2181.00,97.25
2180.00,97.22
2179.00,97.19
2178.00,97.20
2177.00,97.24
2176.00,97.27
2175.00,97.27
2174.00,97.25
2173.00,97.23
2172.00,97.21
2171.00,97.18
2170.00,97.14
2169.00,97.10
2168.00,97.07
2167.00,97.03
2166.00,96.95
2165.00,96.82
2164.00,96.68
2163.00,96.54
2162.00,96.46
2161.00,96.50
2160.00,96.66
2159.00,96.87
2158.00,97.05
2157.00,97.21
2156.00,97.37
2155.00,97.50
2154.00,97.57
2153.00,97.60
2152.00,97.60
2151.00,97.60
2150.00,97.58
2149.00,97.58
2148.00,97.63
2147.00,97.74
2146.00,97.86
2145.00,97.96
2144.00,98.03
2143.00,98.08
2142.00,98.12
2141.00,98.15
2140.00,98.19
2139.00,98.23
2138.00,98.28
2137.00,98.35
2136.00,98.43
2135.00,98.53
2134.00,98.62
2133.00,98.67
2132.00,98.72
2131.00,98.76
2130.00,98.80
2129.00,98.82
2128.00,98.81
2127.00,98.77
2126.00,98.74
2125.00,98.73
2124.00,98.75
2123.00,98.80
2122.00,98.84
2121.00,98.87
2120.00,98.89
2119.00,98.90
2118.00,98.88
2117.00,98.84
2116.00,98.80
2115.00,98.81
2114.00,98.84
2113.00,98.89
2112.00,98.92
2111.00,98.93
2110.00,98.92
2109.00,98.89
2108.00,98.86
2107.00,98.87
2106.00,98.89
2105.00,98.91
2104.00,98.91
2103.00,98.88
2102.00,98.82
2101.00,98.76
2100.00,98.70
2099.00,98.68
2098.00,98.70
2097.00,98.74
2096.00,98.79
2095.00,98.84
2094.00,98.87
2093.00,98.88
2092.00,98.87
2091.00,98.84
2090.00,98.81
2089.00,98.78
2088.00,98.76
2087.00,98.73
2086.00,98.71
2085.00,98.70
2084.00,98.69
2083.00,98.67
2082.00,98.65
2081.00,98.61
2080.00,98.58
2079.00,98.56
2078.00,98.53
2077.00,98.50
2076.00,98.47
2075.00,98.46
2074.00,98.46
2073.00,98.46
2072.00,98.48
2071.00,98.50
2070.00,98.51
2069.00,98.50
2068.00,98.47
2067.00,98.43
2066.00,98.42
2065.00,98.42
2064.00,98.43
2063.00,98.44
2062.00,98.44
2061.00,98.43
2060.00,98.41
2059.00,98.37
2058.00,98.32
2057.00,98.28
2056.00,98.27
2055.00,98.29
2054.00,98.31
2053.00,98.27
2052.00,98.13
2051.00,97.96
2050.00,97.81
2049.00,97.70
2048.00,97.64
2047.00,97.60
2046.00,97.61
2045.00,97.66
2044.00,97.71
2043.00,97.71
2042.00,97.67
2041.00,97.61
2040.00,97.56
2039.00,97.52
2038.00,97.49
2037.00,97.44
2036.00,97.37
2035.00,97.31
2034.00,97.27
2033.00,97.25
2032.00,97.22
2031.00,97.20
2030.00,97.18
2029.00,97.17
2028.00,97.19
2027.00,97.23
2026.00,97.28
2025.00,97.32
2024.00,97.32
2023.00,97.29
2022.00,97.25
2021.00,97.21
2020.00,97.20
2019.00,97.22
2018.00,97.30
2017.00,97.43
2016.00,97.55
2015.00,97.63
2014.00,97.64
2013.00,97.63
2012.00,97.62
2011.00,97.61
2010.00,97.61
2009.00,97.60
2008.00,97.59
2007.00,97.59
2006.00,97.60
2005.00,97.65
2004.00,97.71
2003.00,97.79
2002.00,97.85
2001.00,97.91
2000.00,97.93
1999.00,97.92
1998.00,97.90
1997.00,97.88
1996.00,97.88
1995.00,97.87
1994.00,97.84
1993.00,97.80
1992.00,97.78
1991.00,97.80
1990.00,97.82
1989.00,97.82
1988.00,97.79
1987.00,97.76
1986.00,97.72
1985.00,97.68
1984.00,97.62
1983.00,97.55
1982.00,97.45
1981.00,97.34
1980.00,97.26
1979.00,97.24
1978.00,97.24
1977.00,97.24
1976.00,97.21
1975.00,97.20
1974.00,97.27
1973.00,97.40
1972.00,97.54
1971.00,97.65
1970.00,97.70
1969.00,97.72
1968.00,97.73
1967.00,97.76
1966.00,97.80
1965.00,97.85
1964.00,97.90
1963.00,97.95
1962.00,97.99
1961.00,98.05
1960.00,98.11
1959.00,98.16
1958.00,98.21
1957.00,98.24
1956.00,98.24
1955.00,98.23
1954.00,98.24
1953.00,98.29
1952.00,98.36
1951.00,98.43
1950.00,98.48
1949.00,98.50
1948.00,98.51
1947.00,98.53
1946.00,98.55
1945.00,98.57
1944.00,98.60
1943.00,98.63
1942.00,98.67
1941.00,98.71
1940.00,98.74
1939.00,98.75
1938.00,98.75
1937.00,98.75
1936.00,98.78
1935.00,98.82
1934.00,98.85
1933.00,98.87
1932.00,98.89
1931.00,98.90
1930.00,98.93
1929.00,98.96
1928.00,98.99
1927.00,99.02
1926.00,99.06
1925.00,99.10
1924.00,99.12
1923.00,99.12
1922.00,99.12
1921.00,99.13
1920.00,99.15
1919.00,99.16
1918.00,99.14
1917.00,99.10
1916.00,99.07
1915.00,99.07
1914.00,99.11
1913.00,99.15
1912.00,99.20
1911.00,99.22
1910.00,99.23
1909.00,99.23
1908.00,99.22
1907.00,99.21
1906.00,99.20
1905.00,99.20
1904.00,99.21
1903.00,99.23
1902.00,99.25
1901.00,99.27
1900.00,99.30
1899.00,99.33
1898.00,99.34
1897.00,99.35
1896.00,99.34
1895.00,99.31
1894.00,99.29
1893.00,99.28
1892.00,99.30
1891.00,99.34
1890.00,99.38
1889.00,99.40
1888.00,99.40
1887.00,99.39
1886.00,99.38
1885.00,99.37
1884.00,99.36
1883.00,99.36
1882.00,99.36
1881.00,99.36
1880.00,99.35
1879.00,99.35
1878.00,99.35
1877.00,99.37
1876.00,99.40
1875.00,99.42
1874.00,99.44
1873.00,99.45
1872.00,99.45
1871.00,99.46
1870.00,99.47
1869.00,99.47
1868.00,99.46
1867.00,99.45
1866.00,99.45
1865.00,99.46
1864.00,99.48
1863.00,99.50
1862.00,99.52
1861.00,99.54
1860.00,99.55
1859.00,99.55
1858.00,99.55
1857.00,99.54
1856.00,99.53
1855.00,99.51
1854.00,99.49
1853.00,99.49
1852.00,99.51
1851.00,99.54
1850.00,99.57
1849.00,99.59
1848.00,99.60
1847.00,99.61
1846.00,99.61
1845.00,99.61
1844.00,99.62
1843.00,99.64
1842.00,99.66
1841.00,99.68
1840.00,99.68
1839.00,99.67
1838.00,99.66
1837.00,99.66
1836.00,99.66
1835.00,99.66
1834.00,99.65
1833.00,99.65
1832.00,99.66
1831.00,99.68
1830.00,99.70
1829.00,99.70
1828.00,99.70
1827.00,99.69
1826.00,99.70
1825.00,99.71
1824.00,99.70
1823.00,99.69
1822.00,99.69
1821.00,99.71
1820.00,99.73
1819.00,99.74
1818.00,99.74
1817.00,99.74
1816.00,99.75
1815.00,99.78
1814.00,99.81
1813.00,99.83
1812.00,99.82
1811.00,99.80
1810.00,99.79
1809.00,99.79
1808.00,99.79
1807.00,99.79
1806.00,99.80
1805.00,99.81
1804.00,99.84
1803.00,99.87
1802.00,99.89
1801.00,99.90
1800.00,99.88
1799.00,99.86
1798.00,99.86
1797.00,99.85
1796.00,99.85
1795.00,99.84
1794.00,99.82
1793.00,99.80
1792.00,99.78
1791.00,99.79
1790.00,99.80
1789.00,99.81
1788.00,99.81
1787.00,99.80
1786.00,99.79
1785.00,99.78
1784.00,99.79
1783.00,99.80
1782.00,99.82
1781.00,99.82
1780.00,99.81
1779.00,99.80
1778.00,99.79
1777.00,99.78
1776.00,99.78
1775.00,99.79
1774.00,99.81
1773.00,99.81
1772.00,99.80
1771.00,99.78
1770.00,99.78
1769.00,99.77
1768.00,99.77
1767.00,99.76
1766.00,99.76
1765.00,99.75
1764.00,99.75
1763.00,99.74
1762.00,99.73
1761.00,99.71
1760.00,99.69
1759.00,99.68
1758.00,99.68
1757.00,99.67
1756.00,99.67
1755.00,99.66
1754.00,99.65
1753.00,99.64
1752.00,99.62
1751.00,99.60
1750.00,99.58
1749.00,99.55
1748.00,99.53
1747.00,99.52
1746.00,99.51
1745.00,99.51
1744.00,99.51
1743.00,99.51
1742.00,99.52
1741.00,99.53
1740.00,99.52
1739.00,99.51
1738.00,99.50
1737.00,99.50
1736.00,99.50
1735.00,99.50
1734.00,99.49
1733.00,99.48
1732.00,99.49
1731.00,99.51
1730.00,99.54
1729.00,99.56
1728.00,99.57
1727.00,99.59
1726.00,99.60
1725.00,99.60
1724.00,99.58
1723.00,99.57
1722.00,99.57
1721.00,99.58
1720.00,99.60
1719.00,99.64
1718.00,99.67
1717.00,99.67
1716.00,99.65
1715.00,99.62
1714.00,99.62
1713.00,99.64
1712.00,99.66
1711.00,99.65
1710.00,99.64
1709.00,99.62
1708.00,99.61
1707.00,99.61
1706.00,99.61
1705.00,99.60
1704.00,99.59
1703.00,99.57
1702.00,99.55
1701.00,99.53
1700.00,99.51
1699.00,99.51
1698.00,99.50
1697.00,99.50
1696.00,99.50
1695.00,99.51
1694.00,99.53
1693.00,99.53
1692.00,99.53
1691.00,99.53
1690.00,99.54
1689.00,99.56
1688.00,99.56
1687.00,99.56
1686.00,99.54
1685.00,99.51
1684.00,99.49
1683.00,99.49
1682.00,99.49
1681.00,99.50
1680.00,99.51
1679.00,99.51
1678.00,99.51
1677.00,99.50
1676.00,99.49
1675.00,99.47
1674.00,99.45
1673.00,99.43
1672.00,99.42
1671.00,99.41
1670.00,99.42
1669.00,99.42
1668.00,99.41
1667.00,99.41
1666.00,99.41
1665.00,99.41
1664.00,99.42
1663.00,99.43
1662.00,99.44
1661.00,99.44
1660.00,99.44
1659.00,99.45
1658.00,99.46
1657.00,99.47
1656.00,99.49
1655.00,99.52
1654.00,99.52
1653.00,99.49
1652.00,99.44
1651.00,99.41
1650.00,99.40
1649.00,99.40
1648.00,99.40
1647.00,99.41
1646.00,99.43
1645.00,99.44
1644.00,99.45
1643.00,99.45
1642.00,99.45
1641.00,99.46
1640.00,99.47
1639.00,99.49
1638.00,99.50
1637.00,99.50
1636.00,99.48
1635.00,99.48
1634.00,99.48
1633.00,99.49
1632.00,99.49
1631.00,99.49
1630.00,99.49
1629.00,99.50
1628.00,99.52
1627.00,99.53
1626.00,99.54
1625.00,99.55
1624.00,99.55
1623.00,99.56
1622.00,99.57
1621.00,99.56
1620.00,99.55
1619.00,99.54
1618.00,99.55
1617.00,99.54
1616.00,99.54
1615.00,99.53
1614.00,99.54
1613.00,99.53
1612.00,99.52
1611.00,99.51
1610.00,99.50
1609.00,99.50
1608.00,99.51
1607.00,99.51
1606.00,99.52
1605.00,99.53
1604.00,99.54
1603.00,99.55
1602.00,99.57
1601.00,99.58
1600.00,99.59
1599.00,99.60
1598.00,99.59
1597.00,99.59
1596.00,99.58
1595.00,99.58
1594.00,99.59
1593.00,99.61
1592.00,99.62
1591.00,99.62
1590.00,99.61
1589.00,99.61
1588.00,99.61
1587.00,99.62
1586.00,99.62
1585.00,99.61
1584.00,99.60
1583.00,99.60
1582.00,99.61
1581.00,99.61
1580.00,99.60
1579.00,99.59
1578.00,99.58
1577.00,99.58
1576.00,99.58
1575.00,99.59
1574.00,99.59
1573.00,99.58
1572.00,99.57
1571.00,99.56
1570.00,99.55
1569.00,99.55
1568.00,99.56
1567.00,99.57
1566.00,99.58
1565.00,99.59
1564.00,99.59
1563.00,99.59
1562.00,99.60
1561.00,99.62
1560.00,99.63
1559.00,99.63
1558.00,99.62
1557.00,99.59
1556.00,99.57
1555.00,99.57
1554.00,99.56
1553.00,99.56
1552.00,99.54
1551.00,99.54
1550.00,99.54
1549.00,99.54
1548.00,99.54
1547.00,99.55
1546.00,99.55
1545.00,99.54
1544.00,99.53
1543.00,99.52
1542.00,99.51
1541.00,99.51
1540.00,99.51
1539.00,99.53
1538.00,99.54
1537.00,99.53
1536.00,99.52
1535.00,99.52
1534.00,99.52
1533.00,99.51
1532.00,99.49
1531.00,99.47
1530.00,99.45
1529.00,99.44
1528.00,99.43
1527.00,99.43
1526.00,99.43
1525.00,99.43
1524.00,99.42
1523.00,99.41
1522.00,99.39
1521.00,99.37
1520.00,99.36
1519.00,99.36
1518.00,99.36
1517.00,99.36
1516.00,99.36
1515.00,99.35
1514.00,99.33
1513.00,99.30
1512.00,99.27
1511.00,99.27
1510.00,99.28
1509.00,99.29
1508.00,99.29
1507.00,99.30
1506.00,99.31
1505.00,99.30
1504.00,99.29
1503.00,99.28
1502.00,99.27
1501.00,99.26
1500.00,99.24
1499.00,99.21
1498.00,99.18
1497.00,99.12
1496.00,99.08
1495.00,99.06
1494.00,99.05
1493.00,99.03
1492.00,98.99
1491.00,98.94
1490.00,98.89
1489.00,98.83
1488.00,98.76
1487.00,98.71
1486.00,98.66
1485.00,98.60
1484.00,98.52
1483.00,98.43
1482.00,98.32
1481.00,98.18
1480.00,98.03
1479.00,97.86
1478.00,97.67
1477.00,97.42
1476.00,97.15
1475.00,96.83
1474.00,96.41
1473.00,95.81
1472.00,95.07
1471.00,94.32
1470.00,93.56
1469.00,92.76
1468.00,91.90
1467.00,90.98
1466.00,89.99
1465.00,88.97
1464.00,88.05
1463.00,87.36
1462.00,86.87
1461.00,86.51
1460.00,86.25
1459.00,86.06
1458.00,85.91
1457.00,85.79
1456.00,85.74
1455.00,85.76
1454.00,85.82
1453.00,85.92
1452.00,86.12
1451.00,86.45
1450.00,86.94
1449.00,87.67
1448.00,88.65
1447.00,89.74
1446.00,90.78
1445.00,91.72
1444.00,92.54
1443.00,93.22
1442.00,93.74
1441.00,94.10
1440.00,94.31
1439.00,94.36
1438.00,94.31
1437.00,94.23
1436.00,94.29
1435.00,94.55
1434.00,95.00
1433.00,95.57
1432.00,96.18
1431.00,96.71
1430.00,97.12
1429.00,97.42
1428.00,97.64
1427.00,97.78
1426.00,97.87
1425.00,97.96
1424.00,98.05
1423.00,98.11
1422.00,98.15
1421.00,98.18
1420.00,98.22
1419.00,98.25
1418.00,98.28
1417.00,98.31
1416.00,98.34
1415.00,98.36
1414.00,98.38
1413.00,98.42
1412.00,98.46
1411.00,98.48
1410.00,98.49
1409.00,98.50
1408.00,98.50
1407.00,98.47
1406.00,98.45
1405.00,98.44
1404.00,98.44
1403.00,98.43
1402.00,98.42
1401.00,98.41
1400.00,98.41
1399.00,98.42
1398.00,98.41
1397.00,98.40
1396.00,98.37
1395.00,98.32
1394.00,98.26
1393.00,98.19
1392.00,98.12
1391.00,98.01
1390.00,97.87
1389.00,97.69
1388.00,97.43
1387.00,97.04
1386.00,96.50
1385.00,95.77
1384.00,94.77
1383.00,93.42
1382.00,91.66
1381.00,89.46
1380.00,86.80
1379.00,83.80
1378.00,80.89
1377.00,78.64
1376.00,77.60
1375.00,78.06
1374.00,79.90
1373.00,82.54
1372.00,85.33
1371.00,87.90
1370.00,90.10
1369.00,91.85
1368.00,93.11
1367.00,93.93
1366.00,94.38
1365.00,94.57
1364.00,94.56
1363.00,94.38
1362.00,94.09
1361.00,93.77
1360.00,93.50
1359.00,93.39
1358.00,93.49
1357.00,93.79
1356.00,94.25
1355.00,94.78
1354.00,95.31
1353.00,95.78
1352.00,96.16
1351.00,96.47
1350.00,96.71
1349.00,96.90
1348.00,97.07
1347.00,97.24
1346.00,97.40
1345.00,97.54
1344.00,97.66
1343.00,97.76
1342.00,97.84
1341.00,97.91
1340.00,97.95
1339.00,97.97
1338.00,97.96
1337.00,97.95
1336.00,97.92
1335.00,97.88
1334.00,97.83
1333.00,97.77
1332.00,97.71
1331.00,97.67
1330.00,97.65
1329.00,97.67
1328.00,97.71
1327.00,97.77
1326.00,97.84
1325.00,97.93
1324.00,98.01
1323.00,98.09
1322.00,98.15
1321.00,98.19
1320.00,98.24
1319.00,98.28
1318.00,98.32
1317.00,98.34
1316.00,98.35
1315.00,98.35
1314.00,98.34
1313.00,98.34
1312.00,98.32
1311.00,98.30
1310.00,98.25
1309.00,98.17
1308.00,98.05
1307.00,97.90
1306.00,97.74
1305.00,97.63
1304.00,97.59
1303.00,97.61
1302.00,97.67
1301.00,97.71
1300.00,97.72
1299.00,97.71
1298.00,97.68
1297.00,97.65
1296.00,97.64
1295.00,97.66
1294.00,97.69
1293.00,97.75
1292.00,97.80
1291.00,97.86
1290.00,97.92
1289.00,97.97
1288.00,98.00
1287.00,98.04
1286.00,98.09
1285.00,98.14
1284.00,98.20
1283.00,98.24
1282.00,98.27
1281.00,98.29
1280.00,98.32
1279.00,98.34
1278.00,98.35
1277.00,98.36
1276.00,98.37
1275.00,98.39
1274.00,98.40
1273.00,98.41
1272.00,98.40
1271.00,98.38
1270.00,98.38
1269.00,98.38
1268.00,98.37
1267.00,98.36
1266.00,98.33
1265.00,98.31
1264.00,98.28
1263.00,98.24
1262.00,98.17
1261.00,98.09
1260.00,97.99
1259.00,97.87
1258.00,97.74
1257.00,97.63
1256.00,97.57
1255.00,97.56
1254.00,97.60
1253.00,97.66
1252.00,97.73
1251.00,97.80
1250.00,97.85
1249.00,97.90
1248.00,97.96
1247.00,98.01
1246.00,98.05
1245.00,98.08
1244.00,98.10
1243.00,98.13
1242.00,98.15
1241.00,98.16
1240.00,98.17
1239.00,98.19
1238.00,98.21
1237.00,98.23
1236.00,98.24
1235.00,98.24
1234.00,98.25
1233.00,98.25
1232.00,98.26
1231.00,98.27
1230.00,98.27
1229.00,98.26
1228.00,98.25
1227.00,98.24
1226.00,98.21
1225.00,98.16
1224.00,98.10
1223.00,98.03
1222.00,97.97
1221.00,97.92
1220.00,97.89
1219.00,97.87
1218.00,97.88
1217.00,97.92
1216.00,97.96
1215.00,98.01
1214.00,98.07
1213.00,98.11
1212.00,98.15
1211.00,98.18
1210.00,98.20
1209.00,98.22
1208.00,98.24
1207.00,98.27
1206.00,98.31
1205.00,98.35
1204.00,98.37
1203.00,98.37
1202.00,98.37
1201.00,98.38
1200.00,98.39
1199.00,98.40
1198.00,98.41
1197.00,98.41
1196.00,98.40
1195.00,98.39
1194.00,98.39
1193.00,98.39
1192.00,98.39
1191.00,98.40
1190.00,98.39
1189.00,98.39
1188.00,98.39
1187.00,98.38
1186.00,98.36
1185.00,98.35
1184.00,98.33
1183.00,98.32
1182.00,98.31
1181.00,98.27
1180.00,98.20
1179.00,98.10
1178.00,97.97
1177.00,97.82
1176.00,97.66
1175.00,97.46
1174.00,97.22
1173.00,96.92
1172.00,96.57
1171.00,96.19
1170.00,95.82
1169.00,95.51
1168.00,95.30
1167.00,95.22
1166.00,95.24
1165.00,95.35
1164.00,95.50
1163.00,95.64
1162.00,95.76
1161.00,95.84
1160.00,95.89
1159.00,95.91
1158.00,95.89
1157.00,95.86
1156.00,95.81
1155.00,95.75
1154.00,95.69
1153.00,95.62
1152.00,95.56
1151.00,95.56
1150.00,95.61
1149.00,95.70
1148.00,95.79
1147.00,95.88
1146.00,95.94
1145.00,95.98
1144.00,96.01
1143.00,96.05
1142.00,96.11
1141.00,96.16
1140.00,96.20
1139.00,96.21
1138.00,96.21
1137.00,96.21
1136.00,96.23
1135.00,96.26
1134.00,96.27
1133.00,96.26
1132.00,96.22
1131.00,96.17
1130.00,96.12
1129.00,96.09
1128.00,96.06
1127.00,96.04
1126.00,96.02
1125.00,96.00
1124.00,95.98
1123.00,95.94
1122.00,95.87
1121.00,95.82
1120.00,95.80
1119.00,95.84
1118.00,95.91
1117.00,95.98
1116.00,96.01
1115.00,96.01
1114.00,95.99
1113.00,95.95
1112.00,95.93
1111.00,95.92
1110.00,95.90
1109.00,95.84
1108.00,95.74
1107.00,95.62
1106.00,95.52
1105.00,95.45
1104.00,95.39
1103.00,95.34
1102.00,95.32
1101.00,95.34
1100.00,95.43
1099.00,95.55
1098.00,95.69
1097.00,95.82
1096.00,95.94
1095.00,96.03
1094.00,96.09
1093.00,96.11
1092.00,96.14
1091.00,96.18
1090.00,96.24
1089.00,96.32
1088.00,96.41
1087.00,96.49
1086.00,96.57
1085.00,96.65
1084.00,96.72
1083.00,96.77
1082.00,96.82
1081.00,96.86
1080.00,96.90
1079.00,96.93
1078.00,96.94
1077.00,96.95
1076.00,96.97
1075.00,96.99
1074.00,97.01
1073.00,97.03
1072.00,97.05
1071.00,97.06
1070.00,97.05
1069.00,97.03
1068.00,97.03
1067.00,97.06
1066.00,97.10
1065.00,97.14
1064.00,97.17
1063.00,97.19
1062.00,97.21
1061.00,97.24
1060.00,97.27
1059.00,97.33
1058.00,97.38
1057.00,97.42
1056.00,97.44
1055.00,97.46
1054.00,97.50
1053.00,97.55
1052.00,97.60
1051.00,97.62
1050.00,97.61
1049.00,97.56
1048.00,97.50
1047.00,97.44
1046.00,97.39
1045.00,97.36
1044.00,97.35
1043.00,97.37
1042.00,97.41
1041.00,97.48
1040.00,97.54
1039.00,97.58
1038.00,97.60
1037.00,97.61
1036.00,97.61
1035.00,97.61
1034.00,97.62
1033.00,97.65
1032.00,97.68
1031.00,97.72
1030.00,97.75
1029.00,97.78
1028.00,97.82
1027.00,97.86
1026.00,97.89
1025.00,97.92
1024.00,97.93
1023.00,97.94
1022.00,97.95
1021.00,97.95
1020.00,97.96
1019.00,97.96
1018.00,97.96
1017.00,97.96
1016.00,97.97
1015.00,97.98
1014.00,97.98
1013.00,97.96
1012.00,97.92
1011.00,97.87
1010.00,97.81
1009.00,97.75
1008.00,97.69
1007.00,97.61
1006.00,97.49
1005.00,97.32
1004.00,97.09
1003.00,96.77
1002.00,96.36
1001.00,95.86
1000.00,95.37
999.00,94.98
998.00,94.80
997.00,94.90
996.00,95.23
995.00,95.69
994.00,96.16
993.00,96.58
992.00,96.89
991.00,97.12
990.00,97.29
989.00,97.42
988.00,97.52
987.00,97.59
986.00,97.63
985.00,97.62
984.00,97.56
983.00,97.45
982.00,97.30
981.00,97.09
980.00,96.80
979.00,96.40
978.00,95.91
977.00,95.35
976.00,94.78
975.00,94.26
974.00,93.89
973.00,93.76
972.00,93.92
971.00,94.33
970.00,94.91
969.00,95.51
968.00,96.04
967.00,96.48
966.00,96.80
965.00,97.01
964.00,97.14
963.00,97.22
962.00,97.29
961.00,97.35
960.00,97.39
959.00,97.42
958.00,97.43
957.00,97.45
956.00,97.47
955.00,97.50
954.00,97.52
953.00,97.53
952.00,97.53
951.00,97.53
950.00,97.54
949.00,97.56
948.00,97.57
947.00,97.56
946.00,97.52
945.00,97.45
944.00,97.37
943.00,97.30
942.00,97.27
941.00,97.26
940.00,97.29
939.00,97.34
938.00,97.41
937.00,97.51
936.00,97.62
935.00,97.71
934.00,97.78
933.00,97.84
932.00,97.89
931.00,97.93
930.00,97.94
929.00,97.93
928.00,97.94
927.00,97.94
926.00,97.95
925.00,97.94
924.00,97.95
923.00,97.97
922.00,97.99
921.00,97.99
920.00,97.97
919.00,97.97
918.00,98.00
917.00,98.05
916.00,98.08
915.00,98.08
914.00,98.06
913.00,98.02
912.00,97.97
911.00,97.94
910.00,97.91
909.00,97.89
908.00,97.86
907.00,97.79
906.00,97.67
905.00,97.49
904.00,97.22
903.00,96.88
902.00,96.50
901.00,96.16
900.00,95.94
899.00,95.90
898.00,96.04
897.00,96.31
896.00,96.63
895.00,96.92
894.00,97.14
893.00,97.31
892.00,97.44
891.00,97.54
890.00,97.60
889.00,97.64
888.00,97.68
887.00,97.72
886.00,97.74
885.00,97.75
884.00,97.75
883.00,97.76
882.00,97.76
881.00,97.76
880.00,97.76
879.00,97.75
878.00,97.74
877.00,97.73
876.00,97.73
875.00,97.74
874.00,97.75
873.00,97.76
872.00,97.77
871.00,97.77
870.00,97.76
869.00,97.75
868.00,97.72
867.00,97.69
866.00,97.66
865.00,97.65
864.00,97.64
863.00,97.62
862.00,97.61
861.00,97.61
860.00,97.62
859.00,97.63
858.00,97.63
857.00,97.61
856.00,97.58
855.00,97.56
854.00,97.52
853.00,97.48
852.00,97.43
851.00,97.35
850.00,97.25
849.00,97.14
848.00,97.03
847.00,96.89
846.00,96.66
845.00,96.29
844.00,95.77
843.00,95.17
842.00,94.67
841.00,94.45
840.00,94.61
839.00,95.08
838.00,95.66
837.00,96.18
836.00,96.56
835.00,96.80
834.00,96.95
833.00,97.06
832.00,97.13
831.00,97.18
830.00,97.21
829.00,97.24
828.00,97.30
827.00,97.36
826.00,97.39
825.00,97.40
824.00,97.38
823.00,97.37
822.00,97.36
821.00,97.34
820.00,97.31
819.00,97.27
818.00,97.20
817.00,97.11
816.00,96.99
815.00,96.82
814.00,96.59
813.00,96.30
812.00,95.96
811.00,95.66
810.00,95.44
809.00,95.35
808.00,95.41
807.00,95.59
806.00,95.85
805.00,96.13
804.00,96.40
803.00,96.63
802.00,96.82
801.00,96.97
800.00,97.10
799.00,97.19
798.00,97.24
797.00,97.25
796.00,97.26
795.00,97.29
794.00,97.36
793.00,97.44
792.00,97.51
791.00,97.55
790.00,97.56
789.00,97.56
788.00,97.54
787.00,97.53
786.00,97.52
785.00,97.50
784.00,97.47
783.00,97.43
782.00,97.41
781.00,97.43
780.00,97.48
779.00,97.54
778.00,97.58
777.00,97.60
776.00,97.64
775.00,97.71
774.00,97.79
773.00,97.84
772.00,97.85
771.00,97.82
770.00,97.78
769.00,97.76
768.00,97.75
767.00,97.73
766.00,97.70
765.00,97.69
764.00,97.70
763.00,97.72
762.00,97.73
761.00,97.72
760.00,97.69
759.00,97.66
758.00,97.60
757.00,97.52
756.00,97.45
755.00,97.42
754.00,97.45
753.00,97.51
752.00,97.56
751.00,97.57
750.00,97.55
749.00,97.52
748.00,97.48
747.00,97.46
746.00,97.46
745.00,97.45
744.00,97.44
743.00,97.40
742.00,97.37
741.00,97.36
740.00,97.37
739.00,97.39
738.00,97.40
737.00,97.38
736.00,97.32
735.00,97.19
734.00,97.00
733.00,96.79
732.00,96.65
731.00,96.63
730.00,96.73
729.00,96.90
728.00,97.05
727.00,97.16
726.00,97.21
725.00,97.20
724.00,97.16
723.00,97.12
722.00,97.10
721.00,97.09
720.00,97.07
719.00,97.04
718.00,97.01
717.00,97.02
716.00,97.04
715.00,97.06
714.00,97.07
713.00,97.08
712.00,97.08
711.00,97.08
710.00,97.07
709.00,97.06
708.00,97.04
707.00,97.03
706.00,97.01
705.00,96.98
704.00,96.94
703.00,96.91
702.00,96.92
701.00,96.97
700.00,97.03
699.00,97.07
698.00,97.05
697.00,96.99
696.00,96.93
695.00,96.90
694.00,96.89
693.00,96.88
692.00,96.88
691.00,96.88
690.00,96.91
689.00,96.94
688.00,96.96
687.00,96.98
686.00,97.00
685.00,97.01
684.00,97.00
683.00,96.98
682.00,96.96
681.00,96.94
680.00,96.91
679.00,96.88
678.00,96.88
677.00,96.89
676.00,96.89
675.00,96.89
674.00,96.91
673.00,96.93
672.00,96.93
671.00,96.91
670.00,96.82
669.00,96.70
668.00,96.57
667.00,96.41
666.00,96.33
665.00,96.45
664.00,96.60
663.00,96.66
662.00,96.66
661.00,96.68
660.00,96.70
659.00,96.73
658.00,96.73
657.00,96.70
656.00,96.63
655.00,96.59
654.00,96.62
653.00,96.69
652.00,96.72
651.00,96.67
650.00,96.60
649.00,96.58
648.00,96.64
647.00,96.69
646.00,96.68
645.00,96.64
644.00,96.59
643.00,96.58
642.00,96.62
641.00,96.66
640.00,96.67
639.00,96.65
638.00,96.62
637.00,96.61
636.00,96.62
635.00,96.64
634.00,96.66
633.00,96.71
632.00,96.77
631.00,96.82
630.00,96.85
629.00,96.87
628.00,96.86
627.00,96.80
626.00,96.69
625.00,96.57
624.00,96.44
623.00,96.31
622.00,96.22
621.00,96.25
620.00,96.39
619.00,96.52
618.00,96.52
617.00,96.41
616.00,96.34
615.00,96.40
614.00,96.55
613.00,96.73
612.00,96.87
611.00,96.93
610.00,96.87
609.00,96.70
608.00,96.51
607.00,96.41
606.00,96.45
605.00,96.58
604.00,96.67
603.00,96.61
602.00,96.43
601.00,96.22
600.00,96.09
599.00,96.09
598.00,96.21
597.00,96.35
596.00,96.37
595.00,96.21
594.00,96.00
593.00,95.88
592.00,95.90
591.00,95.95
590.00,95.97
589.00,96.09
588.00,96.42
587.00,96.87
586.00,97.21
585.00,97.28
584.00,97.10
583.00,96.74
582.00,96.25
581.00,95.75
580.00,95.40
579.00,95.34
578.00,95.59
577.00,96.02
576.00,96.42
575.00,96.53
574.00,96.28
573.00,95.91
572.00,95.69
571.00,95.75
570.00,95.97
569.00,96.16
568.00,96.21
567.00,96.08
566.00,95.76
565.00,95.38
564.00,95.18
563.00,95.28
562.00,95.55
561.00,95.71
560.00,95.66
559.00,95.56
558.00,95.57
557.00,95.59
556.00,95.34
555.00,94.75
554.00,94.14
553.00,93.84
552.00,93.82
551.00,93.69
550.00,93.25
