Created as New Dataset,125 Philips
cm-1,%T
4000.00,103.15
3999.00,103.13
3998.00,103.12
3997.00,103.11
3996.00,103.10
3995.00,103.09
3994.00,103.08
3993.00,103.07
3992.00,103.06
3991.00,103.06
3990.00,103.07
3989.00,103.09
3988.00,103.10
3987.00,103.11
3986.00,103.11
3985.00,103.10
3984.00,103.08
3983.00,103.07
3982.00,103.07
3981.00,103.07
3980.00,103.06
3979.00,103.04
3978.00,103.03
3977.00,103.01
3976.00,103.01
3975.00,103.02
3974.00,103.04
3973.00,103.06
3972.00,103.07
3971.00,103.07
3970.00,103.06
3969.00,103.05
3968.00,103.05
3967.00,103.07
3966.00,103.09
3965.00,103.12
3964.00,103.14
3963.00,103.14
3962.00,103.14
3961.00,103.13
3960.00,103.13
3959.00,103.13
3958.00,103.14
3957.00,103.13
3956.00,103.12
3955.00,103.11
3954.00,103.11
3953.00,103.12
3952.00,103.13
3951.00,103.13
3950.00,103.13
3949.00,103.12
3948.00,103.13
3947.00,103.14
3946.00,103.14
3945.00,103.13
3944.00,103.11
3943.00,103.09
3942.00,103.09
3941.00,103.10
3940.00,103.13
3939.00,103.15
3938.00,103.15
3937.00,103.14
3936.00,103.11
3935.00,103.08
3934.00,103.06
3933.00,103.05
3932.00,103.03
3931.00,103.01
3930.00,103.00
3929.00,103.00
3928.00,103.01
3927.00,103.02
3926.00,103.03
3925.00,103.04
3924.00,103.05
3923.00,103.06
3922.00,103.07
3921.00,103.07
3920.00,103.06
3919.00,103.06
3918.00,103.06
3917.00,103.08
3916.00,103.10
3915.00,103.11
3914.00,103.11
3913.00,103.10
3912.00,103.09
3911.00,103.09
3910.00,103.09
3909.00,103.09
3908.00,103.09
3907.00,103.10
3906.00,103.11
3905.00,103.11
3904.00,103.11
3903.00,103.11
3902.00,103.10
3901.00,103.11
3900.00,103.13
3899.00,103.14
3898.00,103.15
3897.00,103.14
3896.00,103.13
3895.00,103.11
3894.00,103.09
3893.00,103.08
3892.00,103.08
3891.00,103.10
3890.00,103.13
3889.00,103.15
3888.00,103.14
3887.00,103.11
3886.00,103.08
3885.00,103.06
3884.00,103.06
3883.00,103.08
3882.00,103.10
3881.00,103.10
3880.00,103.10
3879.00,103.10
3878.00,103.09
3877.00,103.09
3876.00,103.07
3875.00,103.05
3874.00,103.04
3873.00,103.03
3872.00,103.03
3871.00,103.04
3870.00,103.06
3869.00,103.08
3868.00,103.10
3867.00,103.12
3866.00,103.11
3865.00,103.11
3864.00,103.09
3863.00,103.07
3862.00,103.07
3861.00,103.08
3860.00,103.09
3859.00,103.10
3858.00,103.11
3857.00,103.13
3856.00,103.15
3855.00,103.17
3854.00,103.16
3853.00,103.14
3852.00,103.13
3851.00,103.12
3850.00,103.11
3849.00,103.08
3848.00,103.07
3847.00,103.06
3846.00,103.06
3845.00,103.07
3844.00,103.08
3843.00,103.10
3842.00,103.12
3841.00,103.13
3840.00,103.13
3839.00,103.13
3838.00,103.13
3837.00,103.13
3836.00,103.14
3835.00,103.16
3834.00,103.17
3833.00,103.17
3832.00,103.15
3831.00,103.13
3830.00,103.12
3829.00,103.11
3828.00,103.10
3827.00,103.10
3826.00,103.08
3825.00,103.07
3824.00,103.07
3823.00,103.09
3822.00,103.11
3821.00,103.13
3820.00,103.14
3819.00,103.15
3818.00,103.14
3817.00,103.11
3816.00,103.06
3815.00,103.02
3814.00,102.98
3813.00,102.95
3812.00,102.92
3811.00,102.90
3810.00,102.89
3809.00,102.89
3808.00,102.90
3807.00,102.94
3806.00,102.99
3805.00,103.05
3804.00,103.08
3803.00,103.09
3802.00,103.08
3801.00,103.07
3800.00,103.07
3799.00,103.08
3798.00,103.08
3797.00,103.06
3796.00,103.04
3795.00,103.01
3794.00,103.00
3793.00,102.98
3792.00,102.95
3791.00,102.92
3790.00,102.89
3789.00,102.88
3788.00,102.88
3787.00,102.88
3786.00,102.88
3785.00,102.88
3784.00,102.88
3783.00,102.89
3782.00,102.91
3781.00,102.94
3780.00,102.96
3779.00,102.96
3778.00,102.95
3777.00,102.93
3776.00,102.91
3775.00,102.89
3774.00,102.89
3773.00,102.89
3772.00,102.89
3771.00,102.90
3770.00,102.91
3769.00,102.93
3768.00,102.95
3767.00,102.95
3766.00,102.94
3765.00,102.92
3764.00,102.90
3763.00,102.89
3762.00,102.87
3761.00,102.86
3760.00,102.85
3759.00,102.85
3758.00,102.87
3757.00,102.90
3756.00,102.94
3755.00,102.96
3754.00,102.99
3753.00,103.01
3752.00,103.03
3751.00,103.02
3750.00,102.99
3749.00,102.98
3748.00,102.99
3747.00,103.00
3746.00,103.01
3745.00,103.00
3744.00,103.00
3743.00,102.99
3742.00,102.99
3741.00,102.98
3740.00,102.98
3739.00,102.98
3738.00,102.97
3737.00,102.95
3736.00,102.93
3735.00,102.92
3734.00,102.93
3733.00,102.94
3732.00,102.95
3731.00,102.95
3730.00,102.95
3729.00,102.95
3728.00,102.95
3727.00,102.94
3726.00,102.92
3725.00,102.90
3724.00,102.87
3723.00,102.83
3722.00,102.80
3721.00,102.78
3720.00,102.77
3719.00,102.78
3718.00,102.79
3717.00,102.80
3716.00,102.80
3715.00,102.81
3714.00,102.84
3713.00,102.88
3712.00,102.93
3711.00,102.96
3710.00,102.96
3709.00,102.94
3708.00,102.90
3707.00,102.87
3706.00,102.85
3705.00,102.85
3704.00,102.87
3703.00,102.87
3702.00,102.86
3701.00,102.86
3700.00,102.86
3699.00,102.87
3698.00,102.87
3697.00,102.86
3696.00,102.83
3695.00,102.79
3694.00,102.77
3693.00,102.76
3692.00,102.76
3691.00,102.76
3690.00,102.79
3689.00,102.83
3688.00,102.88
3687.00,102.91
3686.00,102.91
3685.00,102.89
3684.00,102.85
3683.00,102.82
3682.00,102.78
3681.00,102.75
3680.00,102.74
3679.00,102.76
3678.00,102.81
3677.00,102.86
3676.00,102.88
3675.00,102.87
3674.00,102.87
3673.00,102.88
3672.00,102.90
3671.00,102.91
3670.00,102.92
3669.00,102.92
3668.00,102.90
3667.00,102.87
3666.00,102.82
3665.00,102.76
3664.00,102.71
3663.00,102.68
3662.00,102.67
3661.00,102.68
3660.00,102.71
3659.00,102.75
3658.00,102.78
3657.00,102.79
3656.00,102.78
3655.00,102.76
3654.00,102.76
3653.00,102.77
3652.00,102.80
3651.00,102.84
3650.00,102.87
3649.00,102.87
3648.00,102.85
3647.00,102.84
3646.00,102.83
3645.00,102.81
3644.00,102.78
3643.00,102.76
3642.00,102.74
3641.00,102.73
3640.00,102.71
3639.00,102.70
3638.00,102.69
3637.00,102.70
3636.00,102.72
3635.00,102.74
3634.00,102.76
3633.00,102.78
3632.00,102.82
3631.00,102.87
3630.00,102.91
3629.00,102.92
3628.00,102.91
3627.00,102.89
3626.00,102.88
3625.00,102.86
3624.00,102.83
3623.00,102.81
3622.00,102.79
3621.00,102.80
3620.00,102.79
3619.00,102.78
3618.00,102.75
3617.00,102.73
3616.00,102.73
3615.00,102.74
3614.00,102.76
3613.00,102.77
3612.00,102.78
3611.00,102.79
3610.00,102.81
3609.00,102.82
3608.00,102.80
3607.00,102.76
3606.00,102.71
3605.00,102.68
3604.00,102.66
3603.00,102.66
3602.00,102.67
3601.00,102.67
3600.00,102.67
3599.00,102.65
3598.00,102.64
3597.00,102.63
3596.00,102.65
3595.00,102.68
3594.00,102.71
3593.00,102.73
3592.00,102.72
3591.00,102.70
3590.00,102.68
3589.00,102.66
3588.00,102.66
3587.00,102.67
3586.00,102.68
3585.00,102.69
3584.00,102.68
3583.00,102.67
3582.00,102.66
3581.00,102.65
3580.00,102.65
3579.00,102.66
3578.00,102.66
3577.00,102.66
3576.00,102.65
3575.00,102.63
3574.00,102.61
3573.00,102.60
3572.00,102.59
3571.00,102.59
3570.00,102.59
3569.00,102.61
3568.00,102.63
3567.00,102.65
3566.00,102.65
3565.00,102.65
3564.00,102.64
3563.00,102.64
3562.00,102.62
3561.00,102.60
3560.00,102.58
3559.00,102.55
3558.00,102.54
3557.00,102.53
3556.00,102.54
3555.00,102.56
3554.00,102.58
3553.00,102.59
3552.00,102.59
3551.00,102.59
3550.00,102.59
3549.00,102.59
3548.00,102.59
3547.00,102.59
3546.00,102.59
3545.00,102.60
3544.00,102.60
3543.00,102.58
3542.00,102.55
3541.00,102.53
3540.00,102.53
3539.00,102.54
3538.00,102.55
3537.00,102.56
3536.00,102.55
3535.00,102.53
3534.00,102.53
3533.00,102.53
3532.00,102.54
3531.00,102.53
3530.00,102.51
3529.00,102.50
3528.00,102.49
3527.00,102.49
3526.00,102.48
3525.00,102.47
3524.00,102.45
3523.00,102.45
3522.00,102.44
3521.00,102.44
3520.00,102.44
3519.00,102.45
3518.00,102.45
3517.00,102.45
3516.00,102.45
3515.00,102.46
3514.00,102.46
3513.00,102.45
3512.00,102.45
3511.00,102.45
3510.00,102.45
3509.00,102.45
3508.00,102.45
3507.00,102.44
3506.00,102.44
3505.00,102.43
3504.00,102.42
3503.00,102.40
3502.00,102.39
3501.00,102.39
3500.00,102.42
3499.00,102.44
3498.00,102.46
3497.00,102.45
3496.00,102.43
3495.00,102.41
3494.00,102.41
3493.00,102.41
3492.00,102.42
3491.00,102.43
3490.00,102.42
3489.00,102.39
3488.00,102.36
3487.00,102.33
3486.00,102.32
3485.00,102.33
3484.00,102.35
3483.00,102.36
3482.00,102.37
3481.00,102.38
3480.00,102.38
3479.00,102.38
3478.00,102.38
3477.00,102.36
3476.00,102.35
3475.00,102.33
3474.00,102.32
3473.00,102.32
3472.00,102.33
3471.00,102.34
3470.00,102.35
3469.00,102.38
3468.00,102.41
3467.00,102.43
3466.00,102.43
3465.00,102.42
3464.00,102.41
3463.00,102.40
3462.00,102.39
3461.00,102.37
3460.00,102.34
3459.00,102.33
3458.00,102.32
3457.00,102.31
3456.00,102.30
3455.00,102.28
3454.00,102.27
3453.00,102.26
3452.00,102.27
3451.00,102.29
3450.00,102.31
3449.00,102.33
3448.00,102.33
3447.00,102.32
3446.00,102.31
3445.00,102.29
3444.00,102.28
3443.00,102.27
3442.00,102.26
3441.00,102.25
3440.00,102.25
3439.00,102.27
3438.00,102.29
3437.00,102.30
3436.00,102.30
3435.00,102.29
3434.00,102.28
3433.00,102.28
3432.00,102.27
3431.00,102.26
3430.00,102.26
3429.00,102.24
3428.00,102.23
3427.00,102.24
3426.00,102.26
3425.00,102.27
3424.00,102.28
3423.00,102.26
3422.00,102.23
3421.00,102.21
3420.00,102.21
3419.00,102.23
3418.00,102.25
3417.00,102.26
3416.00,102.26
3415.00,102.26
3414.00,102.26
3413.00,102.26
3412.00,102.25
3411.00,102.25
3410.00,102.25
3409.00,102.25
3408.00,102.27
3407.00,102.29
3406.00,102.30
3405.00,102.29
3404.00,102.26
3403.00,102.24
3402.00,102.23
3401.00,102.24
3400.00,102.25
3399.00,102.26
3398.00,102.26
3397.00,102.26
3396.00,102.25
3395.00,102.24
3394.00,102.23
3393.00,102.23
3392.00,102.24
3391.00,102.25
3390.00,102.26
3389.00,102.27
3388.00,102.27
3387.00,102.27
3386.00,102.27
3385.00,102.26
3384.00,102.25
3383.00,102.25
3382.00,102.25
3381.00,102.24
3380.00,102.23
3379.00,102.21
3378.00,102.21
3377.00,102.21
3376.00,102.22
3375.00,102.22
3374.00,102.22
3373.00,102.22
3372.00,102.24
3371.00,102.25
3370.00,102.27
3369.00,102.27
3368.00,102.27
3367.00,102.27
3366.00,102.27
3365.00,102.27
3364.00,102.28
3363.00,102.29
3362.00,102.30
3361.00,102.30
3360.00,102.29
3359.00,102.28
3358.00,102.27
3357.00,102.27
3356.00,102.26
3355.00,102.25
3354.00,102.24
3353.00,102.24
3352.00,102.24
3351.00,102.23
3350.00,102.22
3349.00,102.20
3348.00,102.19
3347.00,102.17
3346.00,102.17
3345.00,102.18
3344.00,102.20
3343.00,102.22
3342.00,102.24
3341.00,102.25
3340.00,102.25
3339.00,102.23
3338.00,102.22
3337.00,102.20
3336.00,102.19
3335.00,102.19
3334.00,102.19
3333.00,102.19
3332.00,102.18
3331.00,102.19
3330.00,102.20
3329.00,102.22
3328.00,102.23
3327.00,102.23
3326.00,102.24
3325.00,102.24
3324.00,102.23
3323.00,102.22
3322.00,102.21
3321.00,102.20
3320.00,102.19
3319.00,102.19
3318.00,102.20
3317.00,102.21
3316.00,102.20
3315.00,102.19
3314.00,102.18
3313.00,102.18
3312.00,102.20
3311.00,102.21
3310.00,102.22
3309.00,102.22
3308.00,102.23
3307.00,102.24
3306.00,102.24
3305.00,102.24
3304.00,102.22
3303.00,102.20
3302.00,102.19
3301.00,102.19
3300.00,102.21
3299.00,102.22
3298.00,102.24
3297.00,102.24
3296.00,102.23
3295.00,102.21
3294.00,102.19
3293.00,102.17
3292.00,102.16
3291.00,102.17
3290.00,102.20
3289.00,102.23
3288.00,102.25
3287.00,102.26
3286.00,102.25
3285.00,102.23
3284.00,102.21
3283.00,102.21
3282.00,102.22
3281.00,102.24
3280.00,102.24
3279.00,102.23
3278.00,102.21
3277.00,102.19
3276.00,102.17
3275.00,102.18
3274.00,102.19
3273.00,102.21
3272.00,102.21
3271.00,102.19
3270.00,102.17
3269.00,102.15
3268.00,102.16
3267.00,102.18
3266.00,102.20
3265.00,102.21
3264.00,102.21
3263.00,102.20
3262.00,102.20
3261.00,102.19
3260.00,102.19
3259.00,102.18
3258.00,102.17
3257.00,102.16
3256.00,102.17
3255.00,102.18
3254.00,102.20
3253.00,102.22
3252.00,102.22
3251.00,102.21
3250.00,102.18
3249.00,102.17
3248.00,102.17
3247.00,102.17
3246.00,102.17
3245.00,102.17
3244.00,102.17
3243.00,102.17
3242.00,102.18
3241.00,102.19
3240.00,102.19
3239.00,102.20
3238.00,102.21
3237.00,102.20
3236.00,102.19
3235.00,102.19
3234.00,102.18
3233.00,102.18
3232.00,102.19
3231.00,102.19
3230.00,102.17
3229.00,102.15
3228.00,102.12
3227.00,102.12
3226.00,102.12
3225.00,102.14
3224.00,102.15
3223.00,102.14
3222.00,102.12
3221.00,102.08
3220.00,102.05
3219.00,102.03
3218.00,102.03
3217.00,102.04
3216.00,102.05
3215.00,102.06
3214.00,102.07
3213.00,102.08
3212.00,102.09
3211.00,102.09
3210.00,102.09
3209.00,102.08
3208.00,102.09
3207.00,102.10
3206.00,102.11
3205.00,102.11
3204.00,102.11
3203.00,102.10
3202.00,102.10
3201.00,102.10
3200.00,102.09
3199.00,102.07
3198.00,102.05
3197.00,102.04
3196.00,102.04
3195.00,102.05
3194.00,102.04
3193.00,102.03
3192.00,102.03
3191.00,102.05
3190.00,102.07
3189.00,102.09
3188.00,102.11
3187.00,102.12
3186.00,102.13
3185.00,102.13
3184.00,102.12
3183.00,102.10
3182.00,102.10
3181.00,102.10
3180.00,102.10
3179.00,102.09
3178.00,102.09
3177.00,102.09
3176.00,102.09
3175.00,102.10
3174.00,102.10
3173.00,102.09
3172.00,102.09
3171.00,102.08
3170.00,102.08
3169.00,102.08
3168.00,102.08
3167.00,102.07
3166.00,102.08
3165.00,102.08
3164.00,102.08
3163.00,102.08
3162.00,102.09
3161.00,102.09
3160.00,102.11
3159.00,102.12
3158.00,102.12
3157.00,102.10
3156.00,102.09
3155.00,102.08
3154.00,102.08
3153.00,102.08
3152.00,102.08
3151.00,102.08
3150.00,102.08
3149.00,102.08
3148.00,102.08
3147.00,102.09
3146.00,102.10
3145.00,102.11
3144.00,102.12
3143.00,102.12
3142.00,102.11
3141.00,102.10
3140.00,102.10
3139.00,102.10
3138.00,102.09
3137.00,102.09
3136.00,102.09
3135.00,102.09
3134.00,102.08
3133.00,102.09
3132.00,102.10
3131.00,102.12
3130.00,102.14
3129.00,102.15
3128.00,102.15
3127.00,102.14
3126.00,102.12
3125.00,102.11
3124.00,102.10
3123.00,102.10
3122.00,102.11
3121.00,102.12
3120.00,102.13
3119.00,102.13
3118.00,102.13
3117.00,102.13
3116.00,102.13
3115.00,102.12
3114.00,102.11
3113.00,102.11
3112.00,102.12
3111.00,102.12
3110.00,102.12
3109.00,102.12
3108.00,102.11
3107.00,102.12
3106.00,102.12
3105.00,102.11
3104.00,102.11
3103.00,102.10
3102.00,102.11
3101.00,102.12
3100.00,102.14
3099.00,102.14
3098.00,102.14
3097.00,102.13
3096.00,102.12
3095.00,102.11
3094.00,102.11
3093.00,102.11
3092.00,102.12
3091.00,102.14
3090.00,102.15
3089.00,102.15
3088.00,102.14
3087.00,102.13
3086.00,102.12
3085.00,102.11
3084.00,102.12
3083.00,102.13
3082.00,102.14
3081.00,102.14
3080.00,102.14
3079.00,102.14
3078.00,102.13
3077.00,102.12
3076.00,102.12
3075.00,102.11
3074.00,102.11
3073.00,102.10
3072.00,102.09
3071.00,102.09
3070.00,102.09
3069.00,102.08
3068.00,102.07
3067.00,102.07
3066.00,102.06
3065.00,102.06
3064.00,102.07
3063.00,102.07
3062.00,102.08
3061.00,102.07
3060.00,102.06
3059.00,102.04
3058.00,102.05
3057.00,102.07
3056.00,102.09
3055.00,102.10
3054.00,102.10
3053.00,102.09
3052.00,102.07
3051.00,102.06
3050.00,102.06
3049.00,102.06
3048.00,102.07
3047.00,102.07
3046.00,102.07
3045.00,102.06
3044.00,102.05
3043.00,102.04
3042.00,102.03
3041.00,102.02
3040.00,102.02
3039.00,102.02
3038.00,102.01
3037.00,102.00
3036.00,101.99
3035.00,101.99
3034.00,101.98
3033.00,101.97
3032.00,101.97
3031.00,101.97
3030.00,101.98
3029.00,101.99
3028.00,101.99
3027.00,101.99
3026.00,101.98
3025.00,101.95
3024.00,101.92
3023.00,101.88
3022.00,101.86
3021.00,101.85
3020.00,101.84
3019.00,101.83
3018.00,101.81
3017.00,101.79
3016.00,101.77
3015.00,101.74
3014.00,101.73
3013.00,101.73
3012.00,101.73
3011.00,101.73
3010.00,101.71
3009.00,101.68
3008.00,101.64
3007.00,101.59
3006.00,101.54
3005.00,101.49
3004.00,101.44
3003.00,101.40
3002.00,101.36
3001.00,101.33
3000.00,101.29
2999.00,101.24
2998.00,101.17
2997.00,101.11
2996.00,101.03
2995.00,100.95
2994.00,100.87
2993.00,100.77
2992.00,100.68
2991.00,100.57
2990.00,100.47
2989.00,100.36
2988.00,100.24
2987.00,100.09
2986.00,99.93
2985.00,99.74
2984.00,99.53
2983.00,99.31
2982.00,99.08
2981.00,98.84
2980.00,98.55
2979.00,98.22
2978.00,97.85
2977.00,97.44
2976.00,96.99
2975.00,96.48
2974.00,95.90
2973.00,95.26
2972.00,94.55
2971.00,93.79
2970.00,92.96
2969.00,92.08
2968.00,91.15
2967.00,90.17
2966.00,89.18
2965.00,88.20
2964.00,87.26
2963.00,86.41
2962.00,85.66
2961.00,85.03
2960.00,84.46
2959.00,83.92
2958.00,83.34
2957.00,82.69
2956.00,81.92
2955.00,81.03
2954.00,80.05
2953.00,79.07
2952.00,78.23
2951.00,77.66
2950.00,77.48
2949.00,77.75
2948.00,78.49
2947.00,79.63
2946.00,81.06
2945.00,82.63
2944.00,84.17
2943.00,85.55
2942.00,86.69
2941.00,87.54
2940.00,88.08
2939.00,88.33
2938.00,88.32
2937.00,88.06
2936.00,87.60
2935.00,86.96
2934.00,86.14
2933.00,85.17
2932.00,84.09
2931.00,82.91
2930.00,81.67
2929.00,80.41
2928.00,79.18
2927.00,78.00
2926.00,76.87
2925.00,75.79
2924.00,74.76
2923.00,73.74
2922.00,72.75
2921.00,71.80
2920.00,70.96
2919.00,70.33
2918.00,70.01
2917.00,70.04
2916.00,70.43
2915.00,71.12
2914.00,71.99
2913.00,72.95
2912.00,73.92
2911.00,74.83
2910.00,75.67
2909.00,76.44
2908.00,77.19
2907.00,77.95
2906.00,78.73
2905.00,79.53
2904.00,80.34
2903.00,81.15
2902.00,81.95
2901.00,82.73
2900.00,83.47
2899.00,84.17
2898.00,84.82
2897.00,85.41
2896.00,85.94
2895.00,86.39
2894.00,86.78
2893.00,87.09
2892.00,87.33
2891.00,87.49
2890.00,87.57
2889.00,87.58
2888.00,87.53
2887.00,87.43
2886.00,87.30
2885.00,87.14
2884.00,86.93
2883.00,86.65
2882.00,86.31
2881.00,85.93
2880.00,85.55
2879.00,85.21
2878.00,84.96
2877.00,84.82
2876.00,84.78
2875.00,84.81
2874.00,84.85
2873.00,84.84
2872.00,84.75
2871.00,84.58
2870.00,84.36
2869.00,84.16
2868.00,84.05
2867.00,84.14
2866.00,84.51
2865.00,85.21
2864.00,86.24
2863.00,87.49
2862.00,88.85
2861.00,90.18
2860.00,91.37
2859.00,92.37
2858.00,93.16
2857.00,93.75
2856.00,94.17
2855.00,94.44
2854.00,94.57
2853.00,94.58
2852.00,94.47
2851.00,94.25
2850.00,93.92
2849.00,93.48
2848.00,92.94
2847.00,92.29
2846.00,91.55
2845.00,90.72
2844.00,89.83
2843.00,88.93
2842.00,88.06
2841.00,87.29
2840.00,86.68
2839.00,86.30
2838.00,86.21
2837.00,86.47
2836.00,87.08
2835.00,88.00
2834.00,89.17
2833.00,90.45
2832.00,91.74
2831.00,92.96
2830.00,94.04
2829.00,94.95
2828.00,95.69
2827.00,96.27
2826.00,96.74
2825.00,97.12
2824.00,97.45
2823.00,97.74
2822.00,98.00
2821.00,98.21
2820.00,98.39
2819.00,98.54
2818.00,98.68
2817.00,98.81
2816.00,98.92
2815.00,99.02
2814.00,99.11
2813.00,99.21
2812.00,99.29
2811.00,99.38
2810.00,99.47
2809.00,99.55
2808.00,99.64
2807.00,99.73
2806.00,99.82
2805.00,99.92
2804.00,100.01
2803.00,100.09
2802.00,100.17
2801.00,100.25
2800.00,100.32
2799.00,100.37
2798.00,100.41
2797.00,100.44
2796.00,100.47
2795.00,100.51
2794.00,100.55
2793.00,100.59
2792.00,100.62
2791.00,100.65
2790.00,100.68
2789.00,100.72
2788.00,100.77
2787.00,100.82
2786.00,100.87
2785.00,100.91
2784.00,100.96
2783.00,101.00
2782.00,101.03
2781.00,101.05
2780.00,101.07
2779.00,101.08
2778.00,101.09
2777.00,101.11
2776.00,101.13
2775.00,101.16
2774.00,101.19
2773.00,101.21
2772.00,101.22
2771.00,101.23
2770.00,101.24
2769.00,101.25
2768.00,101.26
2767.00,101.26
2766.00,101.26
2765.00,101.26
2764.00,101.26
2763.00,101.27
2762.00,101.28
2761.00,101.31
2760.00,101.33
2759.00,101.35
2758.00,101.36
2757.00,101.37
2756.00,101.37
2755.00,101.37
2754.00,101.37
2753.00,101.37
2752.00,101.37
2751.00,101.37
2750.00,101.36
2749.00,101.34
2748.00,101.33
2747.00,101.33
2746.00,101.34
2745.00,101.34
2744.00,101.32
2743.00,101.28
2742.00,101.25
2741.00,101.23
2740.00,101.22
2739.00,101.21
2738.00,101.18
2737.00,101.16
2736.00,101.13
2735.00,101.10
2734.00,101.08
2733.00,101.05
2732.00,101.03
2731.00,101.00
2730.00,100.98
2729.00,100.94
2728.00,100.90
2727.00,100.84
2726.00,100.77
2725.00,100.72
2724.00,100.68
2723.00,100.67
2722.00,100.68
2721.00,100.71
2720.00,100.77
2719.00,100.83
2718.00,100.89
2717.00,100.94
2716.00,100.98
2715.00,101.01
2714.00,101.05
2713.00,101.09
2712.00,101.14
2711.00,101.18
2710.00,101.22
2709.00,101.25
2708.00,101.27
2707.00,101.29
2706.00,101.30
2705.00,101.32
2704.00,101.33
2703.00,101.35
2702.00,101.37
2701.00,101.40
2700.00,101.41
2699.00,101.42
2698.00,101.41
2697.00,101.41
2696.00,101.42
2695.00,101.43
2694.00,101.43
2693.00,101.42
2692.00,101.40
2691.00,101.38
2690.00,101.38
2689.00,101.39
2688.00,101.40
2687.00,101.41
2686.00,101.41
2685.00,101.41
2684.00,101.41
2683.00,101.41
2682.00,101.40
2681.00,101.39
2680.00,101.37
2679.00,101.36
2678.00,101.36
2677.00,101.37
2676.00,101.38
2675.00,101.38
2674.00,101.38
2673.00,101.38
2672.00,101.38
2671.00,101.38
2670.00,101.39
2669.00,101.40
2668.00,101.41
2667.00,101.41
2666.00,101.41
2665.00,101.40
2664.00,101.39
2663.00,101.38
2662.00,101.36
2661.00,101.35
2660.00,101.34
2659.00,101.33
2658.00,101.32
2657.00,101.31
2656.00,101.30
2655.00,101.30
2654.00,101.31
2653.00,101.32
2652.00,101.33
2651.00,101.33
2650.00,101.32
2649.00,101.32
2648.00,101.31
2647.00,101.30
2646.00,101.29
2645.00,101.29
2644.00,101.29
2643.00,101.28
2642.00,101.28
2641.00,101.27
2640.00,101.27
2639.00,101.28
2638.00,101.31
2637.00,101.33
2636.00,101.34
2635.00,101.34
2634.00,101.32
2633.00,101.31
2632.00,101.29
2631.00,101.27
2630.00,101.26
2629.00,101.25
2628.00,101.23
2627.00,101.22
2626.00,101.20
2625.00,101.18
2624.00,101.16
2623.00,101.15
2622.00,101.15
2621.00,101.14
2620.00,101.14
2619.00,101.15
2618.00,101.15
2617.00,101.15
2616.00,101.14
2615.00,101.12
2614.00,101.12
2613.00,101.13
2612.00,101.15
2611.00,101.17
2610.00,101.19
2609.00,101.21
2608.00,101.21
2607.00,101.21
2606.00,101.22
2605.00,101.23
2604.00,101.23
2603.00,101.22
2602.00,101.22
2601.00,101.22
2600.00,101.21
2599.00,101.21
2598.00,101.19
2597.00,101.17
2596.00,101.15
2595.00,101.14
2594.00,101.14
2593.00,101.15
2592.00,101.16
2591.00,101.16
2590.00,101.14
2589.00,101.09
2588.00,101.04
2587.00,101.00
2586.00,100.97
2585.00,100.95
2584.00,100.95
2583.00,100.94
2582.00,100.92
2581.00,100.89
2580.00,100.88
2579.00,100.89
2578.00,100.93
2577.00,100.96
2576.00,101.00
2575.00,101.03
2574.00,101.05
2573.00,101.07
2572.00,101.09
2571.00,101.10
2570.00,101.11
2569.00,101.11
2568.00,101.12
2567.00,101.12
2566.00,101.13
2565.00,101.13
2564.00,101.13
2563.00,101.14
2562.00,101.15
2561.00,101.15
2560.00,101.15
2559.00,101.16
2558.00,101.18
2557.00,101.19
2556.00,101.21
2555.00,101.22
2554.00,101.23
2553.00,101.23
2552.00,101.22
2551.00,101.20
2550.00,101.19
2549.00,101.19
2548.00,101.20
2547.00,101.22
2546.00,101.23
2545.00,101.23
2544.00,101.24
2543.00,101.25
2542.00,101.25
2541.00,101.24
2540.00,101.22
2539.00,101.20
2538.00,101.18
2537.00,101.17
2536.00,101.16
2535.00,101.17
2534.00,101.17
2533.00,101.19
2532.00,101.20
2531.00,101.20
2530.00,101.18
2529.00,101.17
2528.00,101.17
2527.00,101.18
2526.00,101.19
2525.00,101.19
2524.00,101.18
2523.00,101.17
2522.00,101.17
2521.00,101.19
2520.00,101.21
2519.00,101.22
2518.00,101.22
2517.00,101.20
2516.00,101.20
2515.00,101.20
2514.00,101.22
2513.00,101.23
2512.00,101.24
2511.00,101.25
2510.00,101.26
2509.00,101.26
2508.00,101.27
2507.00,101.29
2506.00,101.31
2505.00,101.31
2504.00,101.29
2503.00,101.28
2502.00,101.27
2501.00,101.28
2500.00,101.29
2499.00,101.30
2498.00,101.31
2497.00,101.32
2496.00,101.33
2495.00,101.34
2494.00,101.34
2493.00,101.32
2492.00,101.30
2491.00,101.29
2490.00,101.29
2489.00,101.31
2488.00,101.32
2487.00,101.33
2486.00,101.33
2485.00,101.32
2484.00,101.30
2483.00,101.29
2482.00,101.29
2481.00,101.30
2480.00,101.31
2479.00,101.32
2478.00,101.31
2477.00,101.30
2476.00,101.29
2475.00,101.28
2474.00,101.27
2473.00,101.26
2472.00,101.26
2471.00,101.27
2470.00,101.28
2469.00,101.28
2468.00,101.27
2467.00,101.26
2466.00,101.25
2465.00,101.25
2464.00,101.25
2463.00,101.24
2462.00,101.23
2461.00,101.23
2460.00,101.23
2459.00,101.23
2458.00,101.23
2457.00,101.23
2456.00,101.22
2455.00,101.23
2454.00,101.23
2453.00,101.24
2452.00,101.24
2451.00,101.23
2450.00,101.22
2449.00,101.22
2448.00,101.20
2447.00,101.19
2446.00,101.19
2445.00,101.20
2444.00,101.22
2443.00,101.23
2442.00,101.24
2441.00,101.26
2440.00,101.28
2439.00,101.29
2438.00,101.30
2437.00,101.29
2436.00,101.26
2435.00,101.23
2434.00,101.20
2433.00,101.19
2432.00,101.19
2431.00,101.19
2430.00,101.20
2429.00,101.21
2428.00,101.24
2427.00,101.27
2426.00,101.29
2425.00,101.31
2424.00,101.32
2423.00,101.32
2422.00,101.32
2421.00,101.30
2420.00,101.29
2419.00,101.26
2418.00,101.24
2417.00,101.23
2416.00,101.24
2415.00,101.26
2414.00,101.27
2413.00,101.26
2412.00,101.24
2411.00,101.22
2410.00,101.22
2409.00,101.23
2408.00,101.25
2407.00,101.28
2406.00,101.31
2405.00,101.33
2404.00,101.34
2403.00,101.35
2402.00,101.35
2401.00,101.36
2400.00,101.35
2399.00,101.35
2398.00,101.35
2397.00,101.35
2396.00,101.35
2395.00,101.35
2394.00,101.36
2393.00,101.38
2392.00,101.39
2391.00,101.40
2390.00,101.41
2389.00,101.41
2388.00,101.44
2387.00,101.47
2386.00,101.50
2385.00,101.52
2384.00,101.53
2383.00,101.54
2382.00,101.56
2381.00,101.61
2380.00,101.67
2379.00,101.73
2378.00,101.77
2377.00,101.81
2376.00,101.84
2375.00,101.88
2374.00,101.93
2373.00,101.95
2372.00,101.92
2371.00,101.85
2370.00,101.78
2369.00,101.80
2368.00,101.92
2367.00,102.09
2366.00,102.22
2365.00,102.27
2364.00,102.23
2363.00,102.14
2362.00,102.07
2361.00,102.06
2360.00,102.08
2359.00,102.09
2358.00,102.07
2357.00,102.03
2356.00,102.01
2355.00,102.02
2354.00,102.05
2353.00,102.07
2352.00,102.07
2351.00,102.05
2350.00,102.04
2349.00,102.04
2348.00,102.07
2347.00,102.12
2346.00,102.15
2345.00,102.17
2344.00,102.17
2343.00,102.16
2342.00,102.14
2341.00,102.12
2340.00,102.11
2339.00,102.12
2338.00,102.10
2337.00,102.04
2336.00,101.95
2335.00,101.87
2334.00,101.86
2333.00,101.92
2332.00,102.02
2331.00,102.12
2330.00,102.15
2329.00,102.10
2328.00,101.99
2327.00,101.88
2326.00,101.79
2325.00,101.72
2324.00,101.65
2323.00,101.60
2322.00,101.57
2321.00,101.57
2320.00,101.56
2319.00,101.55
2318.00,101.53
2317.00,101.49
2316.00,101.47
2315.00,101.47
2314.00,101.49
2313.00,101.51
2312.00,101.52
2311.00,101.51
2310.00,101.49
2309.00,101.48
2308.00,101.47
2307.00,101.46
2306.00,101.46
2305.00,101.45
2304.00,101.43
2303.00,101.40
2302.00,101.35
2301.00,101.31
2300.00,101.28
2299.00,101.26
2298.00,101.25
2297.00,101.24
2296.00,101.22
2295.00,101.19
2294.00,101.13
2293.00,101.07
2292.00,101.02
2291.00,100.99
2290.00,100.98
2289.00,100.98
2288.00,100.97
2287.00,100.94
2286.00,100.90
2285.00,100.86
2284.00,100.83
2283.00,100.81
2282.00,100.80
2281.00,100.79
2280.00,100.79
2279.00,100.79
2278.00,100.80
2277.00,100.79
2276.00,100.78
2275.00,100.76
2274.00,100.74
2273.00,100.74
2272.00,100.73
2271.00,100.72
2270.00,100.70
2269.00,100.67
2268.00,100.65
2267.00,100.65
2266.00,100.66
2265.00,100.66
2264.00,100.66
2263.00,100.64
2262.00,100.61
2261.00,100.58
2260.00,100.57
2259.00,100.58
2258.00,100.59
2257.00,100.61
2256.00,100.63
2255.00,100.63
2254.00,100.60
2253.00,100.56
2252.00,100.54
2251.00,100.53
2250.00,100.53
2249.00,100.53
2248.00,100.51
2247.00,100.50
2246.00,100.48
2245.00,100.46
2244.00,100.43
2243.00,100.39
2242.00,100.35
2241.00,100.33
2240.00,100.33
2239.00,100.35
2238.00,100.39
2237.00,100.43
2236.00,100.47
2235.00,100.49
2234.00,100.47
2233.00,100.40
2232.00,100.32
2231.00,100.25
2230.00,100.23
2229.00,100.25
2228.00,100.26
2227.00,100.26
2226.00,100.25
2225.00,100.25
2224.00,100.24
2223.00,100.21
2222.00,100.17
2221.00,100.14
2220.00,100.15
2219.00,100.18
2218.00,100.22
2217.00,100.24
2216.00,100.22
2215.00,100.18
2214.00,100.10
2213.00,100.03
2212.00,100.00
2211.00,100.01
2210.00,100.06
2209.00,100.11
2208.00,100.14
2207.00,100.14
2206.00,100.13
2205.00,100.11
2204.00,100.06
2203.00,100.01
2202.00,99.96
2201.00,99.93
2200.00,99.91
2199.00,99.91
2198.00,99.94
2197.00,99.98
2196.00,100.00
2195.00,99.95
2194.00,99.85
2193.00,99.74
2192.00,99.69
2191.00,99.69
2190.00,99.71
2189.00,99.71
2188.00,99.70
2187.00,99.69
2186.00,99.68
2185.00,99.64
2184.00,99.61
2183.00,99.60
2182.00,99.63
2181.00,99.67
2180.00,99.71
2179.00,99.71
2178.00,99.69
2177.00,99.67
2176.00,99.67
2175.00,99.67
2174.00,99.67
2173.00,99.67
2172.00,99.65
2171.00,99.60
2170.00,99.53
2169.00,99.45
2168.00,99.36
2167.00,99.27
2166.00,99.18
2165.00,99.09
2164.00,99.02
2163.00,98.97
2162.00,98.96
2161.00,99.05
2160.00,99.27
2159.00,99.55
2158.00,99.77
2157.00,99.91
2156.00,100.00
2155.00,100.06
2154.00,100.07
2153.00,100.02
2152.00,99.97
2151.00,99.94
2150.00,99.95
2149.00,99.97
2148.00,100.02
2147.00,100.08
2146.00,100.15
2145.00,100.22
2144.00,100.30
2143.00,100.36
2142.00,100.38
2141.00,100.34
2140.00,100.28
2139.00,100.26
2138.00,100.29
2137.00,100.38
2136.00,100.50
2135.00,100.60
2134.00,100.67
2133.00,100.71
2132.00,100.73
2131.00,100.75
2130.00,100.74
2129.00,100.70
2128.00,100.66
2127.00,100.63
2126.00,100.61
2125.00,100.60
2124.00,100.60
2123.00,100.61
2122.00,100.63
2121.00,100.65
2120.00,100.65
2119.00,100.65
2118.00,100.63
2117.00,100.60
2116.00,100.58
2115.00,100.58
2114.00,100.60
2113.00,100.62
2112.00,100.62
2111.00,100.62
2110.00,100.61
2109.00,100.61
2108.00,100.62
2107.00,100.65
2106.00,100.67
2105.00,100.67
2104.00,100.64
2103.00,100.59
2102.00,100.52
2101.00,100.45
2100.00,100.41
2099.00,100.40
2098.00,100.44
2097.00,100.51
2096.00,100.56
2095.00,100.58
2094.00,100.59
2093.00,100.60
2092.00,100.60
2091.00,100.60
2090.00,100.59
2089.00,100.56
2088.00,100.52
2087.00,100.48
2086.00,100.45
2085.00,100.43
2084.00,100.41
2083.00,100.39
2082.00,100.38
2081.00,100.37
2080.00,100.36
2079.00,100.35
2078.00,100.33
2077.00,100.30
2076.00,100.26
2075.00,100.24
2074.00,100.23
2073.00,100.23
2072.00,100.24
2071.00,100.25
2070.00,100.28
2069.00,100.30
2068.00,100.31
2067.00,100.31
2066.00,100.28
2065.00,100.27
2064.00,100.28
2063.00,100.30
2062.00,100.31
2061.00,100.28
2060.00,100.23
2059.00,100.18
2058.00,100.14
2057.00,100.13
2056.00,100.15
2055.00,100.19
2054.00,100.20
2053.00,100.13
2052.00,100.01
2051.00,99.91
2050.00,99.85
2049.00,99.83
2048.00,99.84
2047.00,99.85
2046.00,99.88
2045.00,99.90
2044.00,99.91
2043.00,99.87
2042.00,99.81
2041.00,99.74
2040.00,99.69
2039.00,99.66
2038.00,99.64
2037.00,99.62
2036.00,99.60
2035.00,99.60
2034.00,99.62
2033.00,99.66
2032.00,99.68
2031.00,99.70
2030.00,99.72
2029.00,99.72
2028.00,99.70
2027.00,99.66
2026.00,99.64
2025.00,99.63
2024.00,99.62
2023.00,99.59
2022.00,99.55
2021.00,99.53
2020.00,99.53
2019.00,99.56
2018.00,99.60
2017.00,99.65
2016.00,99.70
2015.00,99.73
2014.00,99.73
2013.00,99.71
2012.00,99.68
2011.00,99.67
2010.00,99.69
2009.00,99.72
2008.00,99.76
2007.00,99.77
2006.00,99.76
2005.00,99.76
2004.00,99.79
2003.00,99.84
2002.00,99.90
2001.00,99.93
2000.00,99.93
1999.00,99.92
1998.00,99.90
1997.00,99.91
1996.00,99.93
1995.00,99.94
1994.00,99.92
1993.00,99.87
1992.00,99.82
1991.00,99.81
1990.00,99.82
1989.00,99.84
1988.00,99.85
1987.00,99.85
1986.00,99.83
1985.00,99.77
1984.00,99.67
1983.00,99.58
1982.00,99.50
1981.00,99.45
1980.00,99.41
1979.00,99.42
1978.00,99.47
1977.00,99.53
1976.00,99.60
1975.00,99.68
1974.00,99.79
1973.00,99.91
1972.00,99.98
1971.00,99.99
1970.00,99.95
1969.00,99.91
1968.00,99.89
1967.00,99.88
1966.00,99.88
1965.00,99.87
1964.00,99.87
1963.00,99.88
1962.00,99.91
1961.00,99.97
1960.00,100.03
1959.00,100.10
1958.00,100.15
1957.00,100.19
1956.00,100.20
1955.00,100.21
1954.00,100.23
1953.00,100.23
1952.00,100.25
1951.00,100.27
1950.00,100.31
1949.00,100.33
1948.00,100.33
1947.00,100.29
1946.00,100.24
1945.00,100.23
1944.00,100.27
1943.00,100.35
1942.00,100.43
1941.00,100.49
1940.00,100.50
1939.00,100.47
1938.00,100.43
1937.00,100.40
1936.00,100.40
1935.00,100.44
1934.00,100.49
1933.00,100.53
1932.00,100.54
1931.00,100.53
1930.00,100.55
1929.00,100.58
1928.00,100.62
1927.00,100.65
1926.00,100.68
1925.00,100.69
1924.00,100.68
1923.00,100.65
1922.00,100.61
1921.00,100.59
1920.00,100.61
1919.00,100.64
1918.00,100.68
1917.00,100.68
1916.00,100.67
1915.00,100.65
1914.00,100.64
1913.00,100.66
1912.00,100.69
1911.00,100.72
1910.00,100.74
1909.00,100.73
1908.00,100.70
1907.00,100.67
1906.00,100.64
1905.00,100.62
1904.00,100.63
1903.00,100.66
1902.00,100.69
1901.00,100.71
1900.00,100.74
1899.00,100.75
1898.00,100.76
1897.00,100.75
1896.00,100.72
1895.00,100.69
1894.00,100.67
1893.00,100.66
1892.00,100.69
1891.00,100.73
1890.00,100.75
1889.00,100.76
1888.00,100.75
1887.00,100.74
1886.00,100.74
1885.00,100.75
1884.00,100.77
1883.00,100.79
1882.00,100.80
1881.00,100.79
1880.00,100.75
1879.00,100.71
1878.00,100.70
1877.00,100.70
1876.00,100.72
1875.00,100.74
1874.00,100.76
1873.00,100.77
1872.00,100.77
1871.00,100.76
1870.00,100.76
1869.00,100.76
1868.00,100.76
1867.00,100.75
1866.00,100.75
1865.00,100.76
1864.00,100.78
1863.00,100.80
1862.00,100.81
1861.00,100.82
1860.00,100.82
1859.00,100.81
1858.00,100.81
1857.00,100.81
1856.00,100.83
1855.00,100.85
1854.00,100.85
1853.00,100.85
1852.00,100.86
1851.00,100.87
1850.00,100.87
1849.00,100.85
1848.00,100.84
1847.00,100.84
1846.00,100.86
1845.00,100.87
1844.00,100.89
1843.00,100.90
1842.00,100.91
1841.00,100.92
1840.00,100.91
1839.00,100.89
1838.00,100.87
1837.00,100.86
1836.00,100.86
1835.00,100.85
1834.00,100.85
1833.00,100.84
1832.00,100.84
1831.00,100.85
1830.00,100.85
1829.00,100.85
1828.00,100.84
1827.00,100.84
1826.00,100.86
1825.00,100.87
1824.00,100.89
1823.00,100.89
1822.00,100.89
1821.00,100.91
1820.00,100.93
1819.00,100.95
1818.00,100.95
1817.00,100.94
1816.00,100.93
1815.00,100.92
1814.00,100.93
1813.00,100.93
1812.00,100.93
1811.00,100.93
1810.00,100.92
1809.00,100.92
1808.00,100.91
1807.00,100.90
1806.00,100.89
1805.00,100.89
1804.00,100.91
1803.00,100.93
1802.00,100.94
1801.00,100.93
1800.00,100.91
1799.00,100.89
1798.00,100.90
1797.00,100.91
1796.00,100.92
1795.00,100.92
1794.00,100.90
1793.00,100.88
1792.00,100.87
1791.00,100.87
1790.00,100.88
1789.00,100.89
1788.00,100.89
1787.00,100.88
1786.00,100.87
1785.00,100.85
1784.00,100.85
1783.00,100.85
1782.00,100.85
1781.00,100.84
1780.00,100.83
1779.00,100.82
1778.00,100.81
1777.00,100.81
1776.00,100.82
1775.00,100.83
1774.00,100.85
1773.00,100.86
1772.00,100.87
1771.00,100.86
1770.00,100.84
1769.00,100.82
1768.00,100.80
1767.00,100.78
1766.00,100.77
1765.00,100.76
1764.00,100.75
1763.00,100.75
1762.00,100.74
1761.00,100.73
1760.00,100.72
1759.00,100.72
1758.00,100.71
1757.00,100.69
1756.00,100.69
1755.00,100.69
1754.00,100.69
1753.00,100.69
1752.00,100.66
1751.00,100.63
1750.00,100.62
1749.00,100.61
1748.00,100.59
1747.00,100.56
1746.00,100.52
1745.00,100.49
1744.00,100.47
1743.00,100.47
1742.00,100.49
1741.00,100.50
1740.00,100.48
1739.00,100.47
1738.00,100.46
1737.00,100.45
1736.00,100.44
1735.00,100.45
1734.00,100.45
1733.00,100.46
1732.00,100.46
1731.00,100.46
1730.00,100.47
1729.00,100.48
1728.00,100.49
1727.00,100.49
1726.00,100.49
1725.00,100.47
1724.00,100.44
1723.00,100.42
1722.00,100.43
1721.00,100.44
1720.00,100.46
1719.00,100.47
1718.00,100.48
1717.00,100.49
1716.00,100.48
1715.00,100.47
1714.00,100.46
1713.00,100.46
1712.00,100.47
1711.00,100.47
1710.00,100.47
1709.00,100.46
1708.00,100.45
1707.00,100.43
1706.00,100.43
1705.00,100.43
1704.00,100.42
1703.00,100.41
1702.00,100.38
1701.00,100.35
1700.00,100.34
1699.00,100.34
1698.00,100.36
1697.00,100.35
1696.00,100.34
1695.00,100.32
1694.00,100.32
1693.00,100.32
1692.00,100.32
1691.00,100.34
1690.00,100.37
1689.00,100.38
1688.00,100.39
1687.00,100.38
1686.00,100.37
1685.00,100.35
1684.00,100.34
1683.00,100.34
1682.00,100.35
1681.00,100.36
1680.00,100.36
1679.00,100.36
1678.00,100.35
1677.00,100.34
1676.00,100.32
1675.00,100.31
1674.00,100.30
1673.00,100.29
1672.00,100.29
1671.00,100.30
1670.00,100.30
1669.00,100.30
1668.00,100.29
1667.00,100.27
1666.00,100.26
1665.00,100.26
1664.00,100.25
1663.00,100.25
1662.00,100.26
1661.00,100.26
1660.00,100.27
1659.00,100.28
1658.00,100.29
1657.00,100.30
1656.00,100.30
1655.00,100.31
1654.00,100.32
1653.00,100.32
1652.00,100.31
1651.00,100.30
1650.00,100.27
1649.00,100.26
1648.00,100.25
1647.00,100.27
1646.00,100.29
1645.00,100.31
1644.00,100.32
1643.00,100.31
1642.00,100.31
1641.00,100.31
1640.00,100.31
1639.00,100.31
1638.00,100.32
1637.00,100.32
1636.00,100.32
1635.00,100.33
1634.00,100.33
1633.00,100.32
1632.00,100.31
1631.00,100.30
1630.00,100.32
1629.00,100.35
1628.00,100.38
1627.00,100.40
1626.00,100.40
1625.00,100.39
1624.00,100.37
1623.00,100.37
1622.00,100.37
1621.00,100.38
1620.00,100.37
1619.00,100.38
1618.00,100.38
1617.00,100.39
1616.00,100.41
1615.00,100.43
1614.00,100.45
1613.00,100.44
1612.00,100.43
1611.00,100.41
1610.00,100.40
1609.00,100.40
1608.00,100.40
1607.00,100.40
1606.00,100.40
1605.00,100.40
1604.00,100.40
1603.00,100.40
1602.00,100.41
1601.00,100.43
1600.00,100.44
1599.00,100.45
1598.00,100.45
1597.00,100.45
1596.00,100.44
1595.00,100.43
1594.00,100.44
1593.00,100.46
1592.00,100.47
1591.00,100.48
1590.00,100.49
1589.00,100.50
1588.00,100.50
1587.00,100.50
1586.00,100.50
1585.00,100.49
1584.00,100.49
1583.00,100.49
1582.00,100.50
1581.00,100.50
1580.00,100.49
1579.00,100.47
1578.00,100.46
1577.00,100.46
1576.00,100.47
1575.00,100.49
1574.00,100.52
1573.00,100.52
1572.00,100.51
1571.00,100.50
1570.00,100.49
1569.00,100.50
1568.00,100.51
1567.00,100.51
1566.00,100.51
1565.00,100.50
1564.00,100.49
1563.00,100.48
1562.00,100.48
1561.00,100.48
1560.00,100.47
1559.00,100.47
1558.00,100.46
1557.00,100.44
1556.00,100.42
1555.00,100.40
1554.00,100.39
1553.00,100.38
1552.00,100.38
1551.00,100.37
1550.00,100.37
1549.00,100.36
1548.00,100.37
1547.00,100.37
1546.00,100.38
1545.00,100.37
1544.00,100.37
1543.00,100.36
1542.00,100.34
1541.00,100.32
1540.00,100.30
1539.00,100.30
1538.00,100.31
1537.00,100.31
1536.00,100.30
1535.00,100.30
1534.00,100.30
1533.00,100.30
1532.00,100.29
1531.00,100.28
1530.00,100.27
1529.00,100.26
1528.00,100.24
1527.00,100.23
1526.00,100.23
1525.00,100.23
1524.00,100.21
1523.00,100.18
1522.00,100.15
1521.00,100.14
1520.00,100.14
1519.00,100.14
1518.00,100.13
1517.00,100.10
1516.00,100.08
1515.00,100.06
1514.00,100.03
1513.00,100.00
1512.00,99.98
1511.00,99.97
1510.00,99.96
1509.00,99.95
1508.00,99.93
1507.00,99.93
1506.00,99.93
1505.00,99.91
1504.00,99.87
1503.00,99.84
1502.00,99.80
1501.00,99.75
1500.00,99.70
1499.00,99.65
1498.00,99.60
1497.00,99.53
1496.00,99.48
1495.00,99.46
1494.00,99.44
1493.00,99.39
1492.00,99.31
1491.00,99.22
1490.00,99.12
1489.00,99.02
1488.00,98.93
1487.00,98.86
1486.00,98.80
1485.00,98.71
1484.00,98.59
1483.00,98.46
1482.00,98.32
1481.00,98.13
1480.00,97.93
1479.00,97.70
1478.00,97.45
1477.00,97.14
1476.00,96.77
1475.00,96.36
1474.00,95.83
1473.00,95.10
1472.00,94.22
1471.00,93.31
1470.00,92.39
1469.00,91.42
1468.00,90.38
1467.00,89.27
1466.00,88.07
1465.00,86.84
1464.00,85.73
1463.00,84.86
1462.00,84.21
1461.00,83.71
1460.00,83.33
1459.00,83.08
1458.00,82.94
1457.00,82.93
1456.00,83.00
1455.00,83.08
1454.00,83.16
1453.00,83.29
1452.00,83.54
1451.00,83.94
1450.00,84.54
1449.00,85.41
1448.00,86.56
1447.00,87.84
1446.00,89.07
1445.00,90.15
1444.00,91.08
1443.00,91.86
1442.00,92.45
1441.00,92.85
1440.00,93.07
1439.00,93.13
1438.00,93.07
1437.00,92.99
1436.00,93.07
1435.00,93.39
1434.00,93.92
1433.00,94.60
1432.00,95.35
1431.00,96.03
1430.00,96.58
1429.00,97.00
1428.00,97.29
1427.00,97.49
1426.00,97.63
1425.00,97.75
1424.00,97.86
1423.00,97.94
1422.00,98.00
1421.00,98.05
1420.00,98.11
1419.00,98.17
1418.00,98.22
1417.00,98.27
1416.00,98.32
1415.00,98.37
1414.00,98.41
1413.00,98.46
1412.00,98.52
1411.00,98.56
1410.00,98.58
1409.00,98.61
1408.00,98.64
1407.00,98.64
1406.00,98.64
1405.00,98.66
1404.00,98.69
1403.00,98.70
1402.00,98.69
1401.00,98.69
1400.00,98.69
1399.00,98.69
1398.00,98.67
1397.00,98.65
1396.00,98.62
1395.00,98.57
1394.00,98.50
1393.00,98.43
1392.00,98.35
1391.00,98.23
1390.00,98.05
1389.00,97.82
1388.00,97.49
1387.00,96.99
1386.00,96.29
1385.00,95.36
1384.00,94.08
1383.00,92.34
1382.00,90.09
1381.00,87.30
1380.00,83.98
1379.00,80.31
1378.00,76.80
1377.00,74.13
1376.00,72.92
1375.00,73.54
1374.00,75.83
1373.00,79.09
1372.00,82.53
1371.00,85.72
1370.00,88.48
1369.00,90.72
1368.00,92.37
1367.00,93.45
1366.00,94.07
1365.00,94.34
1364.00,94.34
1363.00,94.14
1362.00,93.81
1361.00,93.44
1360.00,93.15
1359.00,93.04
1358.00,93.17
1357.00,93.56
1356.00,94.14
1355.00,94.81
1354.00,95.47
1353.00,96.06
1352.00,96.54
1351.00,96.92
1350.00,97.22
1349.00,97.46
1348.00,97.66
1347.00,97.84
1346.00,98.01
1345.00,98.17
1344.00,98.30
1343.00,98.41
1342.00,98.49
1341.00,98.56
1340.00,98.61
1339.00,98.64
1338.00,98.66
1337.00,98.66
1336.00,98.64
1335.00,98.60
1334.00,98.55
1333.00,98.47
1332.00,98.39
1331.00,98.31
1330.00,98.27
1329.00,98.27
1328.00,98.32
1327.00,98.39
1326.00,98.48
1325.00,98.57
1324.00,98.67
1323.00,98.76
1322.00,98.84
1321.00,98.91
1320.00,98.96
1319.00,99.00
1318.00,99.04
1317.00,99.07
1316.00,99.10
1315.00,99.12
1314.00,99.12
1313.00,99.11
1312.00,99.10
1311.00,99.07
1310.00,99.03
1309.00,98.96
1308.00,98.85
1307.00,98.71
1306.00,98.56
1305.00,98.45
1304.00,98.40
1303.00,98.39
1302.00,98.42
1301.00,98.44
1300.00,98.42
1299.00,98.38
1298.00,98.33
1297.00,98.30
1296.00,98.30
1295.00,98.33
1294.00,98.40
1293.00,98.48
1292.00,98.57
1291.00,98.66
1290.00,98.73
1289.00,98.79
1288.00,98.85
1287.00,98.89
1286.00,98.93
1285.00,98.97
1284.00,99.01
1283.00,99.04
1282.00,99.07
1281.00,99.10
1280.00,99.13
1279.00,99.15
1278.00,99.17
1277.00,99.19
1276.00,99.20
1275.00,99.22
1274.00,99.24
1273.00,99.25
1272.00,99.24
1271.00,99.22
1270.00,99.20
1269.00,99.19
1268.00,99.19
1267.00,99.18
1266.00,99.17
1265.00,99.15
1264.00,99.13
1263.00,99.09
1262.00,99.02
1261.00,98.94
1260.00,98.84
1259.00,98.74
1258.00,98.63
1257.00,98.54
1256.00,98.49
1255.00,98.49
1254.00,98.54
1253.00,98.62
1252.00,98.69
1251.00,98.75
1250.00,98.79
1249.00,98.84
1248.00,98.90
1247.00,98.96
1246.00,99.01
1245.00,99.04
1244.00,99.06
1243.00,99.07
1242.00,99.08
1241.00,99.09
1240.00,99.09
1239.00,99.11
1238.00,99.12
1237.00,99.14
1236.00,99.15
1235.00,99.15
1234.00,99.14
1233.00,99.14
1232.00,99.15
1231.00,99.14
1230.00,99.13
1229.00,99.12
1228.00,99.11
1227.00,99.11
1226.00,99.09
1225.00,99.04
1224.00,98.97
1223.00,98.88
1222.00,98.80
1221.00,98.75
1220.00,98.72
1219.00,98.71
1218.00,98.73
1217.00,98.76
1216.00,98.81
1215.00,98.88
1214.00,98.94
1213.00,98.99
1212.00,99.03
1211.00,99.06
1210.00,99.10
1209.00,99.14
1208.00,99.19
1207.00,99.23
1206.00,99.26
1205.00,99.28
1204.00,99.29
1203.00,99.28
1202.00,99.27
1201.00,99.26
1200.00,99.26
1199.00,99.26
1198.00,99.27
1197.00,99.28
1196.00,99.30
1195.00,99.31
1194.00,99.32
1193.00,99.31
1192.00,99.30
1191.00,99.29
1190.00,99.28
1189.00,99.28
1188.00,99.27
1187.00,99.25
1186.00,99.23
1185.00,99.20
1184.00,99.18
1183.00,99.15
1182.00,99.13
1181.00,99.09
1180.00,99.02
1179.00,98.91
1178.00,98.78
1177.00,98.62
1176.00,98.44
1175.00,98.22
1174.00,97.97
1173.00,97.67
1172.00,97.34
1171.00,96.97
1170.00,96.62
1169.00,96.33
1168.00,96.14
1167.00,96.05
1166.00,96.05
1165.00,96.11
1164.00,96.20
1163.00,96.29
1162.00,96.36
1161.00,96.40
1160.00,96.40
1159.00,96.39
1158.00,96.36
1157.00,96.33
1156.00,96.28
1155.00,96.23
1154.00,96.16
1153.00,96.11
1152.00,96.08
1151.00,96.10
1150.00,96.18
1149.00,96.29
1148.00,96.40
1147.00,96.51
1146.00,96.62
1145.00,96.71
1144.00,96.80
1143.00,96.88
1142.00,96.95
1141.00,97.01
1140.00,97.04
1139.00,97.07
1138.00,97.10
1137.00,97.11
1136.00,97.11
1135.00,97.11
1134.00,97.10
1133.00,97.10
1132.00,97.09
1131.00,97.08
1130.00,97.05
1129.00,97.03
1128.00,97.01
1127.00,97.02
1126.00,97.02
1125.00,97.01
1124.00,96.97
1123.00,96.91
1122.00,96.84
1121.00,96.78
1120.00,96.74
1119.00,96.74
1118.00,96.75
1117.00,96.77
1116.00,96.76
1115.00,96.74
1114.00,96.72
1113.00,96.69
1112.00,96.66
1111.00,96.60
1110.00,96.51
1109.00,96.41
1108.00,96.29
1107.00,96.19
1106.00,96.10
1105.00,96.01
1104.00,95.94
1103.00,95.91
1102.00,95.94
1101.00,96.02
1100.00,96.13
1099.00,96.25
1098.00,96.39
1097.00,96.54
1096.00,96.68
1095.00,96.79
1094.00,96.89
1093.00,96.98
1092.00,97.06
1091.00,97.15
1090.00,97.23
1089.00,97.30
1088.00,97.37
1087.00,97.44
1086.00,97.51
1085.00,97.56
1084.00,97.61
1083.00,97.66
1082.00,97.73
1081.00,97.81
1080.00,97.87
1079.00,97.91
1078.00,97.94
1077.00,97.98
1076.00,98.01
1075.00,98.04
1074.00,98.07
1073.00,98.09
1072.00,98.11
1071.00,98.12
1070.00,98.14
1069.00,98.16
1068.00,98.20
1067.00,98.25
1066.00,98.29
1065.00,98.32
1064.00,98.32
1063.00,98.30
1062.00,98.30
1061.00,98.33
1060.00,98.38
1059.00,98.43
1058.00,98.48
1057.00,98.52
1056.00,98.53
1055.00,98.54
1054.00,98.56
1053.00,98.58
1052.00,98.60
1051.00,98.62
1050.00,98.62
1049.00,98.59
1048.00,98.53
1047.00,98.46
1046.00,98.41
1045.00,98.39
1044.00,98.38
1043.00,98.41
1042.00,98.45
1041.00,98.50
1040.00,98.55
1039.00,98.58
1038.00,98.59
1037.00,98.59
1036.00,98.57
1035.00,98.55
1034.00,98.56
1033.00,98.59
1032.00,98.63
1031.00,98.67
1030.00,98.71
1029.00,98.74
1028.00,98.76
1027.00,98.77
1026.00,98.78
1025.00,98.81
1024.00,98.83
1023.00,98.85
1022.00,98.85
1021.00,98.85
1020.00,98.85
1019.00,98.85
1018.00,98.84
1017.00,98.84
1016.00,98.83
1015.00,98.81
1014.00,98.79
1013.00,98.76
1012.00,98.71
1011.00,98.66
1010.00,98.61
1009.00,98.57
1008.00,98.51
1007.00,98.43
1006.00,98.32
1005.00,98.16
1004.00,97.93
1003.00,97.63
1002.00,97.24
1001.00,96.79
1000.00,96.33
999.00,95.97
998.00,95.80
997.00,95.90
996.00,96.22
995.00,96.67
994.00,97.14
993.00,97.55
992.00,97.85
991.00,98.07
990.00,98.23
989.00,98.36
988.00,98.47
987.00,98.55
986.00,98.57
985.00,98.52
984.00,98.42
983.00,98.28
982.00,98.10
981.00,97.86
980.00,97.53
979.00,97.11
978.00,96.60
977.00,96.04
976.00,95.48
975.00,95.01
974.00,94.69
973.00,94.63
972.00,94.83
971.00,95.26
970.00,95.82
969.00,96.40
968.00,96.92
967.00,97.35
966.00,97.67
965.00,97.90
964.00,98.06
963.00,98.17
962.00,98.26
961.00,98.34
960.00,98.43
959.00,98.50
958.00,98.54
957.00,98.57
956.00,98.59
955.00,98.63
954.00,98.65
953.00,98.67
952.00,98.67
951.00,98.67
950.00,98.67
949.00,98.66
948.00,98.64
947.00,98.62
946.00,98.59
945.00,98.53
944.00,98.45
943.00,98.36
942.00,98.30
941.00,98.30
940.00,98.34
939.00,98.42
938.00,98.51
937.00,98.62
936.00,98.73
935.00,98.82
934.00,98.88
933.00,98.92
932.00,98.94
931.00,98.95
930.00,98.96
929.00,98.98
928.00,99.00
927.00,99.01
926.00,99.02
925.00,99.02
924.00,99.03
923.00,99.05
922.00,99.04
921.00,99.02
920.00,99.01
919.00,99.02
918.00,99.06
917.00,99.10
916.00,99.12
915.00,99.11
914.00,99.08
913.00,99.03
912.00,98.98
911.00,98.93
910.00,98.90
909.00,98.86
908.00,98.80
907.00,98.70
906.00,98.54
905.00,98.30
904.00,97.97
903.00,97.54
902.00,97.09
901.00,96.70
900.00,96.47
899.00,96.45
898.00,96.62
897.00,96.94
896.00,97.33
895.00,97.70
894.00,97.99
893.00,98.21
892.00,98.37
891.00,98.48
890.00,98.56
889.00,98.62
888.00,98.65
887.00,98.67
886.00,98.68
885.00,98.68
884.00,98.66
883.00,98.64
882.00,98.63
881.00,98.62
880.00,98.62
879.00,98.60
878.00,98.58
877.00,98.54
876.00,98.49
875.00,98.45
874.00,98.43
873.00,98.43
872.00,98.49
871.00,98.57
870.00,98.67
869.00,98.75
868.00,98.80
867.00,98.83
866.00,98.84
865.00,98.83
864.00,98.80
863.00,98.77
862.00,98.73
861.00,98.69
860.00,98.65
859.00,98.61
858.00,98.59
857.00,98.59
856.00,98.60
855.00,98.60
854.00,98.58
853.00,98.52
852.00,98.45
851.00,98.36
850.00,98.28
849.00,98.21
848.00,98.11
847.00,97.96
846.00,97.73
845.00,97.39
844.00,96.92
843.00,96.37
842.00,95.90
841.00,95.71
840.00,95.90
839.00,96.38
838.00,96.95
837.00,97.43
836.00,97.76
835.00,97.97
834.00,98.10
833.00,98.20
832.00,98.27
831.00,98.32
830.00,98.35
829.00,98.38
828.00,98.42
827.00,98.46
826.00,98.48
825.00,98.49
824.00,98.50
823.00,98.52
822.00,98.52
821.00,98.50
820.00,98.44
819.00,98.36
818.00,98.24
817.00,98.09
816.00,97.89
815.00,97.66
814.00,97.37
813.00,97.01
812.00,96.59
811.00,96.19
810.00,95.89
809.00,95.77
808.00,95.87
807.00,96.18
806.00,96.62
805.00,97.08
804.00,97.48
803.00,97.77
802.00,97.95
801.00,98.08
800.00,98.18
799.00,98.27
798.00,98.36
797.00,98.42
796.00,98.46
795.00,98.50
794.00,98.55
793.00,98.62
792.00,98.68
791.00,98.72
790.00,98.74
789.00,98.77
788.00,98.82
787.00,98.86
786.00,98.89
785.00,98.92
784.00,98.97
783.00,99.02
782.00,99.07
781.00,99.10
780.00,99.11
779.00,99.11
778.00,99.11
777.00,99.11
776.00,99.12
775.00,99.15
774.00,99.19
773.00,99.23
772.00,99.23
771.00,99.20
770.00,99.17
769.00,99.17
768.00,99.18
767.00,99.19
766.00,99.18
765.00,99.19
764.00,99.22
763.00,99.25
762.00,99.25
761.00,99.23
760.00,99.21
759.00,99.19
758.00,99.18
757.00,99.17
756.00,99.17
755.00,99.19
754.00,99.21
753.00,99.22
752.00,99.22
751.00,99.21
750.00,99.20
749.00,99.20
748.00,99.20
747.00,99.18
746.00,99.15
745.00,99.12
744.00,99.09
743.00,99.07
742.00,99.05
741.00,99.04
740.00,99.05
739.00,99.09
738.00,99.13
737.00,99.17
736.00,99.19
735.00,99.21
734.00,99.21
733.00,99.20
732.00,99.18
731.00,99.17
730.00,99.16
729.00,99.17
728.00,99.20
727.00,99.22
726.00,99.22
725.00,99.19
724.00,99.18
723.00,99.19
722.00,99.22
721.00,99.25
720.00,99.24
719.00,99.21
718.00,99.16
717.00,99.11
716.00,99.06
715.00,99.04
714.00,99.05
713.00,99.08
712.00,99.12
711.00,99.15
710.00,99.16
709.00,99.15
708.00,99.15
707.00,99.16
706.00,99.16
705.00,99.13
704.00,99.08
703.00,99.04
702.00,99.04
701.00,99.09
700.00,99.18
699.00,99.25
698.00,99.28
697.00,99.26
696.00,99.20
695.00,99.16
694.00,99.16
693.00,99.20
692.00,99.26
691.00,99.30
690.00,99.31
689.00,99.30
688.00,99.28
687.00,99.24
686.00,99.20
685.00,99.18
684.00,99.20
683.00,99.26
682.00,99.32
681.00,99.32
680.00,99.27
679.00,99.23
678.00,99.22
677.00,99.23
676.00,99.21
675.00,99.17
674.00,99.15
673.00,99.16
672.00,99.19
671.00,99.22
670.00,99.22
669.00,99.23
668.00,99.23
667.00,99.10
666.00,99.02
665.00,99.12
664.00,99.25
663.00,99.29
662.00,99.25
661.00,99.20
660.00,99.19
659.00,99.23
658.00,99.28
657.00,99.28
656.00,99.23
655.00,99.18
654.00,99.18
653.00,99.22
652.00,99.25
651.00,99.22
650.00,99.17
649.00,99.12
648.00,99.11
647.00,99.12
646.00,99.12
645.00,99.11
644.00,99.07
643.00,99.04
642.00,99.05
641.00,99.10
640.00,99.15
639.00,99.16
638.00,99.13
637.00,99.12
636.00,99.18
635.00,99.28
634.00,99.33
633.00,99.31
632.00,99.24
631.00,99.20
630.00,99.20
629.00,99.20
628.00,99.14
627.00,99.06
626.00,98.99
625.00,98.97
624.00,98.94
623.00,98.90
622.00,98.86
621.00,98.85
620.00,98.86
619.00,98.83
618.00,98.76
617.00,98.72
616.00,98.76
615.00,98.90
614.00,99.11
613.00,99.34
612.00,99.51
611.00,99.55
610.00,99.46
609.00,99.30
608.00,99.20
607.00,99.24
606.00,99.38
605.00,99.50
604.00,99.59
603.00,99.69
602.00,99.81
601.00,99.88
600.00,99.80
599.00,99.64
598.00,99.54
597.00,99.52
596.00,99.47
595.00,99.27
594.00,98.94
593.00,98.60
592.00,98.37
591.00,98.34
590.00,98.57
589.00,99.04
588.00,99.56
587.00,99.94
586.00,100.06
585.00,99.98
584.00,99.75
583.00,99.44
582.00,99.13
581.00,98.85
580.00,98.55
579.00,98.25
578.00,98.12
577.00,98.26
576.00,98.39
575.00,98.19
574.00,97.71
573.00,97.40
572.00,97.61
571.00,98.28
570.00,99.08
569.00,99.69
568.00,99.90
567.00,99.62
566.00,99.02
565.00,98.43
564.00,98.11
563.00,98.14
562.00,98.42
561.00,98.80
560.00,99.07
559.00,99.08
558.00,98.84
557.00,98.49
556.00,98.10
555.00,97.71
554.00,97.36
553.00,97.14
552.00,97.06
551.00,96.94
550.00,96.72
