Created as New Dataset,128 Shaw Industries (Dark blue/Black)
cm-1,%T
4000.00,101.07
3999.00,101.07
3998.00,101.05
3997.00,101.04
3996.00,101.02
3995.00,101.01
3994.00,101.01
3993.00,101.01
3992.00,101.02
3991.00,101.04
3990.00,101.06
3989.00,101.08
3988.00,101.09
3987.00,101.09
3986.00,101.08
3985.00,101.07
3984.00,101.06
3983.00,101.04
3982.00,101.02
3981.00,101.00
3980.00,100.99
3979.00,100.99
3978.00,101.00
3977.00,101.01
3976.00,101.01
3975.00,101.01
3974.00,101.00
3973.00,101.00
3972.00,101.01
3971.00,101.02
3970.00,101.03
3969.00,101.03
3968.00,101.03
3967.00,101.02
3966.00,101.02
3965.00,101.03
3964.00,101.04
3963.00,101.06
3962.00,101.08
3961.00,101.09
3960.00,101.10
3959.00,101.09
3958.00,101.08
3957.00,101.06
3956.00,101.04
3955.00,101.03
3954.00,101.03
3953.00,101.02
3952.00,101.03
3951.00,101.04
3950.00,101.05
3949.00,101.07
3948.00,101.09
3947.00,101.09
3946.00,101.08
3945.00,101.06
3944.00,101.05
3943.00,101.04
3942.00,101.03
3941.00,101.03
3940.00,101.02
3939.00,101.02
3938.00,101.02
3937.00,101.03
3936.00,101.04
3935.00,101.05
3934.00,101.06
3933.00,101.08
3932.00,101.08
3931.00,101.08
3930.00,101.08
3929.00,101.07
3928.00,101.07
3927.00,101.07
3926.00,101.08
3925.00,101.08
3924.00,101.07
3923.00,101.05
3922.00,101.03
3921.00,101.03
3920.00,101.04
3919.00,101.04
3918.00,101.04
3917.00,101.05
3916.00,101.05
3915.00,101.06
3914.00,101.07
3913.00,101.07
3912.00,101.08
3911.00,101.08
3910.00,101.08
3909.00,101.07
3908.00,101.07
3907.00,101.07
3906.00,101.09
3905.00,101.12
3904.00,101.16
3903.00,101.16
3902.00,101.13
3901.00,101.09
3900.00,101.05
3899.00,101.03
3898.00,101.01
3897.00,101.00
3896.00,101.01
3895.00,101.01
3894.00,101.02
3893.00,101.04
3892.00,101.07
3891.00,101.09
3890.00,101.09
3889.00,101.06
3888.00,101.03
3887.00,101.02
3886.00,101.05
3885.00,101.07
3884.00,101.07
3883.00,101.04
3882.00,101.03
3881.00,101.03
3880.00,101.03
3879.00,101.02
3878.00,100.99
3877.00,100.96
3876.00,100.97
3875.00,101.01
3874.00,101.05
3873.00,101.05
3872.00,101.04
3871.00,101.04
3870.00,101.06
3869.00,101.07
3868.00,101.04
3867.00,101.00
3866.00,100.99
3865.00,100.99
3864.00,100.99
3863.00,100.98
3862.00,100.99
3861.00,101.02
3860.00,101.04
3859.00,101.07
3858.00,101.07
3857.00,101.05
3856.00,101.01
3855.00,101.01
3854.00,101.03
3853.00,101.04
3852.00,101.03
3851.00,101.00
3850.00,100.99
3849.00,101.00
3848.00,101.01
3847.00,101.02
3846.00,101.01
3845.00,101.00
3844.00,100.99
3843.00,100.98
3842.00,100.98
3841.00,100.98
3840.00,100.99
3839.00,100.99
3838.00,100.99
3837.00,100.97
3836.00,100.95
3835.00,100.94
3834.00,100.94
3833.00,100.95
3832.00,100.96
3831.00,100.97
3830.00,100.95
3829.00,100.93
3828.00,100.93
3827.00,100.94
3826.00,100.97
3825.00,100.97
3824.00,100.94
3823.00,100.92
3822.00,100.95
3821.00,100.99
3820.00,101.00
3819.00,100.96
3818.00,100.90
3817.00,100.88
3816.00,100.88
3815.00,100.87
3814.00,100.85
3813.00,100.85
3812.00,100.86
3811.00,100.88
3810.00,100.87
3809.00,100.86
3808.00,100.87
3807.00,100.90
3806.00,100.92
3805.00,100.90
3804.00,100.86
3803.00,100.85
3802.00,100.88
3801.00,100.91
3800.00,100.89
3799.00,100.84
3798.00,100.81
3797.00,100.82
3796.00,100.85
3795.00,100.87
3794.00,100.88
3793.00,100.89
3792.00,100.91
3791.00,100.92
3790.00,100.93
3789.00,100.93
3788.00,100.92
3787.00,100.91
3786.00,100.90
3785.00,100.88
3784.00,100.86
3783.00,100.84
3782.00,100.82
3781.00,100.83
3780.00,100.87
3779.00,100.90
3778.00,100.90
3777.00,100.87
3776.00,100.85
3775.00,100.83
3774.00,100.82
3773.00,100.81
3772.00,100.81
3771.00,100.83
3770.00,100.84
3769.00,100.82
3768.00,100.78
3767.00,100.76
3766.00,100.77
3765.00,100.79
3764.00,100.81
3763.00,100.79
3762.00,100.76
3761.00,100.74
3760.00,100.73
3759.00,100.73
3758.00,100.74
3757.00,100.77
3756.00,100.80
3755.00,100.82
3754.00,100.84
3753.00,100.86
3752.00,100.86
3751.00,100.85
3750.00,100.84
3749.00,100.84
3748.00,100.82
3747.00,100.78
3746.00,100.75
3745.00,100.76
3744.00,100.77
3743.00,100.76
3742.00,100.75
3741.00,100.76
3740.00,100.79
3739.00,100.82
3738.00,100.83
3737.00,100.84
3736.00,100.85
3735.00,100.85
3734.00,100.85
3733.00,100.84
3732.00,100.84
3731.00,100.82
3730.00,100.79
3729.00,100.76
3728.00,100.77
3727.00,100.80
3726.00,100.83
3725.00,100.84
3724.00,100.83
3723.00,100.80
3722.00,100.77
3721.00,100.73
3720.00,100.71
3719.00,100.70
3718.00,100.73
3717.00,100.76
3716.00,100.79
3715.00,100.80
3714.00,100.80
3713.00,100.79
3712.00,100.78
3711.00,100.75
3710.00,100.73
3709.00,100.71
3708.00,100.70
3707.00,100.71
3706.00,100.71
3705.00,100.72
3704.00,100.73
3703.00,100.74
3702.00,100.74
3701.00,100.74
3700.00,100.72
3699.00,100.72
3698.00,100.73
3697.00,100.76
3696.00,100.78
3695.00,100.78
3694.00,100.79
3693.00,100.79
3692.00,100.78
3691.00,100.74
3690.00,100.70
3689.00,100.67
3688.00,100.65
3687.00,100.62
3686.00,100.61
3685.00,100.60
3684.00,100.61
3683.00,100.62
3682.00,100.63
3681.00,100.66
3680.00,100.70
3679.00,100.73
3678.00,100.73
3677.00,100.75
3676.00,100.79
3675.00,100.81
3674.00,100.78
3673.00,100.70
3672.00,100.63
3671.00,100.61
3670.00,100.63
3669.00,100.65
3668.00,100.66
3667.00,100.68
3666.00,100.70
3665.00,100.72
3664.00,100.71
3663.00,100.68
3662.00,100.66
3661.00,100.66
3660.00,100.65
3659.00,100.63
3658.00,100.61
3657.00,100.60
3656.00,100.61
3655.00,100.61
3654.00,100.59
3653.00,100.56
3652.00,100.53
3651.00,100.54
3650.00,100.57
3649.00,100.61
3648.00,100.64
3647.00,100.65
3646.00,100.65
3645.00,100.63
3644.00,100.61
3643.00,100.60
3642.00,100.61
3641.00,100.62
3640.00,100.62
3639.00,100.62
3638.00,100.61
3637.00,100.61
3636.00,100.62
3635.00,100.66
3634.00,100.73
3633.00,100.77
3632.00,100.77
3631.00,100.73
3630.00,100.70
3629.00,100.69
3628.00,100.69
3627.00,100.67
3626.00,100.66
3625.00,100.66
3624.00,100.67
3623.00,100.67
3622.00,100.67
3621.00,100.67
3620.00,100.68
3619.00,100.69
3618.00,100.69
3617.00,100.69
3616.00,100.69
3615.00,100.68
3614.00,100.68
3613.00,100.67
3612.00,100.64
3611.00,100.61
3610.00,100.58
3609.00,100.58
3608.00,100.58
3607.00,100.58
3606.00,100.59
3605.00,100.60
3604.00,100.61
3603.00,100.61
3602.00,100.61
3601.00,100.61
3600.00,100.63
3599.00,100.64
3598.00,100.66
3597.00,100.66
3596.00,100.66
3595.00,100.65
3594.00,100.64
3593.00,100.64
3592.00,100.65
3591.00,100.67
3590.00,100.68
3589.00,100.67
3588.00,100.65
3587.00,100.62
3586.00,100.59
3585.00,100.56
3584.00,100.54
3583.00,100.54
3582.00,100.53
3581.00,100.53
3580.00,100.52
3579.00,100.51
3578.00,100.52
3577.00,100.53
3576.00,100.55
3575.00,100.57
3574.00,100.59
3573.00,100.60
3572.00,100.62
3571.00,100.64
3570.00,100.64
3569.00,100.63
3568.00,100.62
3567.00,100.60
3566.00,100.59
3565.00,100.58
3564.00,100.58
3563.00,100.58
3562.00,100.57
3561.00,100.56
3560.00,100.54
3559.00,100.52
3558.00,100.51
3557.00,100.52
3556.00,100.53
3555.00,100.52
3554.00,100.52
3553.00,100.51
3552.00,100.52
3551.00,100.53
3550.00,100.53
3549.00,100.52
3548.00,100.51
3547.00,100.50
3546.00,100.50
3545.00,100.51
3544.00,100.50
3543.00,100.48
3542.00,100.46
3541.00,100.44
3540.00,100.44
3539.00,100.44
3538.00,100.44
3537.00,100.44
3536.00,100.43
3535.00,100.43
3534.00,100.43
3533.00,100.44
3532.00,100.45
3531.00,100.46
3530.00,100.46
3529.00,100.46
3528.00,100.45
3527.00,100.43
3526.00,100.42
3525.00,100.42
3524.00,100.43
3523.00,100.43
3522.00,100.41
3521.00,100.38
3520.00,100.37
3519.00,100.37
3518.00,100.38
3517.00,100.40
3516.00,100.41
3515.00,100.43
3514.00,100.44
3513.00,100.45
3512.00,100.47
3511.00,100.49
3510.00,100.51
3509.00,100.50
3508.00,100.46
3507.00,100.40
3506.00,100.34
3505.00,100.31
3504.00,100.31
3503.00,100.34
3502.00,100.36
3501.00,100.36
3500.00,100.34
3499.00,100.32
3498.00,100.30
3497.00,100.29
3496.00,100.30
3495.00,100.31
3494.00,100.32
3493.00,100.34
3492.00,100.37
3491.00,100.39
3490.00,100.39
3489.00,100.37
3488.00,100.33
3487.00,100.30
3486.00,100.29
3485.00,100.31
3484.00,100.36
3483.00,100.40
3482.00,100.43
3481.00,100.42
3480.00,100.39
3479.00,100.36
3478.00,100.34
3477.00,100.33
3476.00,100.32
3475.00,100.30
3474.00,100.29
3473.00,100.29
3472.00,100.30
3471.00,100.30
3470.00,100.30
3469.00,100.30
3468.00,100.30
3467.00,100.32
3466.00,100.34
3465.00,100.34
3464.00,100.33
3463.00,100.32
3462.00,100.32
3461.00,100.32
3460.00,100.33
3459.00,100.34
3458.00,100.33
3457.00,100.32
3456.00,100.31
3455.00,100.30
3454.00,100.31
3453.00,100.32
3452.00,100.33
3451.00,100.34
3450.00,100.34
3449.00,100.35
3448.00,100.34
3447.00,100.32
3446.00,100.29
3445.00,100.26
3444.00,100.25
3443.00,100.25
3442.00,100.26
3441.00,100.26
3440.00,100.25
3439.00,100.24
3438.00,100.23
3437.00,100.21
3436.00,100.21
3435.00,100.21
3434.00,100.23
3433.00,100.27
3432.00,100.30
3431.00,100.31
3430.00,100.30
3429.00,100.28
3428.00,100.26
3427.00,100.26
3426.00,100.26
3425.00,100.25
3424.00,100.25
3423.00,100.25
3422.00,100.25
3421.00,100.26
3420.00,100.26
3419.00,100.26
3418.00,100.24
3417.00,100.24
3416.00,100.24
3415.00,100.26
3414.00,100.29
3413.00,100.30
3412.00,100.31
3411.00,100.31
3410.00,100.30
3409.00,100.30
3408.00,100.30
3407.00,100.30
3406.00,100.31
3405.00,100.31
3404.00,100.30
3403.00,100.29
3402.00,100.28
3401.00,100.27
3400.00,100.26
3399.00,100.26
3398.00,100.26
3397.00,100.26
3396.00,100.27
3395.00,100.28
3394.00,100.28
3393.00,100.28
3392.00,100.26
3391.00,100.24
3390.00,100.22
3389.00,100.22
3388.00,100.23
3387.00,100.25
3386.00,100.26
3385.00,100.26
3384.00,100.26
3383.00,100.26
3382.00,100.26
3381.00,100.26
3380.00,100.26
3379.00,100.24
3378.00,100.23
3377.00,100.22
3376.00,100.23
3375.00,100.25
3374.00,100.27
3373.00,100.27
3372.00,100.26
3371.00,100.26
3370.00,100.26
3369.00,100.28
3368.00,100.30
3367.00,100.32
3366.00,100.31
3365.00,100.29
3364.00,100.26
3363.00,100.23
3362.00,100.22
3361.00,100.22
3360.00,100.24
3359.00,100.26
3358.00,100.27
3357.00,100.27
3356.00,100.26
3355.00,100.25
3354.00,100.24
3353.00,100.24
3352.00,100.24
3351.00,100.24
3350.00,100.24
3349.00,100.24
3348.00,100.25
3347.00,100.25
3346.00,100.24
3345.00,100.24
3344.00,100.24
3343.00,100.25
3342.00,100.26
3341.00,100.28
3340.00,100.29
3339.00,100.28
3338.00,100.28
3337.00,100.27
3336.00,100.27
3335.00,100.27
3334.00,100.27
3333.00,100.28
3332.00,100.29
3331.00,100.29
3330.00,100.29
3329.00,100.28
3328.00,100.26
3327.00,100.26
3326.00,100.27
3325.00,100.28
3324.00,100.31
3323.00,100.33
3322.00,100.35
3321.00,100.34
3320.00,100.33
3319.00,100.31
3318.00,100.30
3317.00,100.30
3316.00,100.30
3315.00,100.30
3314.00,100.29
3313.00,100.28
3312.00,100.28
3311.00,100.28
3310.00,100.30
3309.00,100.31
3308.00,100.32
3307.00,100.31
3306.00,100.29
3305.00,100.28
3304.00,100.28
3303.00,100.28
3302.00,100.29
3301.00,100.29
3300.00,100.29
3299.00,100.30
3298.00,100.31
3297.00,100.31
3296.00,100.31
3295.00,100.30
3294.00,100.29
3293.00,100.28
3292.00,100.28
3291.00,100.28
3290.00,100.28
3289.00,100.28
3288.00,100.28
3287.00,100.27
3286.00,100.27
3285.00,100.27
3284.00,100.28
3283.00,100.31
3282.00,100.35
3281.00,100.37
3280.00,100.36
3279.00,100.34
3278.00,100.30
3277.00,100.28
3276.00,100.26
3275.00,100.26
3274.00,100.26
3273.00,100.25
3272.00,100.24
3271.00,100.23
3270.00,100.24
3269.00,100.25
3268.00,100.26
3267.00,100.27
3266.00,100.28
3265.00,100.29
3264.00,100.29
3263.00,100.29
3262.00,100.29
3261.00,100.29
3260.00,100.28
3259.00,100.29
3258.00,100.29
3257.00,100.29
3256.00,100.29
3255.00,100.28
3254.00,100.27
3253.00,100.26
3252.00,100.27
3251.00,100.28
3250.00,100.29
3249.00,100.30
3248.00,100.30
3247.00,100.31
3246.00,100.31
3245.00,100.31
3244.00,100.30
3243.00,100.29
3242.00,100.30
3241.00,100.31
3240.00,100.32
3239.00,100.31
3238.00,100.28
3237.00,100.26
3236.00,100.25
3235.00,100.27
3234.00,100.30
3233.00,100.31
3232.00,100.31
3231.00,100.29
3230.00,100.28
3229.00,100.26
3228.00,100.25
3227.00,100.24
3226.00,100.23
3225.00,100.22
3224.00,100.22
3223.00,100.21
3222.00,100.21
3221.00,100.21
3220.00,100.21
3219.00,100.21
3218.00,100.22
3217.00,100.22
3216.00,100.22
3215.00,100.22
3214.00,100.23
3213.00,100.22
3212.00,100.22
3211.00,100.22
3210.00,100.22
3209.00,100.22
3208.00,100.24
3207.00,100.25
3206.00,100.25
3205.00,100.24
3204.00,100.23
3203.00,100.21
3202.00,100.20
3201.00,100.20
3200.00,100.20
3199.00,100.22
3198.00,100.24
3197.00,100.25
3196.00,100.24
3195.00,100.22
3194.00,100.21
3193.00,100.20
3192.00,100.21
3191.00,100.20
3190.00,100.20
3189.00,100.19
3188.00,100.20
3187.00,100.21
3186.00,100.24
3185.00,100.27
3184.00,100.28
3183.00,100.28
3182.00,100.25
3181.00,100.22
3180.00,100.19
3179.00,100.18
3178.00,100.18
3177.00,100.20
3176.00,100.22
3175.00,100.23
3174.00,100.23
3173.00,100.21
3172.00,100.20
3171.00,100.21
3170.00,100.25
3169.00,100.27
3168.00,100.28
3167.00,100.27
3166.00,100.25
3165.00,100.23
3164.00,100.23
3163.00,100.24
3162.00,100.25
3161.00,100.27
3160.00,100.28
3159.00,100.30
3158.00,100.32
3157.00,100.32
3156.00,100.30
3155.00,100.28
3154.00,100.27
3153.00,100.26
3152.00,100.25
3151.00,100.25
3150.00,100.26
3149.00,100.27
3148.00,100.28
3147.00,100.29
3146.00,100.30
3145.00,100.29
3144.00,100.28
3143.00,100.28
3142.00,100.28
3141.00,100.28
3140.00,100.27
3139.00,100.27
3138.00,100.27
3137.00,100.28
3136.00,100.28
3135.00,100.29
3134.00,100.29
3133.00,100.30
3132.00,100.32
3131.00,100.33
3130.00,100.33
3129.00,100.32
3128.00,100.30
3127.00,100.29
3126.00,100.29
3125.00,100.31
3124.00,100.32
3123.00,100.32
3122.00,100.30
3121.00,100.30
3120.00,100.30
3119.00,100.31
3118.00,100.32
3117.00,100.32
3116.00,100.31
3115.00,100.31
3114.00,100.32
3113.00,100.33
3112.00,100.34
3111.00,100.35
3110.00,100.35
3109.00,100.35
3108.00,100.35
3107.00,100.36
3106.00,100.36
3105.00,100.35
3104.00,100.34
3103.00,100.33
3102.00,100.31
3101.00,100.31
3100.00,100.31
3099.00,100.32
3098.00,100.33
3097.00,100.33
3096.00,100.32
3095.00,100.32
3094.00,100.34
3093.00,100.36
3092.00,100.37
3091.00,100.38
3090.00,100.37
3089.00,100.36
3088.00,100.35
3087.00,100.34
3086.00,100.32
3085.00,100.31
3084.00,100.30
3083.00,100.31
3082.00,100.32
3081.00,100.33
3080.00,100.33
3079.00,100.33
3078.00,100.34
3077.00,100.36
3076.00,100.37
3075.00,100.37
3074.00,100.36
3073.00,100.34
3072.00,100.32
3071.00,100.31
3070.00,100.29
3069.00,100.28
3068.00,100.28
3067.00,100.29
3066.00,100.30
3065.00,100.31
3064.00,100.31
3063.00,100.30
3062.00,100.29
3061.00,100.29
3060.00,100.29
3059.00,100.30
3058.00,100.30
3057.00,100.30
3056.00,100.29
3055.00,100.29
3054.00,100.30
3053.00,100.31
3052.00,100.32
3051.00,100.32
3050.00,100.31
3049.00,100.31
3048.00,100.32
3047.00,100.33
3046.00,100.35
3045.00,100.36
3044.00,100.36
3043.00,100.36
3042.00,100.35
3041.00,100.34
3040.00,100.33
3039.00,100.31
3038.00,100.30
3037.00,100.31
3036.00,100.32
3035.00,100.34
3034.00,100.34
3033.00,100.33
3032.00,100.30
3031.00,100.28
3030.00,100.27
3029.00,100.26
3028.00,100.26
3027.00,100.25
3026.00,100.24
3025.00,100.25
3024.00,100.26
3023.00,100.26
3022.00,100.26
3021.00,100.25
3020.00,100.24
3019.00,100.23
3018.00,100.23
3017.00,100.23
3016.00,100.23
3015.00,100.21
3014.00,100.19
3013.00,100.16
3012.00,100.14
3011.00,100.13
3010.00,100.12
3009.00,100.12
3008.00,100.12
3007.00,100.11
3006.00,100.10
3005.00,100.07
3004.00,100.04
3003.00,100.01
3002.00,99.98
3001.00,99.95
3000.00,99.93
2999.00,99.90
2998.00,99.87
2997.00,99.83
2996.00,99.79
2995.00,99.74
2994.00,99.69
2993.00,99.64
2992.00,99.58
2991.00,99.52
2990.00,99.46
2989.00,99.40
2988.00,99.34
2987.00,99.26
2986.00,99.17
2985.00,99.07
2984.00,98.95
2983.00,98.81
2982.00,98.64
2981.00,98.45
2980.00,98.24
2979.00,98.01
2978.00,97.76
2977.00,97.48
2976.00,97.15
2975.00,96.77
2974.00,96.34
2973.00,95.85
2972.00,95.30
2971.00,94.68
2970.00,94.00
2969.00,93.27
2968.00,92.49
2967.00,91.65
2966.00,90.76
2965.00,89.85
2964.00,88.95
2963.00,88.11
2962.00,87.37
2961.00,86.76
2960.00,86.30
2959.00,85.97
2958.00,85.74
2957.00,85.57
2956.00,85.38
2955.00,85.16
2954.00,84.90
2953.00,84.63
2952.00,84.43
2951.00,84.35
2950.00,84.47
2949.00,84.81
2948.00,85.39
2947.00,86.16
2946.00,87.08
2945.00,88.05
2944.00,89.02
2943.00,89.88
2942.00,90.61
2941.00,91.15
2940.00,91.51
2939.00,91.70
2938.00,91.72
2937.00,91.61
2936.00,91.38
2935.00,91.04
2934.00,90.59
2933.00,90.06
2932.00,89.45
2931.00,88.78
2930.00,88.09
2929.00,87.40
2928.00,86.73
2927.00,86.10
2926.00,85.51
2925.00,84.95
2924.00,84.43
2923.00,83.93
2922.00,83.43
2921.00,82.98
2920.00,82.58
2919.00,82.28
2918.00,82.12
2917.00,82.13
2916.00,82.28
2915.00,82.56
2914.00,82.91
2913.00,83.30
2912.00,83.69
2911.00,84.04
2910.00,84.36
2909.00,84.65
2908.00,84.94
2907.00,85.26
2906.00,85.62
2905.00,86.01
2904.00,86.43
2903.00,86.87
2902.00,87.32
2901.00,87.77
2900.00,88.22
2899.00,88.64
2898.00,89.06
2897.00,89.45
2896.00,89.80
2895.00,90.11
2894.00,90.37
2893.00,90.56
2892.00,90.71
2891.00,90.82
2890.00,90.89
2889.00,90.94
2888.00,90.96
2887.00,90.93
2886.00,90.86
2885.00,90.76
2884.00,90.64
2883.00,90.50
2882.00,90.35
2881.00,90.19
2880.00,90.04
2879.00,89.92
2878.00,89.83
2877.00,89.80
2876.00,89.80
2875.00,89.81
2874.00,89.81
2873.00,89.78
2872.00,89.72
2871.00,89.63
2870.00,89.51
2869.00,89.40
2868.00,89.35
2867.00,89.42
2866.00,89.66
2865.00,90.08
2864.00,90.68
2863.00,91.38
2862.00,92.13
2861.00,92.84
2860.00,93.47
2859.00,93.98
2858.00,94.39
2857.00,94.68
2856.00,94.88
2855.00,95.00
2854.00,95.06
2853.00,95.04
2852.00,94.97
2851.00,94.83
2850.00,94.63
2849.00,94.36
2848.00,94.01
2847.00,93.58
2846.00,93.07
2845.00,92.50
2844.00,91.89
2843.00,91.27
2842.00,90.68
2841.00,90.14
2840.00,89.72
2839.00,89.47
2838.00,89.42
2837.00,89.61
2836.00,90.04
2835.00,90.65
2834.00,91.41
2833.00,92.23
2832.00,93.04
2831.00,93.80
2830.00,94.48
2829.00,95.06
2828.00,95.55
2827.00,95.95
2826.00,96.27
2825.00,96.54
2824.00,96.75
2823.00,96.94
2822.00,97.11
2821.00,97.28
2820.00,97.44
2819.00,97.57
2818.00,97.67
2817.00,97.75
2816.00,97.82
2815.00,97.89
2814.00,97.95
2813.00,98.01
2812.00,98.06
2811.00,98.11
2810.00,98.16
2809.00,98.22
2808.00,98.29
2807.00,98.35
2806.00,98.41
2805.00,98.45
2804.00,98.51
2803.00,98.56
2802.00,98.63
2801.00,98.68
2800.00,98.73
2799.00,98.76
2798.00,98.78
2797.00,98.79
2796.00,98.80
2795.00,98.82
2794.00,98.85
2793.00,98.89
2792.00,98.94
2791.00,98.99
2790.00,99.03
2789.00,99.07
2788.00,99.11
2787.00,99.15
2786.00,99.18
2785.00,99.20
2784.00,99.22
2783.00,99.24
2782.00,99.26
2781.00,99.29
2780.00,99.32
2779.00,99.36
2778.00,99.39
2777.00,99.41
2776.00,99.42
2775.00,99.42
2774.00,99.43
2773.00,99.44
2772.00,99.46
2771.00,99.47
2770.00,99.48
2769.00,99.48
2768.00,99.48
2767.00,99.48
2766.00,99.49
2765.00,99.50
2764.00,99.51
2763.00,99.51
2762.00,99.50
2761.00,99.50
2760.00,99.50
2759.00,99.53
2758.00,99.56
2757.00,99.59
2756.00,99.61
2755.00,99.61
2754.00,99.61
2753.00,99.60
2752.00,99.59
2751.00,99.58
2750.00,99.57
2749.00,99.57
2748.00,99.56
2747.00,99.57
2746.00,99.57
2745.00,99.57
2744.00,99.57
2743.00,99.55
2742.00,99.53
2741.00,99.51
2740.00,99.48
2739.00,99.46
2738.00,99.45
2737.00,99.44
2736.00,99.44
2735.00,99.44
2734.00,99.42
2733.00,99.40
2732.00,99.37
2731.00,99.35
2730.00,99.33
2729.00,99.31
2728.00,99.29
2727.00,99.27
2726.00,99.25
2725.00,99.25
2724.00,99.24
2723.00,99.24
2722.00,99.25
2721.00,99.26
2720.00,99.28
2719.00,99.31
2718.00,99.33
2717.00,99.35
2716.00,99.38
2715.00,99.42
2714.00,99.46
2713.00,99.48
2712.00,99.50
2711.00,99.52
2710.00,99.54
2709.00,99.56
2708.00,99.58
2707.00,99.58
2706.00,99.59
2705.00,99.61
2704.00,99.63
2703.00,99.65
2702.00,99.66
2701.00,99.66
2700.00,99.67
2699.00,99.67
2698.00,99.67
2697.00,99.67
2696.00,99.66
2695.00,99.65
2694.00,99.65
2693.00,99.66
2692.00,99.67
2691.00,99.67
2690.00,99.67
2689.00,99.66
2688.00,99.64
2687.00,99.64
2686.00,99.64
2685.00,99.64
2684.00,99.63
2683.00,99.64
2682.00,99.65
2681.00,99.66
2680.00,99.67
2679.00,99.68
2678.00,99.68
2677.00,99.68
2676.00,99.67
2675.00,99.67
2674.00,99.67
2673.00,99.68
2672.00,99.68
2671.00,99.69
2670.00,99.69
2669.00,99.68
2668.00,99.67
2667.00,99.67
2666.00,99.66
2665.00,99.66
2664.00,99.66
2663.00,99.65
2662.00,99.64
2661.00,99.62
2660.00,99.61
2659.00,99.60
2658.00,99.59
2657.00,99.60
2656.00,99.60
2655.00,99.61
2654.00,99.61
2653.00,99.59
2652.00,99.58
2651.00,99.59
2650.00,99.60
2649.00,99.61
2648.00,99.60
2647.00,99.59
2646.00,99.59
2645.00,99.60
2644.00,99.60
2643.00,99.60
2642.00,99.59
2641.00,99.58
2640.00,99.57
2639.00,99.56
2638.00,99.55
2637.00,99.54
2636.00,99.54
2635.00,99.52
2634.00,99.51
2633.00,99.50
2632.00,99.50
2631.00,99.49
2630.00,99.48
2629.00,99.46
2628.00,99.44
2627.00,99.43
2626.00,99.42
2625.00,99.41
2624.00,99.41
2623.00,99.40
2622.00,99.39
2621.00,99.38
2620.00,99.37
2619.00,99.36
2618.00,99.35
2617.00,99.34
2616.00,99.35
2615.00,99.37
2614.00,99.39
2613.00,99.41
2612.00,99.40
2611.00,99.38
2610.00,99.36
2609.00,99.35
2608.00,99.35
2607.00,99.35
2606.00,99.35
2605.00,99.35
2604.00,99.34
2603.00,99.34
2602.00,99.34
2601.00,99.36
2600.00,99.38
2599.00,99.38
2598.00,99.36
2597.00,99.33
2596.00,99.30
2595.00,99.29
2594.00,99.29
2593.00,99.30
2592.00,99.30
2591.00,99.29
2590.00,99.28
2589.00,99.27
2588.00,99.26
2587.00,99.24
2586.00,99.22
2585.00,99.20
2584.00,99.18
2583.00,99.16
2582.00,99.15
2581.00,99.15
2580.00,99.15
2579.00,99.16
2578.00,99.17
2577.00,99.18
2576.00,99.18
2575.00,99.18
2574.00,99.17
2573.00,99.16
2572.00,99.16
2571.00,99.19
2570.00,99.22
2569.00,99.27
2568.00,99.30
2567.00,99.31
2566.00,99.30
2565.00,99.28
2564.00,99.27
2563.00,99.28
2562.00,99.30
2561.00,99.31
2560.00,99.31
2559.00,99.29
2558.00,99.28
2557.00,99.27
2556.00,99.26
2555.00,99.26
2554.00,99.26
2553.00,99.25
2552.00,99.25
2551.00,99.26
2550.00,99.27
2549.00,99.28
2548.00,99.29
2547.00,99.31
2546.00,99.32
2545.00,99.33
2544.00,99.32
2543.00,99.29
2542.00,99.26
2541.00,99.23
2540.00,99.23
2539.00,99.24
2538.00,99.24
2537.00,99.24
2536.00,99.24
2535.00,99.26
2534.00,99.29
2533.00,99.30
2532.00,99.30
2531.00,99.30
2530.00,99.29
2529.00,99.28
2528.00,99.27
2527.00,99.27
2526.00,99.28
2525.00,99.29
2524.00,99.30
2523.00,99.30
2522.00,99.30
2521.00,99.31
2520.00,99.32
2519.00,99.31
2518.00,99.30
2517.00,99.29
2516.00,99.29
2515.00,99.30
2514.00,99.32
2513.00,99.33
2512.00,99.33
2511.00,99.32
2510.00,99.30
2509.00,99.29
2508.00,99.29
2507.00,99.32
2506.00,99.35
2505.00,99.37
2504.00,99.39
2503.00,99.40
2502.00,99.39
2501.00,99.38
2500.00,99.35
2499.00,99.33
2498.00,99.31
2497.00,99.31
2496.00,99.30
2495.00,99.31
2494.00,99.32
2493.00,99.33
2492.00,99.33
2491.00,99.31
2490.00,99.30
2489.00,99.29
2488.00,99.27
2487.00,99.25
2486.00,99.23
2485.00,99.21
2484.00,99.23
2483.00,99.26
2482.00,99.30
2481.00,99.31
2480.00,99.31
2479.00,99.31
2478.00,99.31
2477.00,99.32
2476.00,99.34
2475.00,99.35
2474.00,99.35
2473.00,99.35
2472.00,99.35
2471.00,99.36
2470.00,99.36
2469.00,99.37
2468.00,99.37
2467.00,99.36
2466.00,99.34
2465.00,99.32
2464.00,99.30
2463.00,99.29
2462.00,99.28
2461.00,99.27
2460.00,99.26
2459.00,99.26
2458.00,99.25
2457.00,99.25
2456.00,99.26
2455.00,99.26
2454.00,99.25
2453.00,99.24
2452.00,99.24
2451.00,99.26
2450.00,99.27
2449.00,99.29
2448.00,99.29
2447.00,99.30
2446.00,99.32
2445.00,99.33
2444.00,99.34
2443.00,99.35
2442.00,99.36
2441.00,99.34
2440.00,99.32
2439.00,99.29
2438.00,99.27
2437.00,99.26
2436.00,99.26
2435.00,99.26
2434.00,99.25
2433.00,99.25
2432.00,99.26
2431.00,99.27
2430.00,99.27
2429.00,99.28
2428.00,99.28
2427.00,99.28
2426.00,99.29
2425.00,99.30
2424.00,99.31
2423.00,99.32
2422.00,99.31
2421.00,99.31
2420.00,99.31
2419.00,99.31
2418.00,99.32
2417.00,99.33
2416.00,99.35
2415.00,99.38
2414.00,99.40
2413.00,99.40
2412.00,99.38
2411.00,99.35
2410.00,99.34
2409.00,99.35
2408.00,99.38
2407.00,99.40
2406.00,99.41
2405.00,99.40
2404.00,99.39
2403.00,99.38
2402.00,99.38
2401.00,99.39
2400.00,99.41
2399.00,99.43
2398.00,99.42
2397.00,99.42
2396.00,99.42
2395.00,99.43
2394.00,99.46
2393.00,99.49
2392.00,99.52
2391.00,99.54
2390.00,99.53
2389.00,99.51
2388.00,99.50
2387.00,99.50
2386.00,99.52
2385.00,99.56
2384.00,99.61
2383.00,99.64
2382.00,99.68
2381.00,99.72
2380.00,99.76
2379.00,99.81
2378.00,99.85
2377.00,99.88
2376.00,99.89
2375.00,99.88
2374.00,99.84
2373.00,99.81
2372.00,99.80
2371.00,99.82
2370.00,99.85
2369.00,99.88
2368.00,99.91
2367.00,99.94
2366.00,99.98
2365.00,100.00
2364.00,100.00
2363.00,99.98
2362.00,99.97
2361.00,99.99
2360.00,100.02
2359.00,100.02
2358.00,99.99
2357.00,100.00
2356.00,100.06
2355.00,100.12
2354.00,100.15
2353.00,100.13
2352.00,100.08
2351.00,100.04
2350.00,100.03
2349.00,100.08
2348.00,100.18
2347.00,100.29
2346.00,100.36
2345.00,100.37
2344.00,100.33
2343.00,100.28
2342.00,100.21
2341.00,100.14
2340.00,100.08
2339.00,100.03
2338.00,99.97
2337.00,99.93
2336.00,99.90
2335.00,99.91
2334.00,99.94
2333.00,99.98
2332.00,100.02
2331.00,100.03
2330.00,100.02
2329.00,99.98
2328.00,99.93
2327.00,99.87
2326.00,99.81
2325.00,99.78
2324.00,99.77
2323.00,99.76
2322.00,99.71
2321.00,99.64
2320.00,99.57
2319.00,99.51
2318.00,99.47
2317.00,99.46
2316.00,99.48
2315.00,99.50
2314.00,99.51
2313.00,99.49
2312.00,99.48
2311.00,99.47
2310.00,99.45
2309.00,99.41
2308.00,99.38
2307.00,99.35
2306.00,99.34
2305.00,99.34
2304.00,99.34
2303.00,99.34
2302.00,99.32
2301.00,99.28
2300.00,99.24
2299.00,99.21
2298.00,99.19
2297.00,99.18
2296.00,99.18
2295.00,99.20
2294.00,99.20
2293.00,99.18
2292.00,99.13
2291.00,99.07
2290.00,99.02
2289.00,98.97
2288.00,98.93
2287.00,98.92
2286.00,98.92
2285.00,98.91
2284.00,98.88
2283.00,98.86
2282.00,98.85
2281.00,98.85
2280.00,98.86
2279.00,98.86
2278.00,98.85
2277.00,98.83
2276.00,98.80
2275.00,98.78
2274.00,98.77
2273.00,98.75
2272.00,98.72
2271.00,98.70
2270.00,98.69
2269.00,98.67
2268.00,98.65
2267.00,98.63
2266.00,98.62
2265.00,98.60
2264.00,98.58
2263.00,98.55
2262.00,98.52
2261.00,98.49
2260.00,98.46
2259.00,98.43
2258.00,98.40
2257.00,98.39
2256.00,98.37
2255.00,98.35
2254.00,98.35
2253.00,98.36
2252.00,98.39
2251.00,98.42
2250.00,98.44
2249.00,98.44
2248.00,98.40
2247.00,98.35
2246.00,98.32
2245.00,98.33
2244.00,98.36
2243.00,98.37
2242.00,98.35
2241.00,98.31
2240.00,98.29
2239.00,98.27
2238.00,98.26
2237.00,98.25
2236.00,98.24
2235.00,98.24
2234.00,98.24
2233.00,98.25
2232.00,98.25
2231.00,98.23
2230.00,98.19
2229.00,98.13
2228.00,98.06
2227.00,98.02
2226.00,98.00
2225.00,98.02
2224.00,98.06
2223.00,98.08
2222.00,98.05
2221.00,97.99
2220.00,97.93
2219.00,97.91
2218.00,97.93
2217.00,97.96
2216.00,97.96
2215.00,97.92
2214.00,97.85
2213.00,97.78
2212.00,97.73
2211.00,97.72
2210.00,97.74
2209.00,97.78
2208.00,97.82
2207.00,97.85
2206.00,97.84
2205.00,97.79
2204.00,97.70
2203.00,97.62
2202.00,97.57
2201.00,97.56
2200.00,97.55
2199.00,97.54
2198.00,97.54
2197.00,97.56
2196.00,97.62
2195.00,97.68
2194.00,97.70
2193.00,97.64
2192.00,97.55
2191.00,97.45
2190.00,97.40
2189.00,97.38
2188.00,97.36
2187.00,97.34
2186.00,97.32
2185.00,97.32
2184.00,97.33
2183.00,97.34
2182.00,97.32
2181.00,97.30
2180.00,97.30
2179.00,97.31
2178.00,97.32
2177.00,97.33
2176.00,97.35
2175.00,97.39
2174.00,97.42
2173.00,97.43
2172.00,97.39
2171.00,97.32
2170.00,97.21
2169.00,97.08
2168.00,96.96
2167.00,96.85
2166.00,96.78
2165.00,96.74
2164.00,96.74
2163.00,96.74
2162.00,96.71
2161.00,96.65
2160.00,96.65
2159.00,96.73
2158.00,96.89
2157.00,97.04
2156.00,97.15
2155.00,97.21
2154.00,97.24
2153.00,97.26
2152.00,97.27
2151.00,97.28
2150.00,97.33
2149.00,97.41
2148.00,97.52
2147.00,97.64
2146.00,97.72
2145.00,97.76
2144.00,97.79
2143.00,97.84
2142.00,97.91
2141.00,97.96
2140.00,97.99
2139.00,98.01
2138.00,98.06
2137.00,98.14
2136.00,98.23
2135.00,98.29
2134.00,98.32
2133.00,98.33
2132.00,98.34
2131.00,98.36
2130.00,98.37
2129.00,98.37
2128.00,98.36
2127.00,98.35
2126.00,98.36
2125.00,98.39
2124.00,98.43
2123.00,98.47
2122.00,98.50
2121.00,98.51
2120.00,98.52
2119.00,98.53
2118.00,98.55
2117.00,98.56
2116.00,98.54
2115.00,98.51
2114.00,98.46
2113.00,98.43
2112.00,98.43
2111.00,98.44
2110.00,98.45
2109.00,98.47
2108.00,98.48
2107.00,98.48
2106.00,98.44
2105.00,98.39
2104.00,98.34
2103.00,98.31
2102.00,98.29
2101.00,98.28
2100.00,98.28
2099.00,98.30
2098.00,98.33
2097.00,98.36
2096.00,98.37
2095.00,98.37
2094.00,98.38
2093.00,98.40
2092.00,98.41
2091.00,98.42
2090.00,98.44
2089.00,98.46
2088.00,98.48
2087.00,98.49
2086.00,98.50
2085.00,98.49
2084.00,98.46
2083.00,98.41
2082.00,98.36
2081.00,98.31
2080.00,98.28
2079.00,98.27
2078.00,98.27
2077.00,98.29
2076.00,98.31
2075.00,98.33
2074.00,98.31
2073.00,98.26
2072.00,98.19
2071.00,98.14
2070.00,98.13
2069.00,98.16
2068.00,98.20
2067.00,98.23
2066.00,98.24
2065.00,98.22
2064.00,98.19
2063.00,98.17
2062.00,98.16
2061.00,98.15
2060.00,98.15
2059.00,98.13
2058.00,98.10
2057.00,98.05
2056.00,98.00
2055.00,97.98
2054.00,97.95
2053.00,97.91
2052.00,97.83
2051.00,97.74
2050.00,97.64
2049.00,97.57
2048.00,97.54
2047.00,97.54
2046.00,97.56
2045.00,97.57
2044.00,97.56
2043.00,97.52
2042.00,97.45
2041.00,97.37
2040.00,97.29
2039.00,97.22
2038.00,97.17
2037.00,97.13
2036.00,97.11
2035.00,97.14
2034.00,97.19
2033.00,97.24
2032.00,97.26
2031.00,97.23
2030.00,97.18
2029.00,97.14
2028.00,97.11
2027.00,97.11
2026.00,97.13
2025.00,97.16
2024.00,97.18
2023.00,97.19
2022.00,97.21
2021.00,97.25
2020.00,97.27
2019.00,97.27
2018.00,97.25
2017.00,97.23
2016.00,97.22
2015.00,97.20
2014.00,97.20
2013.00,97.24
2012.00,97.33
2011.00,97.41
2010.00,97.43
2009.00,97.37
2008.00,97.31
2007.00,97.32
2006.00,97.38
2005.00,97.45
2004.00,97.50
2003.00,97.53
2002.00,97.55
2001.00,97.57
2000.00,97.58
1999.00,97.58
1998.00,97.56
1997.00,97.55
1996.00,97.54
1995.00,97.55
1994.00,97.57
1993.00,97.59
1992.00,97.60
1991.00,97.57
1990.00,97.52
1989.00,97.49
1988.00,97.45
1987.00,97.42
1986.00,97.39
1985.00,97.37
1984.00,97.36
1983.00,97.34
1982.00,97.30
1981.00,97.25
1980.00,97.20
1979.00,97.15
1978.00,97.14
1977.00,97.17
1976.00,97.23
1975.00,97.30
1974.00,97.34
1973.00,97.35
1972.00,97.36
1971.00,97.36
1970.00,97.37
1969.00,97.42
1968.00,97.48
1967.00,97.56
1966.00,97.62
1965.00,97.65
1964.00,97.64
1963.00,97.64
1962.00,97.64
1961.00,97.68
1960.00,97.73
1959.00,97.77
1958.00,97.76
1957.00,97.73
1956.00,97.75
1955.00,97.85
1954.00,97.99
1953.00,98.12
1952.00,98.18
1951.00,98.16
1950.00,98.12
1949.00,98.09
1948.00,98.08
1947.00,98.10
1946.00,98.14
1945.00,98.17
1944.00,98.22
1943.00,98.27
1942.00,98.32
1941.00,98.35
1940.00,98.37
1939.00,98.38
1938.00,98.40
1937.00,98.41
1936.00,98.43
1935.00,98.43
1934.00,98.43
1933.00,98.41
1932.00,98.39
1931.00,98.37
1930.00,98.38
1929.00,98.42
1928.00,98.46
1927.00,98.49
1926.00,98.51
1925.00,98.52
1924.00,98.55
1923.00,98.57
1922.00,98.58
1921.00,98.58
1920.00,98.59
1919.00,98.60
1918.00,98.59
1917.00,98.56
1916.00,98.55
1915.00,98.57
1914.00,98.61
1913.00,98.65
1912.00,98.66
1911.00,98.65
1910.00,98.65
1909.00,98.66
1908.00,98.66
1907.00,98.67
1906.00,98.68
1905.00,98.71
1904.00,98.75
1903.00,98.78
1902.00,98.80
1901.00,98.81
1900.00,98.80
1899.00,98.79
1898.00,98.78
1897.00,98.77
1896.00,98.75
1895.00,98.75
1894.00,98.75
1893.00,98.78
1892.00,98.80
1891.00,98.82
1890.00,98.81
1889.00,98.79
1888.00,98.78
1887.00,98.78
1886.00,98.80
1885.00,98.82
1884.00,98.82
1883.00,98.82
1882.00,98.83
1881.00,98.84
1880.00,98.86
1879.00,98.88
1878.00,98.90
1877.00,98.91
1876.00,98.92
1875.00,98.93
1874.00,98.93
1873.00,98.93
1872.00,98.92
1871.00,98.91
1870.00,98.92
1869.00,98.95
1868.00,98.97
1867.00,98.97
1866.00,98.97
1865.00,98.97
1864.00,98.97
1863.00,98.98
1862.00,98.97
1861.00,98.96
1860.00,98.94
1859.00,98.94
1858.00,98.95
1857.00,98.95
1856.00,98.95
1855.00,98.95
1854.00,98.96
1853.00,98.99
1852.00,99.03
1851.00,99.05
1850.00,99.05
1849.00,99.05
1848.00,99.06
1847.00,99.07
1846.00,99.06
1845.00,99.04
1844.00,99.01
1843.00,98.99
1842.00,98.99
1841.00,99.00
1840.00,99.01
1839.00,99.01
1838.00,99.00
1837.00,98.99
1836.00,98.98
1835.00,98.97
1834.00,98.96
1833.00,98.96
1832.00,98.97
1831.00,98.99
1830.00,99.01
1829.00,99.03
1828.00,99.04
1827.00,99.07
1826.00,99.08
1825.00,99.10
1824.00,99.10
1823.00,99.10
1822.00,99.10
1821.00,99.11
1820.00,99.12
1819.00,99.12
1818.00,99.12
1817.00,99.12
1816.00,99.12
1815.00,99.14
1814.00,99.15
1813.00,99.14
1812.00,99.14
1811.00,99.14
1810.00,99.14
1809.00,99.14
1808.00,99.15
1807.00,99.16
1806.00,99.17
1805.00,99.17
1804.00,99.16
1803.00,99.15
1802.00,99.14
1801.00,99.14
1800.00,99.15
1799.00,99.16
1798.00,99.17
1797.00,99.17
1796.00,99.15
1795.00,99.14
1794.00,99.13
1793.00,99.11
1792.00,99.10
1791.00,99.11
1790.00,99.12
1789.00,99.14
1788.00,99.15
1787.00,99.15
1786.00,99.15
1785.00,99.14
1784.00,99.13
1783.00,99.12
1782.00,99.11
1781.00,99.12
1780.00,99.13
1779.00,99.15
1778.00,99.17
1777.00,99.17
1776.00,99.17
1775.00,99.16
1774.00,99.17
1773.00,99.17
1772.00,99.16
1771.00,99.14
1770.00,99.11
1769.00,99.09
1768.00,99.08
1767.00,99.07
1766.00,99.07
1765.00,99.06
1764.00,99.05
1763.00,99.05
1762.00,99.05
1761.00,99.06
1760.00,99.06
1759.00,99.06
1758.00,99.04
1757.00,99.01
1756.00,98.98
1755.00,98.97
1754.00,98.96
1753.00,98.95
1752.00,98.92
1751.00,98.88
1750.00,98.85
1749.00,98.83
1748.00,98.82
1747.00,98.81
1746.00,98.81
1745.00,98.80
1744.00,98.79
1743.00,98.79
1742.00,98.79
1741.00,98.78
1740.00,98.76
1739.00,98.74
1738.00,98.72
1737.00,98.69
1736.00,98.67
1735.00,98.66
1734.00,98.67
1733.00,98.68
1732.00,98.69
1731.00,98.69
1730.00,98.71
1729.00,98.72
1728.00,98.74
1727.00,98.77
1726.00,98.80
1725.00,98.82
1724.00,98.82
1723.00,98.81
1722.00,98.81
1721.00,98.81
1720.00,98.82
1719.00,98.83
1718.00,98.84
1717.00,98.84
1716.00,98.84
1715.00,98.85
1714.00,98.85
1713.00,98.85
1712.00,98.84
1711.00,98.85
1710.00,98.85
1709.00,98.86
1708.00,98.87
1707.00,98.88
1706.00,98.87
1705.00,98.87
1704.00,98.87
1703.00,98.88
1702.00,98.88
1701.00,98.87
1700.00,98.86
1699.00,98.85
1698.00,98.86
1697.00,98.85
1696.00,98.85
1695.00,98.85
1694.00,98.85
1693.00,98.85
1692.00,98.85
1691.00,98.86
1690.00,98.86
1689.00,98.86
1688.00,98.85
1687.00,98.85
1686.00,98.85
1685.00,98.86
1684.00,98.88
1683.00,98.89
1682.00,98.89
1681.00,98.88
1680.00,98.87
1679.00,98.85
1678.00,98.84
1677.00,98.84
1676.00,98.84
1675.00,98.85
1674.00,98.85
1673.00,98.86
1672.00,98.86
1671.00,98.86
1670.00,98.84
1669.00,98.82
1668.00,98.80
1667.00,98.79
1666.00,98.79
1665.00,98.80
1664.00,98.81
1663.00,98.82
1662.00,98.83
1661.00,98.83
1660.00,98.84
1659.00,98.83
1658.00,98.83
1657.00,98.83
1656.00,98.83
1655.00,98.85
1654.00,98.87
1653.00,98.87
1652.00,98.85
1651.00,98.84
1650.00,98.84
1649.00,98.85
1648.00,98.85
1647.00,98.84
1646.00,98.81
1645.00,98.78
1644.00,98.77
1643.00,98.77
1642.00,98.78
1641.00,98.80
1640.00,98.81
1639.00,98.83
1638.00,98.83
1637.00,98.83
1636.00,98.82
1635.00,98.81
1634.00,98.82
1633.00,98.82
1632.00,98.82
1631.00,98.83
1630.00,98.83
1629.00,98.85
1628.00,98.86
1627.00,98.87
1626.00,98.86
1625.00,98.86
1624.00,98.86
1623.00,98.87
1622.00,98.88
1621.00,98.88
1620.00,98.87
1619.00,98.87
1618.00,98.86
1617.00,98.87
1616.00,98.88
1615.00,98.87
1614.00,98.86
1613.00,98.85
1612.00,98.84
1611.00,98.84
1610.00,98.84
1609.00,98.85
1608.00,98.86
1607.00,98.87
1606.00,98.87
1605.00,98.87
1604.00,98.88
1603.00,98.89
1602.00,98.89
1601.00,98.87
1600.00,98.87
1599.00,98.87
1598.00,98.87
1597.00,98.87
1596.00,98.87
1595.00,98.87
1594.00,98.87
1593.00,98.87
1592.00,98.88
1591.00,98.88
1590.00,98.89
1589.00,98.89
1588.00,98.89
1587.00,98.90
1586.00,98.90
1585.00,98.91
1584.00,98.93
1583.00,98.94
1582.00,98.94
1581.00,98.93
1580.00,98.93
1579.00,98.94
1578.00,98.95
1577.00,98.97
1576.00,98.96
1575.00,98.95
1574.00,98.94
1573.00,98.93
1572.00,98.92
1571.00,98.92
1570.00,98.91
1569.00,98.91
1568.00,98.91
1567.00,98.91
1566.00,98.92
1565.00,98.93
1564.00,98.94
1563.00,98.95
1562.00,98.96
1561.00,98.96
1560.00,98.96
1559.00,98.95
1558.00,98.93
1557.00,98.90
1556.00,98.88
1555.00,98.86
1554.00,98.86
1553.00,98.87
1552.00,98.87
1551.00,98.86
1550.00,98.86
1549.00,98.86
1548.00,98.87
1547.00,98.88
1546.00,98.89
1545.00,98.89
1544.00,98.88
1543.00,98.87
1542.00,98.87
1541.00,98.87
1540.00,98.86
1539.00,98.87
1538.00,98.88
1537.00,98.87
1536.00,98.86
1535.00,98.84
1534.00,98.82
1533.00,98.82
1532.00,98.84
1531.00,98.85
1530.00,98.87
1529.00,98.88
1528.00,98.88
1527.00,98.88
1526.00,98.87
1525.00,98.87
1524.00,98.86
1523.00,98.86
1522.00,98.86
1521.00,98.87
1520.00,98.87
1519.00,98.87
1518.00,98.87
1517.00,98.86
1516.00,98.86
1515.00,98.85
1514.00,98.84
1513.00,98.82
1512.00,98.80
1511.00,98.79
1510.00,98.78
1509.00,98.76
1508.00,98.76
1507.00,98.76
1506.00,98.77
1505.00,98.78
1504.00,98.78
1503.00,98.77
1502.00,98.75
1501.00,98.71
1500.00,98.67
1499.00,98.65
1498.00,98.65
1497.00,98.65
1496.00,98.64
1495.00,98.62
1494.00,98.60
1493.00,98.58
1492.00,98.55
1491.00,98.51
1490.00,98.47
1489.00,98.43
1488.00,98.38
1487.00,98.35
1486.00,98.32
1485.00,98.28
1484.00,98.23
1483.00,98.17
1482.00,98.09
1481.00,97.99
1480.00,97.89
1479.00,97.78
1478.00,97.65
1477.00,97.47
1476.00,97.27
1475.00,97.06
1474.00,96.77
1473.00,96.35
1472.00,95.83
1471.00,95.29
1470.00,94.75
1469.00,94.20
1468.00,93.60
1467.00,92.96
1466.00,92.27
1465.00,91.55
1464.00,90.89
1463.00,90.38
1462.00,89.99
1461.00,89.67
1460.00,89.41
1459.00,89.19
1458.00,88.97
1457.00,88.78
1456.00,88.66
1455.00,88.61
1454.00,88.58
1453.00,88.58
1452.00,88.65
1451.00,88.82
1450.00,89.12
1449.00,89.59
1448.00,90.25
1447.00,91.03
1446.00,91.81
1445.00,92.51
1444.00,93.13
1443.00,93.65
1442.00,94.06
1441.00,94.35
1440.00,94.53
1439.00,94.62
1438.00,94.63
1437.00,94.64
1436.00,94.74
1435.00,94.96
1434.00,95.28
1433.00,95.67
1432.00,96.07
1431.00,96.44
1430.00,96.73
1429.00,96.96
1428.00,97.13
1427.00,97.25
1426.00,97.32
1425.00,97.39
1424.00,97.45
1423.00,97.51
1422.00,97.55
1421.00,97.58
1420.00,97.61
1419.00,97.64
1418.00,97.67
1417.00,97.72
1416.00,97.76
1415.00,97.78
1414.00,97.80
1413.00,97.82
1412.00,97.84
1411.00,97.85
1410.00,97.86
1409.00,97.88
1408.00,97.90
1407.00,97.91
1406.00,97.91
1405.00,97.91
1404.00,97.91
1403.00,97.91
1402.00,97.90
1401.00,97.90
1400.00,97.89
1399.00,97.87
1398.00,97.84
1397.00,97.82
1396.00,97.81
1395.00,97.79
1394.00,97.77
1393.00,97.75
1392.00,97.71
1391.00,97.65
1390.00,97.56
1389.00,97.44
1388.00,97.27
1387.00,97.01
1386.00,96.63
1385.00,96.11
1384.00,95.39
1383.00,94.40
1382.00,93.13
1381.00,91.57
1380.00,89.77
1379.00,87.82
1378.00,86.03
1377.00,84.73
1376.00,84.21
1375.00,84.60
1374.00,85.80
1373.00,87.43
1372.00,89.12
1371.00,90.66
1370.00,92.00
1369.00,93.08
1368.00,93.89
1367.00,94.42
1366.00,94.73
1365.00,94.86
1364.00,94.87
1363.00,94.78
1362.00,94.63
1361.00,94.45
1360.00,94.30
1359.00,94.24
1358.00,94.29
1357.00,94.46
1356.00,94.72
1355.00,95.04
1354.00,95.36
1353.00,95.64
1352.00,95.87
1351.00,96.05
1350.00,96.20
1349.00,96.35
1348.00,96.48
1347.00,96.60
1346.00,96.71
1345.00,96.81
1344.00,96.90
1343.00,96.97
1342.00,97.03
1341.00,97.09
1340.00,97.14
1339.00,97.18
1338.00,97.21
1337.00,97.21
1336.00,97.19
1335.00,97.17
1334.00,97.14
1333.00,97.09
1332.00,97.05
1331.00,97.01
1330.00,96.99
1329.00,96.99
1328.00,97.01
1327.00,97.06
1326.00,97.12
1325.00,97.20
1324.00,97.27
1323.00,97.33
1322.00,97.38
1321.00,97.42
1320.00,97.45
1319.00,97.46
1318.00,97.48
1317.00,97.51
1316.00,97.54
1315.00,97.56
1314.00,97.56
1313.00,97.55
1312.00,97.53
1311.00,97.50
1310.00,97.44
1309.00,97.35
1308.00,97.22
1307.00,97.07
1306.00,96.91
1305.00,96.80
1304.00,96.77
1303.00,96.81
1302.00,96.88
1301.00,96.94
1300.00,96.99
1299.00,97.01
1298.00,97.01
1297.00,97.01
1296.00,97.01
1295.00,97.02
1294.00,97.05
1293.00,97.09
1292.00,97.14
1291.00,97.18
1290.00,97.22
1289.00,97.25
1288.00,97.26
1287.00,97.28
1286.00,97.31
1285.00,97.36
1284.00,97.40
1283.00,97.43
1282.00,97.46
1281.00,97.48
1280.00,97.50
1279.00,97.51
1278.00,97.52
1277.00,97.52
1276.00,97.52
1275.00,97.52
1274.00,97.53
1273.00,97.54
1272.00,97.56
1271.00,97.57
1270.00,97.57
1269.00,97.56
1268.00,97.54
1267.00,97.51
1266.00,97.49
1265.00,97.46
1264.00,97.43
1263.00,97.39
1262.00,97.33
1261.00,97.28
1260.00,97.21
1259.00,97.12
1258.00,97.01
1257.00,96.89
1256.00,96.80
1255.00,96.76
1254.00,96.78
1253.00,96.84
1252.00,96.92
1251.00,97.00
1250.00,97.08
1249.00,97.14
1248.00,97.19
1247.00,97.22
1246.00,97.24
1245.00,97.27
1244.00,97.31
1243.00,97.35
1242.00,97.38
1241.00,97.41
1240.00,97.43
1239.00,97.45
1238.00,97.47
1237.00,97.50
1236.00,97.52
1235.00,97.53
1234.00,97.54
1233.00,97.54
1232.00,97.55
1231.00,97.55
1230.00,97.54
1229.00,97.53
1228.00,97.52
1227.00,97.49
1226.00,97.47
1225.00,97.44
1224.00,97.43
1223.00,97.41
1222.00,97.38
1221.00,97.34
1220.00,97.30
1219.00,97.28
1218.00,97.28
1217.00,97.29
1216.00,97.31
1215.00,97.33
1214.00,97.37
1213.00,97.42
1212.00,97.46
1211.00,97.49
1210.00,97.51
1209.00,97.51
1208.00,97.52
1207.00,97.52
1206.00,97.52
1205.00,97.53
1204.00,97.55
1203.00,97.58
1202.00,97.60
1201.00,97.61
1200.00,97.62
1199.00,97.62
1198.00,97.61
1197.00,97.59
1196.00,97.57
1195.00,97.56
1194.00,97.56
1193.00,97.57
1192.00,97.57
1191.00,97.57
1190.00,97.57
1189.00,97.57
1188.00,97.58
1187.00,97.58
1186.00,97.57
1185.00,97.56
1184.00,97.54
1183.00,97.51
1182.00,97.47
1181.00,97.43
1180.00,97.39
1179.00,97.32
1178.00,97.23
1177.00,97.10
1176.00,96.92
1175.00,96.71
1174.00,96.46
1173.00,96.16
1172.00,95.79
1171.00,95.38
1170.00,94.98
1169.00,94.64
1168.00,94.41
1167.00,94.30
1166.00,94.33
1165.00,94.46
1164.00,94.65
1163.00,94.84
1162.00,94.98
1161.00,95.08
1160.00,95.14
1159.00,95.20
1158.00,95.26
1157.00,95.30
1156.00,95.30
1155.00,95.27
1154.00,95.22
1153.00,95.19
1152.00,95.17
1151.00,95.17
1150.00,95.19
1149.00,95.21
1148.00,95.24
1147.00,95.27
1146.00,95.33
1145.00,95.40
1144.00,95.47
1143.00,95.52
1142.00,95.54
1141.00,95.54
1140.00,95.55
1139.00,95.58
1138.00,95.62
1137.00,95.65
1136.00,95.68
1135.00,95.68
1134.00,95.68
1133.00,95.68
1132.00,95.68
1131.00,95.69
1130.00,95.68
1129.00,95.67
1128.00,95.65
1127.00,95.64
1126.00,95.63
1125.00,95.63
1124.00,95.63
1123.00,95.60
1122.00,95.56
1121.00,95.52
1120.00,95.47
1119.00,95.44
1118.00,95.42
1117.00,95.41
1116.00,95.41
1115.00,95.40
1114.00,95.39
1113.00,95.37
1112.00,95.35
1111.00,95.33
1110.00,95.30
1109.00,95.26
1108.00,95.21
1107.00,95.13
1106.00,95.07
1105.00,95.03
1104.00,95.01
1103.00,95.01
1102.00,95.03
1101.00,95.06
1100.00,95.09
1099.00,95.12
1098.00,95.15
1097.00,95.19
1096.00,95.25
1095.00,95.33
1094.00,95.44
1093.00,95.53
1092.00,95.61
1091.00,95.68
1090.00,95.74
1089.00,95.80
1088.00,95.85
1087.00,95.88
1086.00,95.91
1085.00,95.95
1084.00,95.99
1083.00,96.02
1082.00,96.03
1081.00,96.04
1080.00,96.08
1079.00,96.13
1078.00,96.19
1077.00,96.23
1076.00,96.25
1075.00,96.24
1074.00,96.23
1073.00,96.24
1072.00,96.25
1071.00,96.27
1070.00,96.27
1069.00,96.26
1068.00,96.25
1067.00,96.26
1066.00,96.29
1065.00,96.34
1064.00,96.40
1063.00,96.45
1062.00,96.49
1061.00,96.51
1060.00,96.51
1059.00,96.50
1058.00,96.51
1057.00,96.55
1056.00,96.60
1055.00,96.64
1054.00,96.65
1053.00,96.64
1052.00,96.62
1051.00,96.62
1050.00,96.60
1049.00,96.59
1048.00,96.57
1047.00,96.56
1046.00,96.55
1045.00,96.53
1044.00,96.52
1043.00,96.52
1042.00,96.53
1041.00,96.56
1040.00,96.59
1039.00,96.61
1038.00,96.63
1037.00,96.63
1036.00,96.64
1035.00,96.66
1034.00,96.68
1033.00,96.71
1032.00,96.76
1031.00,96.81
1030.00,96.87
1029.00,96.93
1028.00,96.96
1027.00,96.96
1026.00,96.95
1025.00,96.93
1024.00,96.92
1023.00,96.93
1022.00,96.94
1021.00,96.95
1020.00,96.95
1019.00,96.95
1018.00,96.96
1017.00,96.98
1016.00,97.00
1015.00,97.01
1014.00,97.01
1013.00,96.98
1012.00,96.95
1011.00,96.91
1010.00,96.87
1009.00,96.82
1008.00,96.76
1007.00,96.69
1006.00,96.58
1005.00,96.43
1004.00,96.20
1003.00,95.89
1002.00,95.50
1001.00,95.02
1000.00,94.49
999.00,94.01
998.00,93.71
997.00,93.68
996.00,93.91
995.00,94.33
994.00,94.81
993.00,95.25
992.00,95.63
991.00,95.92
990.00,96.14
989.00,96.29
988.00,96.38
987.00,96.45
986.00,96.50
985.00,96.53
984.00,96.52
983.00,96.45
982.00,96.31
981.00,96.12
980.00,95.89
979.00,95.59
978.00,95.20
977.00,94.71
976.00,94.14
975.00,93.57
974.00,93.10
973.00,92.82
972.00,92.83
971.00,93.12
970.00,93.63
969.00,94.23
968.00,94.78
967.00,95.22
966.00,95.55
965.00,95.78
964.00,95.94
963.00,96.07
962.00,96.17
961.00,96.25
960.00,96.31
959.00,96.36
958.00,96.41
957.00,96.45
956.00,96.48
955.00,96.51
954.00,96.52
953.00,96.51
952.00,96.49
951.00,96.47
950.00,96.47
949.00,96.50
948.00,96.54
947.00,96.57
946.00,96.58
945.00,96.56
944.00,96.51
943.00,96.45
942.00,96.38
941.00,96.34
940.00,96.33
939.00,96.35
938.00,96.40
937.00,96.46
936.00,96.52
935.00,96.58
934.00,96.64
933.00,96.70
932.00,96.75
931.00,96.79
930.00,96.82
929.00,96.84
928.00,96.86
927.00,96.85
926.00,96.84
925.00,96.84
924.00,96.84
923.00,96.86
922.00,96.87
921.00,96.88
920.00,96.88
919.00,96.87
918.00,96.85
917.00,96.83
916.00,96.81
915.00,96.80
914.00,96.80
913.00,96.82
912.00,96.85
911.00,96.87
910.00,96.86
909.00,96.83
908.00,96.78
907.00,96.73
906.00,96.67
905.00,96.57
904.00,96.43
903.00,96.24
902.00,96.01
901.00,95.80
900.00,95.65
899.00,95.60
898.00,95.63
897.00,95.73
896.00,95.88
895.00,96.06
894.00,96.22
893.00,96.35
892.00,96.45
891.00,96.53
890.00,96.60
889.00,96.66
888.00,96.68
887.00,96.69
886.00,96.68
885.00,96.68
884.00,96.68
883.00,96.66
882.00,96.63
881.00,96.59
880.00,96.57
879.00,96.57
878.00,96.58
877.00,96.61
876.00,96.65
875.00,96.69
874.00,96.71
873.00,96.70
872.00,96.68
871.00,96.65
870.00,96.62
869.00,96.61
868.00,96.60
867.00,96.61
866.00,96.62
865.00,96.61
864.00,96.59
863.00,96.57
862.00,96.56
861.00,96.57
860.00,96.59
859.00,96.60
858.00,96.57
857.00,96.52
856.00,96.47
855.00,96.44
854.00,96.41
853.00,96.38
852.00,96.34
851.00,96.30
850.00,96.23
849.00,96.15
848.00,96.05
847.00,95.90
846.00,95.68
845.00,95.31
844.00,94.77
843.00,94.10
842.00,93.46
841.00,93.07
840.00,93.10
839.00,93.52
838.00,94.13
837.00,94.70
836.00,95.12
835.00,95.41
834.00,95.62
833.00,95.78
832.00,95.89
831.00,95.95
830.00,96.00
829.00,96.05
828.00,96.09
827.00,96.12
826.00,96.15
825.00,96.21
824.00,96.27
823.00,96.33
822.00,96.38
821.00,96.40
820.00,96.38
819.00,96.33
818.00,96.25
817.00,96.18
816.00,96.10
815.00,96.02
814.00,95.90
813.00,95.74
812.00,95.55
811.00,95.36
810.00,95.21
809.00,95.13
808.00,95.13
807.00,95.22
806.00,95.36
805.00,95.52
804.00,95.65
803.00,95.74
802.00,95.80
801.00,95.87
800.00,95.95
799.00,96.04
798.00,96.12
797.00,96.18
796.00,96.22
795.00,96.24
794.00,96.25
793.00,96.28
792.00,96.33
791.00,96.39
790.00,96.43
789.00,96.47
788.00,96.49
787.00,96.50
786.00,96.52
785.00,96.54
784.00,96.53
783.00,96.51
782.00,96.48
781.00,96.48
780.00,96.48
779.00,96.50
778.00,96.53
777.00,96.58
776.00,96.63
775.00,96.67
774.00,96.68
773.00,96.67
772.00,96.65
771.00,96.63
770.00,96.61
769.00,96.61
768.00,96.60
767.00,96.59
766.00,96.61
765.00,96.64
764.00,96.69
763.00,96.71
762.00,96.72
761.00,96.72
760.00,96.72
759.00,96.72
758.00,96.71
757.00,96.70
756.00,96.71
755.00,96.73
754.00,96.72
753.00,96.68
752.00,96.63
751.00,96.58
750.00,96.55
749.00,96.52
748.00,96.51
747.00,96.50
746.00,96.51
745.00,96.52
744.00,96.52
743.00,96.52
742.00,96.53
741.00,96.54
740.00,96.55
739.00,96.55
738.00,96.54
737.00,96.54
736.00,96.57
735.00,96.62
734.00,96.66
733.00,96.64
732.00,96.58
731.00,96.48
730.00,96.40
729.00,96.37
728.00,96.37
727.00,96.37
726.00,96.37
725.00,96.33
724.00,96.29
723.00,96.25
722.00,96.22
721.00,96.20
720.00,96.19
719.00,96.21
718.00,96.26
717.00,96.34
716.00,96.40
715.00,96.43
714.00,96.43
713.00,96.40
712.00,96.35
711.00,96.31
710.00,96.28
709.00,96.27
708.00,96.27
707.00,96.27
706.00,96.28
705.00,96.31
704.00,96.37
703.00,96.44
702.00,96.47
701.00,96.43
700.00,96.37
699.00,96.32
698.00,96.33
697.00,96.37
696.00,96.41
695.00,96.41
694.00,96.38
693.00,96.33
692.00,96.28
691.00,96.24
690.00,96.21
689.00,96.21
688.00,96.24
687.00,96.29
686.00,96.35
685.00,96.39
684.00,96.41
683.00,96.40
682.00,96.37
681.00,96.34
680.00,96.33
679.00,96.32
678.00,96.31
677.00,96.30
676.00,96.30
675.00,96.29
674.00,96.26
673.00,96.23
672.00,96.20
671.00,96.17
670.00,96.16
669.00,96.23
668.00,96.34
667.00,96.35
666.00,96.31
665.00,96.28
664.00,96.26
663.00,96.25
662.00,96.29
661.00,96.38
660.00,96.47
659.00,96.50
658.00,96.44
657.00,96.35
656.00,96.30
655.00,96.29
654.00,96.29
653.00,96.29
652.00,96.28
651.00,96.25
650.00,96.18
649.00,96.10
648.00,96.06
647.00,96.06
646.00,96.05
645.00,96.01
644.00,95.96
643.00,95.92
642.00,95.92
641.00,95.94
640.00,95.98
639.00,96.00
638.00,95.98
637.00,95.97
636.00,96.00
635.00,96.03
634.00,96.01
633.00,95.96
632.00,95.93
631.00,95.92
630.00,95.87
629.00,95.77
628.00,95.67
627.00,95.62
626.00,95.60
625.00,95.61
624.00,95.65
623.00,95.68
622.00,95.65
621.00,95.59
620.00,95.60
619.00,95.69
618.00,95.74
617.00,95.62
616.00,95.45
615.00,95.43
614.00,95.61
613.00,95.85
612.00,95.97
611.00,95.88
610.00,95.65
609.00,95.47
608.00,95.45
607.00,95.55
606.00,95.69
605.00,95.78
604.00,95.67
603.00,95.23
602.00,94.55
601.00,94.01
600.00,94.03
599.00,94.65
598.00,95.46
597.00,95.99
596.00,96.11
595.00,95.91
594.00,95.53
593.00,95.11
592.00,94.86
591.00,94.91
590.00,95.11
589.00,95.16
588.00,94.98
587.00,94.79
586.00,94.88
585.00,95.29
584.00,95.82
583.00,96.13
582.00,96.00
581.00,95.52
580.00,95.07
579.00,94.85
578.00,94.68
577.00,94.31
576.00,93.83
575.00,93.60
574.00,93.81
573.00,94.33
572.00,94.95
571.00,95.46
570.00,95.66
569.00,95.47
568.00,95.01
567.00,94.51
566.00,94.00
565.00,93.49
564.00,93.13
563.00,93.22
562.00,93.76
561.00,94.48
560.00,95.08
559.00,95.48
558.00,95.71
557.00,95.79
556.00,95.76
555.00,95.66
554.00,95.43
553.00,95.02
552.00,94.51
551.00,94.13
550.00,93.99
