Created as New Dataset,121 Hercules Inc.
cm-1,%T
4000.00,100.72
3999.00,100.70
3998.00,100.66
3997.00,100.64
3996.00,100.63
3995.00,100.65
3994.00,100.67
3993.00,100.69
3992.00,100.69
3991.00,100.68
3990.00,100.66
3989.00,100.64
3988.00,100.63
3987.00,100.63
3986.00,100.64
3985.00,100.66
3984.00,100.69
3983.00,100.70
3982.00,100.69
3981.00,100.68
3980.00,100.66
3979.00,100.65
3978.00,100.64
3977.00,100.64
3976.00,100.65
3975.00,100.65
3974.00,100.65
3973.00,100.65
3972.00,100.65
3971.00,100.64
3970.00,100.64
3969.00,100.63
3968.00,100.63
3967.00,100.62
3966.00,100.63
3965.00,100.65
3964.00,100.66
3963.00,100.68
3962.00,100.69
3961.00,100.70
3960.00,100.72
3959.00,100.73
3958.00,100.74
3957.00,100.73
3956.00,100.72
3955.00,100.72
3954.00,100.72
3953.00,100.72
3952.00,100.71
3951.00,100.69
3950.00,100.68
3949.00,100.68
3948.00,100.69
3947.00,100.69
3946.00,100.68
3945.00,100.67
3944.00,100.66
3943.00,100.67
3942.00,100.69
3941.00,100.70
3940.00,100.71
3939.00,100.71
3938.00,100.70
3937.00,100.69
3936.00,100.67
3935.00,100.66
3934.00,100.66
3933.00,100.66
3932.00,100.66
3931.00,100.66
3930.00,100.66
3929.00,100.66
3928.00,100.66
3927.00,100.67
3926.00,100.66
3925.00,100.66
3924.00,100.64
3923.00,100.63
3922.00,100.63
3921.00,100.64
3920.00,100.66
3919.00,100.66
3918.00,100.65
3917.00,100.62
3916.00,100.61
3915.00,100.60
3914.00,100.61
3913.00,100.63
3912.00,100.64
3911.00,100.66
3910.00,100.67
3909.00,100.68
3908.00,100.68
3907.00,100.67
3906.00,100.65
3905.00,100.64
3904.00,100.64
3903.00,100.64
3902.00,100.63
3901.00,100.62
3900.00,100.61
3899.00,100.61
3898.00,100.61
3897.00,100.61
3896.00,100.60
3895.00,100.60
3894.00,100.60
3893.00,100.61
3892.00,100.63
3891.00,100.65
3890.00,100.65
3889.00,100.64
3888.00,100.63
3887.00,100.64
3886.00,100.66
3885.00,100.65
3884.00,100.62
3883.00,100.60
3882.00,100.60
3881.00,100.62
3880.00,100.63
3879.00,100.63
3878.00,100.60
3877.00,100.57
3876.00,100.55
3875.00,100.54
3874.00,100.55
3873.00,100.56
3872.00,100.58
3871.00,100.63
3870.00,100.66
3869.00,100.66
3868.00,100.61
3867.00,100.56
3866.00,100.54
3865.00,100.54
3864.00,100.55
3863.00,100.54
3862.00,100.53
3861.00,100.53
3860.00,100.54
3859.00,100.56
3858.00,100.58
3857.00,100.58
3856.00,100.57
3855.00,100.58
3854.00,100.60
3853.00,100.61
3852.00,100.59
3851.00,100.57
3850.00,100.56
3849.00,100.56
3848.00,100.56
3847.00,100.55
3846.00,100.52
3845.00,100.49
3844.00,100.49
3843.00,100.51
3842.00,100.54
3841.00,100.56
3840.00,100.56
3839.00,100.54
3838.00,100.52
3837.00,100.51
3836.00,100.51
3835.00,100.53
3834.00,100.54
3833.00,100.55
3832.00,100.56
3831.00,100.56
3830.00,100.56
3829.00,100.55
3828.00,100.55
3827.00,100.54
3826.00,100.53
3825.00,100.49
3824.00,100.45
3823.00,100.44
3822.00,100.47
3821.00,100.50
3820.00,100.50
3819.00,100.46
3818.00,100.42
3817.00,100.41
3816.00,100.43
3815.00,100.44
3814.00,100.43
3813.00,100.42
3812.00,100.43
3811.00,100.45
3810.00,100.47
3809.00,100.48
3808.00,100.50
3807.00,100.52
3806.00,100.51
3805.00,100.47
3804.00,100.43
3803.00,100.42
3802.00,100.44
3801.00,100.46
3800.00,100.45
3799.00,100.42
3798.00,100.41
3797.00,100.41
3796.00,100.42
3795.00,100.41
3794.00,100.40
3793.00,100.40
3792.00,100.40
3791.00,100.42
3790.00,100.43
3789.00,100.44
3788.00,100.45
3787.00,100.46
3786.00,100.45
3785.00,100.44
3784.00,100.41
3783.00,100.38
3782.00,100.35
3781.00,100.35
3780.00,100.37
3779.00,100.39
3778.00,100.39
3777.00,100.39
3776.00,100.40
3775.00,100.41
3774.00,100.41
3773.00,100.40
3772.00,100.39
3771.00,100.37
3770.00,100.36
3769.00,100.34
3768.00,100.31
3767.00,100.29
3766.00,100.29
3765.00,100.31
3764.00,100.33
3763.00,100.33
3762.00,100.33
3761.00,100.32
3760.00,100.31
3759.00,100.31
3758.00,100.32
3757.00,100.33
3756.00,100.34
3755.00,100.33
3754.00,100.32
3753.00,100.33
3752.00,100.35
3751.00,100.35
3750.00,100.35
3749.00,100.35
3748.00,100.34
3747.00,100.31
3746.00,100.29
3745.00,100.29
3744.00,100.30
3743.00,100.29
3742.00,100.28
3741.00,100.29
3740.00,100.30
3739.00,100.30
3738.00,100.30
3737.00,100.30
3736.00,100.29
3735.00,100.28
3734.00,100.27
3733.00,100.25
3732.00,100.24
3731.00,100.23
3730.00,100.22
3729.00,100.22
3728.00,100.24
3727.00,100.26
3726.00,100.27
3725.00,100.25
3724.00,100.23
3723.00,100.24
3722.00,100.26
3721.00,100.27
3720.00,100.25
3719.00,100.23
3718.00,100.20
3717.00,100.17
3716.00,100.15
3715.00,100.15
3714.00,100.16
3713.00,100.18
3712.00,100.19
3711.00,100.19
3710.00,100.18
3709.00,100.18
3708.00,100.20
3707.00,100.23
3706.00,100.23
3705.00,100.21
3704.00,100.18
3703.00,100.14
3702.00,100.12
3701.00,100.11
3700.00,100.11
3699.00,100.12
3698.00,100.12
3697.00,100.13
3696.00,100.14
3695.00,100.15
3694.00,100.16
3693.00,100.17
3692.00,100.17
3691.00,100.15
3690.00,100.13
3689.00,100.12
3688.00,100.14
3687.00,100.15
3686.00,100.16
3685.00,100.17
3684.00,100.18
3683.00,100.19
3682.00,100.19
3681.00,100.19
3680.00,100.19
3679.00,100.19
3678.00,100.18
3677.00,100.17
3676.00,100.18
3675.00,100.19
3674.00,100.18
3673.00,100.18
3672.00,100.19
3671.00,100.20
3670.00,100.20
3669.00,100.17
3668.00,100.15
3667.00,100.15
3666.00,100.16
3665.00,100.17
3664.00,100.18
3663.00,100.18
3662.00,100.19
3661.00,100.21
3660.00,100.22
3659.00,100.22
3658.00,100.20
3657.00,100.17
3656.00,100.14
3655.00,100.10
3654.00,100.07
3653.00,100.07
3652.00,100.11
3651.00,100.17
3650.00,100.20
3649.00,100.18
3648.00,100.14
3647.00,100.13
3646.00,100.14
3645.00,100.15
3644.00,100.15
3643.00,100.15
3642.00,100.15
3641.00,100.14
3640.00,100.13
3639.00,100.11
3638.00,100.10
3637.00,100.09
3636.00,100.10
3635.00,100.12
3634.00,100.14
3633.00,100.15
3632.00,100.16
3631.00,100.18
3630.00,100.23
3629.00,100.24
3628.00,100.21
3627.00,100.15
3626.00,100.10
3625.00,100.09
3624.00,100.11
3623.00,100.14
3622.00,100.17
3621.00,100.18
3620.00,100.17
3619.00,100.16
3618.00,100.14
3617.00,100.13
3616.00,100.13
3615.00,100.14
3614.00,100.16
3613.00,100.16
3612.00,100.15
3611.00,100.14
3610.00,100.12
3609.00,100.12
3608.00,100.13
3607.00,100.14
3606.00,100.15
3605.00,100.15
3604.00,100.14
3603.00,100.14
3602.00,100.13
3601.00,100.14
3600.00,100.15
3599.00,100.16
3598.00,100.19
3597.00,100.22
3596.00,100.24
3595.00,100.26
3594.00,100.26
3593.00,100.25
3592.00,100.22
3591.00,100.19
3590.00,100.17
3589.00,100.16
3588.00,100.17
3587.00,100.16
3586.00,100.15
3585.00,100.15
3584.00,100.15
3583.00,100.15
3582.00,100.15
3581.00,100.14
3580.00,100.12
3579.00,100.11
3578.00,100.11
3577.00,100.10
3576.00,100.10
3575.00,100.11
3574.00,100.14
3573.00,100.19
3572.00,100.24
3571.00,100.26
3570.00,100.26
3569.00,100.23
3568.00,100.20
3567.00,100.17
3566.00,100.15
3565.00,100.13
3564.00,100.12
3563.00,100.10
3562.00,100.09
3561.00,100.07
3560.00,100.06
3559.00,100.05
3558.00,100.04
3557.00,100.04
3556.00,100.05
3555.00,100.07
3554.00,100.10
3553.00,100.13
3552.00,100.14
3551.00,100.15
3550.00,100.16
3549.00,100.17
3548.00,100.18
3547.00,100.18
3546.00,100.17
3545.00,100.15
3544.00,100.14
3543.00,100.13
3542.00,100.13
3541.00,100.13
3540.00,100.12
3539.00,100.11
3538.00,100.10
3537.00,100.10
3536.00,100.11
3535.00,100.11
3534.00,100.11
3533.00,100.10
3532.00,100.09
3531.00,100.09
3530.00,100.09
3529.00,100.10
3528.00,100.10
3527.00,100.10
3526.00,100.09
3525.00,100.08
3524.00,100.08
3523.00,100.08
3522.00,100.09
3521.00,100.08
3520.00,100.07
3519.00,100.06
3518.00,100.06
3517.00,100.05
3516.00,100.04
3515.00,100.02
3514.00,99.99
3513.00,99.97
3512.00,99.97
3511.00,100.00
3510.00,100.03
3509.00,100.05
3508.00,100.06
3507.00,100.06
3506.00,100.07
3505.00,100.09
3504.00,100.08
3503.00,100.04
3502.00,100.00
3501.00,99.97
3500.00,99.98
3499.00,100.00
3498.00,100.04
3497.00,100.05
3496.00,100.03
3495.00,100.01
3494.00,100.00
3493.00,99.98
3492.00,99.97
3491.00,99.97
3490.00,99.98
3489.00,100.00
3488.00,100.02
3487.00,100.03
3486.00,100.01
3485.00,100.00
3484.00,99.98
3483.00,99.99
3482.00,100.01
3481.00,100.04
3480.00,100.05
3479.00,100.05
3478.00,100.04
3477.00,100.05
3476.00,100.06
3475.00,100.08
3474.00,100.08
3473.00,100.07
3472.00,100.06
3471.00,100.04
3470.00,100.03
3469.00,100.03
3468.00,100.03
3467.00,100.02
3466.00,99.99
3465.00,99.97
3464.00,99.95
3463.00,99.96
3462.00,99.99
3461.00,100.01
3460.00,100.01
3459.00,100.01
3458.00,99.99
3457.00,99.98
3456.00,99.98
3455.00,99.99
3454.00,99.98
3453.00,99.96
3452.00,99.94
3451.00,99.93
3450.00,99.93
3449.00,99.94
3448.00,99.95
3447.00,99.93
3446.00,99.91
3445.00,99.89
3444.00,99.88
3443.00,99.88
3442.00,99.89
3441.00,99.93
3440.00,99.97
3439.00,100.00
3438.00,100.01
3437.00,99.99
3436.00,99.96
3435.00,99.93
3434.00,99.92
3433.00,99.92
3432.00,99.93
3431.00,99.93
3430.00,99.93
3429.00,99.92
3428.00,99.92
3427.00,99.93
3426.00,99.95
3425.00,99.97
3424.00,99.99
3423.00,100.01
3422.00,100.03
3421.00,100.03
3420.00,100.01
3419.00,100.00
3418.00,99.98
3417.00,99.97
3416.00,99.96
3415.00,99.94
3414.00,99.93
3413.00,99.94
3412.00,99.96
3411.00,99.98
3410.00,99.99
3409.00,99.98
3408.00,99.97
3407.00,99.96
3406.00,99.96
3405.00,99.96
3404.00,99.95
3403.00,99.94
3402.00,99.92
3401.00,99.92
3400.00,99.93
3399.00,99.93
3398.00,99.92
3397.00,99.91
3396.00,99.90
3395.00,99.89
3394.00,99.89
3393.00,99.89
3392.00,99.89
3391.00,99.88
3390.00,99.88
3389.00,99.89
3388.00,99.90
3387.00,99.91
3386.00,99.92
3385.00,99.93
3384.00,99.95
3383.00,99.95
3382.00,99.95
3381.00,99.93
3380.00,99.91
3379.00,99.89
3378.00,99.87
3377.00,99.87
3376.00,99.89
3375.00,99.92
3374.00,99.94
3373.00,99.95
3372.00,99.93
3371.00,99.91
3370.00,99.89
3369.00,99.88
3368.00,99.89
3367.00,99.89
3366.00,99.89
3365.00,99.89
3364.00,99.90
3363.00,99.89
3362.00,99.87
3361.00,99.86
3360.00,99.85
3359.00,99.86
3358.00,99.88
3357.00,99.89
3356.00,99.91
3355.00,99.92
3354.00,99.92
3353.00,99.90
3352.00,99.87
3351.00,99.85
3350.00,99.84
3349.00,99.85
3348.00,99.86
3347.00,99.87
3346.00,99.88
3345.00,99.89
3344.00,99.89
3343.00,99.90
3342.00,99.90
3341.00,99.91
3340.00,99.92
3339.00,99.92
3338.00,99.91
3337.00,99.90
3336.00,99.88
3335.00,99.87
3334.00,99.85
3333.00,99.85
3332.00,99.85
3331.00,99.85
3330.00,99.85
3329.00,99.85
3328.00,99.84
3327.00,99.84
3326.00,99.83
3325.00,99.84
3324.00,99.84
3323.00,99.84
3322.00,99.84
3321.00,99.83
3320.00,99.83
3319.00,99.85
3318.00,99.88
3317.00,99.92
3316.00,99.95
3315.00,99.96
3314.00,99.96
3313.00,99.96
3312.00,99.95
3311.00,99.93
3310.00,99.90
3309.00,99.86
3308.00,99.84
3307.00,99.83
3306.00,99.84
3305.00,99.85
3304.00,99.87
3303.00,99.88
3302.00,99.88
3301.00,99.86
3300.00,99.84
3299.00,99.83
3298.00,99.82
3297.00,99.82
3296.00,99.82
3295.00,99.83
3294.00,99.83
3293.00,99.85
3292.00,99.87
3291.00,99.89
3290.00,99.90
3289.00,99.89
3288.00,99.87
3287.00,99.85
3286.00,99.83
3285.00,99.83
3284.00,99.83
3283.00,99.84
3282.00,99.84
3281.00,99.84
3280.00,99.84
3279.00,99.83
3278.00,99.83
3277.00,99.83
3276.00,99.83
3275.00,99.83
3274.00,99.83
3273.00,99.82
3272.00,99.81
3271.00,99.80
3270.00,99.81
3269.00,99.81
3268.00,99.79
3267.00,99.77
3266.00,99.75
3265.00,99.74
3264.00,99.74
3263.00,99.74
3262.00,99.75
3261.00,99.76
3260.00,99.78
3259.00,99.78
3258.00,99.79
3257.00,99.79
3256.00,99.80
3255.00,99.81
3254.00,99.83
3253.00,99.83
3252.00,99.83
3251.00,99.81
3250.00,99.81
3249.00,99.81
3248.00,99.81
3247.00,99.81
3246.00,99.79
3245.00,99.78
3244.00,99.78
3243.00,99.79
3242.00,99.81
3241.00,99.82
3240.00,99.81
3239.00,99.80
3238.00,99.78
3237.00,99.77
3236.00,99.76
3235.00,99.76
3234.00,99.77
3233.00,99.79
3232.00,99.80
3231.00,99.81
3230.00,99.81
3229.00,99.80
3228.00,99.78
3227.00,99.77
3226.00,99.76
3225.00,99.76
3224.00,99.77
3223.00,99.78
3222.00,99.78
3221.00,99.77
3220.00,99.75
3219.00,99.73
3218.00,99.72
3217.00,99.71
3216.00,99.71
3215.00,99.70
3214.00,99.69
3213.00,99.66
3212.00,99.65
3211.00,99.65
3210.00,99.66
3209.00,99.68
3208.00,99.69
3207.00,99.70
3206.00,99.70
3205.00,99.70
3204.00,99.71
3203.00,99.71
3202.00,99.71
3201.00,99.70
3200.00,99.68
3199.00,99.67
3198.00,99.67
3197.00,99.68
3196.00,99.69
3195.00,99.70
3194.00,99.70
3193.00,99.68
3192.00,99.67
3191.00,99.66
3190.00,99.66
3189.00,99.68
3188.00,99.71
3187.00,99.72
3186.00,99.72
3185.00,99.71
3184.00,99.69
3183.00,99.67
3182.00,99.66
3181.00,99.66
3180.00,99.67
3179.00,99.69
3178.00,99.70
3177.00,99.70
3176.00,99.69
3175.00,99.69
3174.00,99.70
3173.00,99.72
3172.00,99.73
3171.00,99.73
3170.00,99.71
3169.00,99.68
3168.00,99.66
3167.00,99.65
3166.00,99.65
3165.00,99.65
3164.00,99.65
3163.00,99.65
3162.00,99.65
3161.00,99.66
3160.00,99.68
3159.00,99.70
3158.00,99.71
3157.00,99.72
3156.00,99.72
3155.00,99.74
3154.00,99.76
3153.00,99.77
3152.00,99.77
3151.00,99.75
3150.00,99.73
3149.00,99.70
3148.00,99.69
3147.00,99.68
3146.00,99.68
3145.00,99.69
3144.00,99.69
3143.00,99.69
3142.00,99.69
3141.00,99.69
3140.00,99.69
3139.00,99.69
3138.00,99.70
3137.00,99.71
3136.00,99.71
3135.00,99.72
3134.00,99.74
3133.00,99.75
3132.00,99.76
3131.00,99.75
3130.00,99.73
3129.00,99.71
3128.00,99.69
3127.00,99.69
3126.00,99.69
3125.00,99.70
3124.00,99.71
3123.00,99.74
3122.00,99.75
3121.00,99.76
3120.00,99.75
3119.00,99.75
3118.00,99.75
3117.00,99.76
3116.00,99.76
3115.00,99.76
3114.00,99.76
3113.00,99.76
3112.00,99.76
3111.00,99.75
3110.00,99.74
3109.00,99.74
3108.00,99.74
3107.00,99.74
3106.00,99.74
3105.00,99.75
3104.00,99.76
3103.00,99.77
3102.00,99.78
3101.00,99.78
3100.00,99.78
3099.00,99.78
3098.00,99.79
3097.00,99.80
3096.00,99.80
3095.00,99.80
3094.00,99.78
3093.00,99.76
3092.00,99.75
3091.00,99.75
3090.00,99.75
3089.00,99.76
3088.00,99.76
3087.00,99.76
3086.00,99.76
3085.00,99.77
3084.00,99.76
3083.00,99.74
3082.00,99.73
3081.00,99.72
3080.00,99.72
3079.00,99.73
3078.00,99.74
3077.00,99.76
3076.00,99.76
3075.00,99.75
3074.00,99.72
3073.00,99.69
3072.00,99.67
3071.00,99.66
3070.00,99.67
3069.00,99.68
3068.00,99.71
3067.00,99.73
3066.00,99.75
3065.00,99.76
3064.00,99.76
3063.00,99.76
3062.00,99.75
3061.00,99.74
3060.00,99.74
3059.00,99.74
3058.00,99.74
3057.00,99.73
3056.00,99.72
3055.00,99.72
3054.00,99.71
3053.00,99.71
3052.00,99.71
3051.00,99.70
3050.00,99.70
3049.00,99.69
3048.00,99.69
3047.00,99.68
3046.00,99.68
3045.00,99.69
3044.00,99.72
3043.00,99.74
3042.00,99.74
3041.00,99.74
3040.00,99.73
3039.00,99.73
3038.00,99.73
3037.00,99.74
3036.00,99.73
3035.00,99.73
3034.00,99.72
3033.00,99.70
3032.00,99.68
3031.00,99.68
3030.00,99.68
3029.00,99.68
3028.00,99.67
3027.00,99.65
3026.00,99.62
3025.00,99.60
3024.00,99.59
3023.00,99.58
3022.00,99.57
3021.00,99.56
3020.00,99.53
3019.00,99.51
3018.00,99.50
3017.00,99.49
3016.00,99.47
3015.00,99.45
3014.00,99.43
3013.00,99.40
3012.00,99.37
3011.00,99.34
3010.00,99.32
3009.00,99.30
3008.00,99.29
3007.00,99.28
3006.00,99.27
3005.00,99.26
3004.00,99.24
3003.00,99.20
3002.00,99.15
3001.00,99.09
3000.00,99.03
2999.00,98.97
2998.00,98.91
2997.00,98.86
2996.00,98.80
2995.00,98.74
2994.00,98.67
2993.00,98.59
2992.00,98.49
2991.00,98.39
2990.00,98.30
2989.00,98.21
2988.00,98.10
2987.00,97.97
2986.00,97.82
2985.00,97.64
2984.00,97.43
2983.00,97.21
2982.00,96.96
2981.00,96.69
2980.00,96.39
2979.00,96.06
2978.00,95.69
2977.00,95.28
2976.00,94.81
2975.00,94.28
2974.00,93.69
2973.00,93.04
2972.00,92.32
2971.00,91.52
2970.00,90.65
2969.00,89.69
2968.00,88.66
2967.00,87.57
2966.00,86.43
2965.00,85.29
2964.00,84.18
2963.00,83.15
2962.00,82.25
2961.00,81.50
2960.00,80.93
2959.00,80.51
2958.00,80.20
2957.00,79.96
2956.00,79.73
2955.00,79.49
2954.00,79.23
2953.00,79.00
2952.00,78.86
2951.00,78.90
2950.00,79.17
2949.00,79.72
2948.00,80.55
2947.00,81.62
2946.00,82.84
2945.00,84.12
2944.00,85.34
2943.00,86.42
2942.00,87.29
2941.00,87.92
2940.00,88.31
2939.00,88.47
2938.00,88.43
2937.00,88.21
2936.00,87.83
2935.00,87.30
2934.00,86.65
2933.00,85.90
2932.00,85.07
2931.00,84.21
2930.00,83.32
2929.00,82.42
2928.00,81.56
2927.00,80.76
2926.00,80.02
2925.00,79.34
2924.00,78.68
2923.00,78.02
2922.00,77.38
2921.00,76.78
2920.00,76.27
2919.00,75.91
2918.00,75.73
2917.00,75.75
2916.00,75.95
2915.00,76.29
2914.00,76.73
2913.00,77.22
2912.00,77.72
2911.00,78.20
2910.00,78.65
2909.00,79.09
2908.00,79.53
2907.00,80.00
2906.00,80.51
2905.00,81.07
2904.00,81.65
2903.00,82.26
2902.00,82.87
2901.00,83.49
2900.00,84.10
2899.00,84.70
2898.00,85.26
2897.00,85.77
2896.00,86.23
2895.00,86.62
2894.00,86.94
2893.00,87.21
2892.00,87.43
2891.00,87.60
2890.00,87.72
2889.00,87.81
2888.00,87.84
2887.00,87.84
2886.00,87.78
2885.00,87.68
2884.00,87.53
2883.00,87.35
2882.00,87.14
2881.00,86.92
2880.00,86.71
2879.00,86.52
2878.00,86.38
2877.00,86.30
2876.00,86.29
2875.00,86.31
2874.00,86.34
2873.00,86.34
2872.00,86.29
2871.00,86.21
2870.00,86.10
2869.00,86.01
2868.00,86.01
2867.00,86.16
2866.00,86.54
2865.00,87.16
2864.00,87.98
2863.00,88.94
2862.00,89.94
2861.00,90.87
2860.00,91.69
2859.00,92.36
2858.00,92.88
2857.00,93.25
2856.00,93.49
2855.00,93.62
2854.00,93.65
2853.00,93.59
2852.00,93.44
2851.00,93.20
2850.00,92.88
2849.00,92.48
2848.00,91.99
2847.00,91.40
2846.00,90.72
2845.00,89.99
2844.00,89.21
2843.00,88.42
2842.00,87.65
2841.00,86.96
2840.00,86.43
2839.00,86.12
2838.00,86.08
2837.00,86.34
2836.00,86.90
2835.00,87.72
2834.00,88.72
2833.00,89.82
2832.00,90.93
2831.00,91.96
2830.00,92.86
2829.00,93.61
2828.00,94.22
2827.00,94.72
2826.00,95.13
2825.00,95.48
2824.00,95.77
2823.00,96.02
2822.00,96.23
2821.00,96.41
2820.00,96.57
2819.00,96.72
2818.00,96.86
2817.00,96.96
2816.00,97.05
2815.00,97.12
2814.00,97.19
2813.00,97.26
2812.00,97.33
2811.00,97.41
2810.00,97.48
2809.00,97.56
2808.00,97.62
2807.00,97.68
2806.00,97.73
2805.00,97.78
2804.00,97.84
2803.00,97.90
2802.00,97.96
2801.00,98.03
2800.00,98.09
2799.00,98.15
2798.00,98.19
2797.00,98.22
2796.00,98.24
2795.00,98.27
2794.00,98.30
2793.00,98.34
2792.00,98.39
2791.00,98.42
2790.00,98.46
2789.00,98.50
2788.00,98.54
2787.00,98.58
2786.00,98.62
2785.00,98.66
2784.00,98.70
2783.00,98.73
2782.00,98.76
2781.00,98.79
2780.00,98.82
2779.00,98.86
2778.00,98.89
2777.00,98.92
2776.00,98.94
2775.00,98.95
2774.00,98.96
2773.00,98.97
2772.00,98.97
2771.00,98.97
2770.00,98.98
2769.00,98.99
2768.00,98.99
2767.00,99.00
2766.00,99.01
2765.00,99.03
2764.00,99.06
2763.00,99.07
2762.00,99.09
2761.00,99.10
2760.00,99.10
2759.00,99.10
2758.00,99.10
2757.00,99.10
2756.00,99.11
2755.00,99.12
2754.00,99.12
2753.00,99.10
2752.00,99.09
2751.00,99.07
2750.00,99.06
2749.00,99.06
2748.00,99.07
2747.00,99.07
2746.00,99.08
2745.00,99.08
2744.00,99.08
2743.00,99.06
2742.00,99.04
2741.00,99.02
2740.00,98.99
2739.00,98.97
2738.00,98.94
2737.00,98.91
2736.00,98.90
2735.00,98.88
2734.00,98.87
2733.00,98.85
2732.00,98.82
2731.00,98.79
2730.00,98.77
2729.00,98.74
2728.00,98.71
2727.00,98.66
2726.00,98.61
2725.00,98.56
2724.00,98.53
2723.00,98.52
2722.00,98.54
2721.00,98.58
2720.00,98.63
2719.00,98.68
2718.00,98.73
2717.00,98.76
2716.00,98.79
2715.00,98.83
2714.00,98.87
2713.00,98.92
2712.00,98.96
2711.00,98.98
2710.00,99.00
2709.00,99.02
2708.00,99.04
2707.00,99.06
2706.00,99.08
2705.00,99.09
2704.00,99.09
2703.00,99.10
2702.00,99.11
2701.00,99.12
2700.00,99.13
2699.00,99.14
2698.00,99.14
2697.00,99.15
2696.00,99.16
2695.00,99.17
2694.00,99.18
2693.00,99.17
2692.00,99.16
2691.00,99.15
2690.00,99.13
2689.00,99.13
2688.00,99.14
2687.00,99.15
2686.00,99.16
2685.00,99.17
2684.00,99.16
2683.00,99.16
2682.00,99.15
2681.00,99.15
2680.00,99.14
2679.00,99.14
2678.00,99.14
2677.00,99.14
2676.00,99.14
2675.00,99.14
2674.00,99.13
2673.00,99.13
2672.00,99.13
2671.00,99.13
2670.00,99.14
2669.00,99.15
2668.00,99.17
2667.00,99.17
2666.00,99.17
2665.00,99.16
2664.00,99.14
2663.00,99.13
2662.00,99.12
2661.00,99.11
2660.00,99.11
2659.00,99.11
2658.00,99.10
2657.00,99.09
2656.00,99.08
2655.00,99.07
2654.00,99.06
2653.00,99.05
2652.00,99.03
2651.00,99.02
2650.00,99.02
2649.00,99.01
2648.00,99.00
2647.00,99.01
2646.00,99.01
2645.00,99.02
2644.00,99.02
2643.00,99.02
2642.00,99.01
2641.00,99.00
2640.00,98.97
2639.00,98.95
2638.00,98.93
2637.00,98.94
2636.00,98.95
2635.00,98.95
2634.00,98.93
2633.00,98.90
2632.00,98.87
2631.00,98.86
2630.00,98.87
2629.00,98.89
2628.00,98.90
2627.00,98.91
2626.00,98.90
2625.00,98.87
2624.00,98.84
2623.00,98.82
2622.00,98.81
2621.00,98.82
2620.00,98.84
2619.00,98.85
2618.00,98.84
2617.00,98.82
2616.00,98.80
2615.00,98.78
2614.00,98.76
2613.00,98.74
2612.00,98.73
2611.00,98.74
2610.00,98.75
2609.00,98.77
2608.00,98.78
2607.00,98.78
2606.00,98.77
2605.00,98.75
2604.00,98.75
2603.00,98.76
2602.00,98.78
2601.00,98.78
2600.00,98.78
2599.00,98.77
2598.00,98.76
2597.00,98.75
2596.00,98.74
2595.00,98.71
2594.00,98.69
2593.00,98.67
2592.00,98.66
2591.00,98.65
2590.00,98.64
2589.00,98.63
2588.00,98.61
2587.00,98.59
2586.00,98.58
2585.00,98.58
2584.00,98.56
2583.00,98.55
2582.00,98.53
2581.00,98.51
2580.00,98.50
2579.00,98.50
2578.00,98.51
2577.00,98.54
2576.00,98.55
2575.00,98.57
2574.00,98.57
2573.00,98.57
2572.00,98.57
2571.00,98.59
2570.00,98.61
2569.00,98.64
2568.00,98.65
2567.00,98.65
2566.00,98.64
2565.00,98.64
2564.00,98.64
2563.00,98.64
2562.00,98.64
2561.00,98.64
2560.00,98.64
2559.00,98.64
2558.00,98.63
2557.00,98.62
2556.00,98.63
2555.00,98.65
2554.00,98.67
2553.00,98.68
2552.00,98.68
2551.00,98.68
2550.00,98.69
2549.00,98.70
2548.00,98.70
2547.00,98.70
2546.00,98.70
2545.00,98.69
2544.00,98.68
2543.00,98.68
2542.00,98.67
2541.00,98.66
2540.00,98.66
2539.00,98.65
2538.00,98.64
2537.00,98.64
2536.00,98.65
2535.00,98.67
2534.00,98.68
2533.00,98.69
2532.00,98.69
2531.00,98.70
2530.00,98.70
2529.00,98.71
2528.00,98.72
2527.00,98.73
2526.00,98.75
2525.00,98.76
2524.00,98.77
2523.00,98.77
2522.00,98.76
2521.00,98.73
2520.00,98.71
2519.00,98.69
2518.00,98.69
2517.00,98.69
2516.00,98.70
2515.00,98.70
2514.00,98.69
2513.00,98.67
2512.00,98.66
2511.00,98.67
2510.00,98.68
2509.00,98.69
2508.00,98.69
2507.00,98.67
2506.00,98.67
2505.00,98.67
2504.00,98.69
2503.00,98.70
2502.00,98.71
2501.00,98.73
2500.00,98.74
2499.00,98.76
2498.00,98.79
2497.00,98.80
2496.00,98.80
2495.00,98.79
2494.00,98.78
2493.00,98.76
2492.00,98.74
2491.00,98.72
2490.00,98.71
2489.00,98.72
2488.00,98.74
2487.00,98.75
2486.00,98.75
2485.00,98.75
2484.00,98.75
2483.00,98.75
2482.00,98.75
2481.00,98.75
2480.00,98.75
2479.00,98.75
2478.00,98.74
2477.00,98.73
2476.00,98.73
2475.00,98.74
2474.00,98.76
2473.00,98.76
2472.00,98.75
2471.00,98.72
2470.00,98.70
2469.00,98.70
2468.00,98.71
2467.00,98.73
2466.00,98.75
2465.00,98.76
2464.00,98.77
2463.00,98.77
2462.00,98.78
2461.00,98.77
2460.00,98.76
2459.00,98.76
2458.00,98.75
2457.00,98.73
2456.00,98.71
2455.00,98.68
2454.00,98.66
2453.00,98.67
2452.00,98.69
2451.00,98.71
2450.00,98.72
2449.00,98.72
2448.00,98.71
2447.00,98.69
2446.00,98.68
2445.00,98.68
2444.00,98.68
2443.00,98.67
2442.00,98.67
2441.00,98.68
2440.00,98.70
2439.00,98.72
2438.00,98.72
2437.00,98.72
2436.00,98.71
2435.00,98.71
2434.00,98.71
2433.00,98.72
2432.00,98.72
2431.00,98.73
2430.00,98.74
2429.00,98.74
2428.00,98.73
2427.00,98.72
2426.00,98.70
2425.00,98.71
2424.00,98.72
2423.00,98.73
2422.00,98.73
2421.00,98.73
2420.00,98.73
2419.00,98.73
2418.00,98.73
2417.00,98.74
2416.00,98.75
2415.00,98.77
2414.00,98.78
2413.00,98.78
2412.00,98.78
2411.00,98.78
2410.00,98.79
2409.00,98.80
2408.00,98.82
2407.00,98.83
2406.00,98.84
2405.00,98.85
2404.00,98.86
2403.00,98.88
2402.00,98.90
2401.00,98.94
2400.00,98.96
2399.00,98.97
2398.00,98.95
2397.00,98.92
2396.00,98.90
2395.00,98.91
2394.00,98.92
2393.00,98.95
2392.00,98.97
2391.00,98.98
2390.00,98.99
2389.00,98.99
2388.00,98.98
2387.00,98.97
2386.00,98.97
2385.00,98.98
2384.00,98.98
2383.00,98.99
2382.00,98.99
2381.00,99.00
2380.00,99.02
2379.00,99.03
2378.00,99.05
2377.00,99.08
2376.00,99.14
2375.00,99.20
2374.00,99.23
2373.00,99.21
2372.00,99.15
2371.00,99.08
2370.00,99.03
2369.00,99.02
2368.00,99.06
2367.00,99.13
2366.00,99.18
2365.00,99.17
2364.00,99.11
2363.00,99.02
2362.00,98.94
2361.00,98.91
2360.00,98.94
2359.00,98.99
2358.00,99.05
2357.00,99.10
2356.00,99.13
2355.00,99.16
2354.00,99.16
2353.00,99.13
2352.00,99.11
2351.00,99.12
2350.00,99.17
2349.00,99.24
2348.00,99.31
2347.00,99.34
2346.00,99.32
2345.00,99.24
2344.00,99.14
2343.00,99.06
2342.00,99.03
2341.00,99.05
2340.00,99.08
2339.00,99.11
2338.00,99.14
2337.00,99.17
2336.00,99.18
2335.00,99.15
2334.00,99.09
2333.00,99.03
2332.00,99.01
2331.00,99.01
2330.00,99.01
2329.00,98.97
2328.00,98.91
2327.00,98.85
2326.00,98.81
2325.00,98.79
2324.00,98.78
2323.00,98.79
2322.00,98.80
2321.00,98.81
2320.00,98.82
2319.00,98.84
2318.00,98.85
2317.00,98.85
2316.00,98.84
2315.00,98.81
2314.00,98.78
2313.00,98.74
2312.00,98.72
2311.00,98.70
2310.00,98.68
2309.00,98.66
2308.00,98.64
2307.00,98.63
2306.00,98.62
2305.00,98.62
2304.00,98.60
2303.00,98.59
2302.00,98.59
2301.00,98.60
2300.00,98.60
2299.00,98.58
2298.00,98.53
2297.00,98.49
2296.00,98.45
2295.00,98.41
2294.00,98.38
2293.00,98.36
2292.00,98.34
2291.00,98.33
2290.00,98.31
2289.00,98.28
2288.00,98.25
2287.00,98.23
2286.00,98.23
2285.00,98.24
2284.00,98.25
2283.00,98.24
2282.00,98.22
2281.00,98.19
2280.00,98.15
2279.00,98.12
2278.00,98.10
2277.00,98.07
2276.00,98.03
2275.00,98.00
2274.00,97.97
2273.00,97.96
2272.00,97.95
2271.00,97.96
2270.00,97.99
2269.00,98.01
2268.00,98.03
2267.00,98.03
2266.00,98.01
2265.00,97.98
2264.00,97.95
2263.00,97.91
2262.00,97.87
2261.00,97.82
2260.00,97.76
2259.00,97.71
2258.00,97.68
2257.00,97.69
2256.00,97.74
2255.00,97.78
2254.00,97.79
2253.00,97.76
2252.00,97.70
2251.00,97.65
2250.00,97.61
2249.00,97.60
2248.00,97.61
2247.00,97.61
2246.00,97.59
2245.00,97.55
2244.00,97.51
2243.00,97.49
2242.00,97.50
2241.00,97.52
2240.00,97.53
2239.00,97.53
2238.00,97.51
2237.00,97.49
2236.00,97.49
2235.00,97.48
2234.00,97.48
2233.00,97.47
2232.00,97.47
2231.00,97.48
2230.00,97.48
2229.00,97.45
2228.00,97.40
2227.00,97.35
2226.00,97.32
2225.00,97.30
2224.00,97.30
2223.00,97.29
2222.00,97.30
2221.00,97.32
2220.00,97.33
2219.00,97.33
2218.00,97.29
2217.00,97.24
2216.00,97.18
2215.00,97.12
2214.00,97.06
2213.00,97.02
2212.00,97.02
2211.00,97.04
2210.00,97.05
2209.00,97.04
2208.00,97.03
2207.00,97.02
2206.00,97.01
2205.00,97.00
2204.00,97.00
2203.00,97.00
2202.00,96.99
2201.00,96.96
2200.00,96.91
2199.00,96.86
2198.00,96.82
2197.00,96.78
2196.00,96.75
2195.00,96.75
2194.00,96.76
2193.00,96.76
2192.00,96.74
2191.00,96.69
2190.00,96.63
2189.00,96.58
2188.00,96.55
2187.00,96.53
2186.00,96.52
2185.00,96.50
2184.00,96.48
2183.00,96.46
2182.00,96.45
2181.00,96.45
2180.00,96.44
2179.00,96.43
2178.00,96.44
2177.00,96.47
2176.00,96.53
2175.00,96.56
2174.00,96.55
2173.00,96.51
2172.00,96.46
2171.00,96.43
2170.00,96.41
2169.00,96.36
2168.00,96.27
2167.00,96.15
2166.00,96.00
2165.00,95.87
2164.00,95.73
2163.00,95.62
2162.00,95.54
2161.00,95.56
2160.00,95.71
2159.00,95.96
2158.00,96.22
2157.00,96.43
2156.00,96.57
2155.00,96.65
2154.00,96.71
2153.00,96.76
2152.00,96.77
2151.00,96.78
2150.00,96.78
2149.00,96.81
2148.00,96.87
2147.00,96.94
2146.00,97.02
2145.00,97.07
2144.00,97.13
2143.00,97.19
2142.00,97.25
2141.00,97.29
2140.00,97.31
2139.00,97.33
2138.00,97.37
2137.00,97.42
2136.00,97.49
2135.00,97.58
2134.00,97.68
2133.00,97.78
2132.00,97.85
2131.00,97.86
2130.00,97.84
2129.00,97.80
2128.00,97.79
2127.00,97.80
2126.00,97.83
2125.00,97.88
2124.00,97.91
2123.00,97.92
2122.00,97.92
2121.00,97.91
2120.00,97.87
2119.00,97.84
2118.00,97.82
2117.00,97.82
2116.00,97.82
2115.00,97.81
2114.00,97.78
2113.00,97.76
2112.00,97.77
2111.00,97.78
2110.00,97.81
2109.00,97.84
2108.00,97.84
2107.00,97.81
2106.00,97.77
2105.00,97.75
2104.00,97.76
2103.00,97.80
2102.00,97.83
2101.00,97.82
2100.00,97.80
2099.00,97.78
2098.00,97.79
2097.00,97.81
2096.00,97.85
2095.00,97.89
2094.00,97.92
2093.00,97.93
2092.00,97.92
2091.00,97.90
2090.00,97.86
2089.00,97.82
2088.00,97.78
2087.00,97.75
2086.00,97.72
2085.00,97.69
2084.00,97.65
2083.00,97.63
2082.00,97.64
2081.00,97.68
2080.00,97.71
2079.00,97.72
2078.00,97.71
2077.00,97.68
2076.00,97.65
2075.00,97.64
2074.00,97.63
2073.00,97.61
2072.00,97.59
2071.00,97.56
2070.00,97.54
2069.00,97.53
2068.00,97.52
2067.00,97.52
2066.00,97.52
2065.00,97.52
2064.00,97.51
2063.00,97.51
2062.00,97.51
2061.00,97.52
2060.00,97.53
2059.00,97.54
2058.00,97.54
2057.00,97.52
2056.00,97.47
2055.00,97.40
2054.00,97.31
2053.00,97.18
2052.00,97.05
2051.00,96.93
2050.00,96.86
2049.00,96.86
2048.00,96.88
2047.00,96.87
2046.00,96.83
2045.00,96.78
2044.00,96.76
2043.00,96.73
2042.00,96.68
2041.00,96.62
2040.00,96.56
2039.00,96.52
2038.00,96.49
2037.00,96.46
2036.00,96.45
2035.00,96.45
2034.00,96.47
2033.00,96.49
2032.00,96.49
2031.00,96.48
2030.00,96.48
2029.00,96.46
2028.00,96.43
2027.00,96.39
2026.00,96.37
2025.00,96.39
2024.00,96.43
2023.00,96.49
2022.00,96.56
2021.00,96.62
2020.00,96.68
2019.00,96.71
2018.00,96.71
2017.00,96.67
2016.00,96.58
2015.00,96.49
2014.00,96.44
2013.00,96.43
2012.00,96.43
2011.00,96.43
2010.00,96.45
2009.00,96.51
2008.00,96.61
2007.00,96.70
2006.00,96.76
2005.00,96.82
2004.00,96.88
2003.00,96.94
2002.00,96.97
2001.00,96.96
2000.00,96.93
1999.00,96.88
1998.00,96.84
1997.00,96.82
1996.00,96.80
1995.00,96.79
1994.00,96.79
1993.00,96.78
1992.00,96.77
1991.00,96.75
1990.00,96.73
1989.00,96.71
1988.00,96.69
1987.00,96.67
1986.00,96.66
1985.00,96.66
1984.00,96.66
1983.00,96.64
1982.00,96.56
1981.00,96.47
1980.00,96.39
1979.00,96.37
1978.00,96.40
1977.00,96.46
1976.00,96.50
1975.00,96.52
1974.00,96.51
1973.00,96.49
1972.00,96.48
1971.00,96.52
1970.00,96.61
1969.00,96.72
1968.00,96.78
1967.00,96.79
1966.00,96.78
1965.00,96.81
1964.00,96.88
1963.00,96.97
1962.00,97.05
1961.00,97.11
1960.00,97.16
1959.00,97.22
1958.00,97.29
1957.00,97.34
1956.00,97.36
1955.00,97.34
1954.00,97.34
1953.00,97.37
1952.00,97.43
1951.00,97.47
1950.00,97.48
1949.00,97.49
1948.00,97.51
1947.00,97.56
1946.00,97.60
1945.00,97.62
1944.00,97.61
1943.00,97.57
1942.00,97.55
1941.00,97.56
1940.00,97.64
1939.00,97.74
1938.00,97.81
1937.00,97.84
1936.00,97.81
1935.00,97.77
1934.00,97.76
1933.00,97.79
1932.00,97.84
1931.00,97.90
1930.00,97.95
1929.00,97.99
1928.00,98.01
1927.00,98.00
1926.00,97.95
1925.00,97.90
1924.00,97.88
1923.00,97.91
1922.00,97.97
1921.00,98.02
1920.00,98.04
1919.00,98.06
1918.00,98.08
1917.00,98.11
1916.00,98.13
1915.00,98.14
1914.00,98.15
1913.00,98.15
1912.00,98.16
1911.00,98.17
1910.00,98.21
1909.00,98.24
1908.00,98.26
1907.00,98.26
1906.00,98.26
1905.00,98.26
1904.00,98.26
1903.00,98.27
1902.00,98.28
1901.00,98.30
1900.00,98.33
1899.00,98.35
1898.00,98.35
1897.00,98.36
1896.00,98.35
1895.00,98.34
1894.00,98.33
1893.00,98.32
1892.00,98.34
1891.00,98.37
1890.00,98.39
1889.00,98.39
1888.00,98.37
1887.00,98.36
1886.00,98.35
1885.00,98.36
1884.00,98.38
1883.00,98.40
1882.00,98.42
1881.00,98.43
1880.00,98.43
1879.00,98.42
1878.00,98.41
1877.00,98.41
1876.00,98.42
1875.00,98.42
1874.00,98.43
1873.00,98.43
1872.00,98.45
1871.00,98.48
1870.00,98.50
1869.00,98.51
1868.00,98.50
1867.00,98.49
1866.00,98.48
1865.00,98.48
1864.00,98.50
1863.00,98.53
1862.00,98.54
1861.00,98.54
1860.00,98.53
1859.00,98.54
1858.00,98.56
1857.00,98.58
1856.00,98.60
1855.00,98.60
1854.00,98.59
1853.00,98.58
1852.00,98.57
1851.00,98.58
1850.00,98.60
1849.00,98.61
1848.00,98.61
1847.00,98.61
1846.00,98.62
1845.00,98.63
1844.00,98.62
1843.00,98.61
1842.00,98.62
1841.00,98.62
1840.00,98.63
1839.00,98.63
1838.00,98.61
1837.00,98.60
1836.00,98.60
1835.00,98.60
1834.00,98.62
1833.00,98.64
1832.00,98.66
1831.00,98.67
1830.00,98.68
1829.00,98.68
1828.00,98.66
1827.00,98.64
1826.00,98.64
1825.00,98.65
1824.00,98.66
1823.00,98.67
1822.00,98.67
1821.00,98.67
1820.00,98.67
1819.00,98.69
1818.00,98.73
1817.00,98.77
1816.00,98.78
1815.00,98.78
1814.00,98.77
1813.00,98.76
1812.00,98.76
1811.00,98.77
1810.00,98.78
1809.00,98.78
1808.00,98.79
1807.00,98.79
1806.00,98.79
1805.00,98.79
1804.00,98.78
1803.00,98.78
1802.00,98.78
1801.00,98.79
1800.00,98.79
1799.00,98.79
1798.00,98.80
1797.00,98.81
1796.00,98.82
1795.00,98.82
1794.00,98.83
1793.00,98.85
1792.00,98.86
1791.00,98.86
1790.00,98.85
1789.00,98.84
1788.00,98.84
1787.00,98.84
1786.00,98.85
1785.00,98.85
1784.00,98.86
1783.00,98.87
1782.00,98.86
1781.00,98.86
1780.00,98.85
1779.00,98.85
1778.00,98.85
1777.00,98.85
1776.00,98.84
1775.00,98.83
1774.00,98.82
1773.00,98.83
1772.00,98.84
1771.00,98.84
1770.00,98.83
1769.00,98.81
1768.00,98.80
1767.00,98.79
1766.00,98.78
1765.00,98.77
1764.00,98.77
1763.00,98.77
1762.00,98.77
1761.00,98.77
1760.00,98.75
1759.00,98.73
1758.00,98.71
1757.00,98.70
1756.00,98.69
1755.00,98.68
1754.00,98.66
1753.00,98.64
1752.00,98.62
1751.00,98.61
1750.00,98.61
1749.00,98.59
1748.00,98.57
1747.00,98.53
1746.00,98.50
1745.00,98.47
1744.00,98.43
1743.00,98.39
1742.00,98.37
1741.00,98.35
1740.00,98.35
1739.00,98.35
1738.00,98.36
1737.00,98.36
1736.00,98.37
1735.00,98.39
1734.00,98.41
1733.00,98.42
1732.00,98.42
1731.00,98.43
1730.00,98.45
1729.00,98.47
1728.00,98.48
1727.00,98.49
1726.00,98.50
1725.00,98.52
1724.00,98.54
1723.00,98.54
1722.00,98.55
1721.00,98.56
1720.00,98.56
1719.00,98.56
1718.00,98.56
1717.00,98.54
1716.00,98.54
1715.00,98.54
1714.00,98.55
1713.00,98.55
1712.00,98.55
1711.00,98.55
1710.00,98.55
1709.00,98.55
1708.00,98.55
1707.00,98.55
1706.00,98.55
1705.00,98.54
1704.00,98.53
1703.00,98.53
1702.00,98.53
1701.00,98.53
1700.00,98.53
1699.00,98.53
1698.00,98.53
1697.00,98.52
1696.00,98.52
1695.00,98.52
1694.00,98.53
1693.00,98.53
1692.00,98.54
1691.00,98.55
1690.00,98.57
1689.00,98.58
1688.00,98.60
1687.00,98.62
1686.00,98.63
1685.00,98.63
1684.00,98.62
1683.00,98.60
1682.00,98.60
1681.00,98.61
1680.00,98.62
1679.00,98.61
1678.00,98.59
1677.00,98.57
1676.00,98.56
1675.00,98.55
1674.00,98.55
1673.00,98.55
1672.00,98.56
1671.00,98.56
1670.00,98.57
1669.00,98.56
1668.00,98.56
1667.00,98.56
1666.00,98.57
1665.00,98.58
1664.00,98.58
1663.00,98.58
1662.00,98.56
1661.00,98.53
1660.00,98.52
1659.00,98.51
1658.00,98.51
1657.00,98.52
1656.00,98.53
1655.00,98.53
1654.00,98.54
1653.00,98.56
1652.00,98.57
1651.00,98.56
1650.00,98.54
1649.00,98.52
1648.00,98.51
1647.00,98.51
1646.00,98.51
1645.00,98.51
1644.00,98.52
1643.00,98.53
1642.00,98.55
1641.00,98.57
1640.00,98.57
1639.00,98.57
1638.00,98.56
1637.00,98.55
1636.00,98.56
1635.00,98.57
1634.00,98.57
1633.00,98.57
1632.00,98.57
1631.00,98.57
1630.00,98.57
1629.00,98.57
1628.00,98.58
1627.00,98.59
1626.00,98.60
1625.00,98.60
1624.00,98.60
1623.00,98.60
1622.00,98.60
1621.00,98.59
1620.00,98.59
1619.00,98.58
1618.00,98.57
1617.00,98.56
1616.00,98.56
1615.00,98.57
1614.00,98.57
1613.00,98.57
1612.00,98.57
1611.00,98.57
1610.00,98.58
1609.00,98.59
1608.00,98.60
1607.00,98.60
1606.00,98.60
1605.00,98.60
1604.00,98.60
1603.00,98.61
1602.00,98.61
1601.00,98.61
1600.00,98.60
1599.00,98.59
1598.00,98.59
1597.00,98.59
1596.00,98.59
1595.00,98.59
1594.00,98.60
1593.00,98.61
1592.00,98.61
1591.00,98.61
1590.00,98.61
1589.00,98.61
1588.00,98.61
1587.00,98.62
1586.00,98.63
1585.00,98.63
1584.00,98.63
1583.00,98.62
1582.00,98.62
1581.00,98.62
1580.00,98.61
1579.00,98.60
1578.00,98.59
1577.00,98.58
1576.00,98.56
1575.00,98.53
1574.00,98.50
1573.00,98.48
1572.00,98.47
1571.00,98.46
1570.00,98.45
1569.00,98.45
1568.00,98.46
1567.00,98.46
1566.00,98.47
1565.00,98.47
1564.00,98.47
1563.00,98.46
1562.00,98.45
1561.00,98.43
1560.00,98.42
1559.00,98.43
1558.00,98.46
1557.00,98.48
1556.00,98.49
1555.00,98.48
1554.00,98.46
1553.00,98.44
1552.00,98.43
1551.00,98.43
1550.00,98.45
1549.00,98.44
1548.00,98.43
1547.00,98.41
1546.00,98.39
1545.00,98.37
1544.00,98.35
1543.00,98.35
1542.00,98.35
1541.00,98.36
1540.00,98.36
1539.00,98.35
1538.00,98.33
1537.00,98.30
1536.00,98.26
1535.00,98.24
1534.00,98.23
1533.00,98.23
1532.00,98.24
1531.00,98.26
1530.00,98.28
1529.00,98.30
1528.00,98.30
1527.00,98.31
1526.00,98.34
1525.00,98.38
1524.00,98.41
1523.00,98.43
1522.00,98.43
1521.00,98.42
1520.00,98.40
1519.00,98.40
1518.00,98.42
1517.00,98.44
1516.00,98.45
1515.00,98.45
1514.00,98.44
1513.00,98.42
1512.00,98.41
1511.00,98.41
1510.00,98.41
1509.00,98.40
1508.00,98.38
1507.00,98.37
1506.00,98.37
1505.00,98.36
1504.00,98.35
1503.00,98.33
1502.00,98.32
1501.00,98.30
1500.00,98.27
1499.00,98.25
1498.00,98.23
1497.00,98.18
1496.00,98.12
1495.00,98.07
1494.00,98.02
1493.00,97.99
1492.00,97.95
1491.00,97.90
1490.00,97.84
1489.00,97.75
1488.00,97.66
1487.00,97.59
1486.00,97.54
1485.00,97.47
1484.00,97.39
1483.00,97.31
1482.00,97.20
1481.00,97.06
1480.00,96.91
1479.00,96.75
1478.00,96.57
1477.00,96.34
1476.00,96.06
1475.00,95.73
1474.00,95.31
1473.00,94.71
1472.00,94.01
1471.00,93.30
1470.00,92.61
1469.00,91.89
1468.00,91.11
1467.00,90.28
1466.00,89.38
1465.00,88.44
1464.00,87.60
1463.00,86.96
1462.00,86.49
1461.00,86.13
1460.00,85.85
1459.00,85.63
1458.00,85.45
1457.00,85.28
1456.00,85.14
1455.00,85.08
1454.00,85.06
1453.00,85.11
1452.00,85.24
1451.00,85.51
1450.00,85.95
1449.00,86.62
1448.00,87.52
1447.00,88.56
1446.00,89.60
1445.00,90.56
1444.00,91.41
1443.00,92.12
1442.00,92.65
1441.00,93.02
1440.00,93.25
1439.00,93.36
1438.00,93.39
1437.00,93.40
1436.00,93.51
1435.00,93.76
1434.00,94.16
1433.00,94.66
1432.00,95.20
1431.00,95.69
1430.00,96.08
1429.00,96.38
1428.00,96.59
1427.00,96.74
1426.00,96.85
1425.00,96.96
1424.00,97.06
1423.00,97.13
1422.00,97.18
1421.00,97.23
1420.00,97.29
1419.00,97.33
1418.00,97.37
1417.00,97.41
1416.00,97.46
1415.00,97.48
1414.00,97.50
1413.00,97.51
1412.00,97.54
1411.00,97.55
1410.00,97.56
1409.00,97.57
1408.00,97.57
1407.00,97.56
1406.00,97.55
1405.00,97.55
1404.00,97.57
1403.00,97.57
1402.00,97.58
1401.00,97.57
1400.00,97.55
1399.00,97.51
1398.00,97.47
1397.00,97.43
1396.00,97.40
1395.00,97.33
1394.00,97.25
1393.00,97.17
1392.00,97.10
1391.00,97.01
1390.00,96.89
1389.00,96.72
1388.00,96.44
1387.00,96.00
1386.00,95.39
1385.00,94.59
1384.00,93.54
1383.00,92.13
1382.00,90.35
1381.00,88.22
1380.00,85.79
1379.00,83.26
1378.00,81.02
1377.00,79.50
1376.00,79.03
1375.00,79.74
1374.00,81.48
1373.00,83.76
1372.00,86.09
1371.00,88.21
1370.00,90.04
1369.00,91.53
1368.00,92.62
1367.00,93.34
1366.00,93.75
1365.00,93.95
1364.00,93.97
1363.00,93.87
1362.00,93.68
1361.00,93.45
1360.00,93.27
1359.00,93.20
1358.00,93.30
1357.00,93.57
1356.00,93.97
1355.00,94.42
1354.00,94.86
1353.00,95.24
1352.00,95.56
1351.00,95.81
1350.00,96.02
1349.00,96.20
1348.00,96.36
1347.00,96.51
1346.00,96.65
1345.00,96.78
1344.00,96.89
1343.00,96.99
1342.00,97.07
1341.00,97.13
1340.00,97.17
1339.00,97.19
1338.00,97.20
1337.00,97.20
1336.00,97.19
1335.00,97.16
1334.00,97.12
1333.00,97.06
1332.00,97.00
1331.00,96.94
1330.00,96.90
1329.00,96.88
1328.00,96.90
1327.00,96.94
1326.00,97.00
1325.00,97.07
1324.00,97.14
1323.00,97.22
1322.00,97.29
1321.00,97.36
1320.00,97.41
1319.00,97.45
1318.00,97.47
1317.00,97.48
1316.00,97.49
1315.00,97.49
1314.00,97.48
1313.00,97.47
1312.00,97.45
1311.00,97.40
1310.00,97.33
1309.00,97.22
1308.00,97.07
1307.00,96.89
1306.00,96.72
1305.00,96.61
1304.00,96.58
1303.00,96.63
1302.00,96.73
1301.00,96.83
1300.00,96.89
1299.00,96.93
1298.00,96.94
1297.00,96.95
1296.00,96.96
1295.00,96.98
1294.00,97.01
1293.00,97.06
1292.00,97.13
1291.00,97.20
1290.00,97.26
1289.00,97.31
1288.00,97.36
1287.00,97.39
1286.00,97.43
1285.00,97.46
1284.00,97.48
1283.00,97.51
1282.00,97.53
1281.00,97.55
1280.00,97.57
1279.00,97.59
1278.00,97.60
1277.00,97.60
1276.00,97.61
1275.00,97.62
1274.00,97.63
1273.00,97.64
1272.00,97.64
1271.00,97.65
1270.00,97.65
1269.00,97.65
1268.00,97.65
1267.00,97.63
1266.00,97.59
1265.00,97.54
1264.00,97.49
1263.00,97.44
1262.00,97.39
1261.00,97.31
1260.00,97.19
1259.00,97.05
1258.00,96.89
1257.00,96.75
1256.00,96.67
1255.00,96.66
1254.00,96.73
1253.00,96.85
1252.00,96.97
1251.00,97.08
1250.00,97.18
1249.00,97.25
1248.00,97.30
1247.00,97.33
1246.00,97.34
1245.00,97.36
1244.00,97.37
1243.00,97.39
1242.00,97.40
1241.00,97.41
1240.00,97.43
1239.00,97.45
1238.00,97.48
1237.00,97.51
1236.00,97.54
1235.00,97.55
1234.00,97.55
1233.00,97.54
1232.00,97.53
1231.00,97.53
1230.00,97.53
1229.00,97.53
1228.00,97.52
1227.00,97.50
1226.00,97.47
1225.00,97.44
1224.00,97.41
1223.00,97.37
1222.00,97.33
1221.00,97.29
1220.00,97.25
1219.00,97.24
1218.00,97.24
1217.00,97.27
1216.00,97.32
1215.00,97.37
1214.00,97.43
1213.00,97.48
1212.00,97.52
1211.00,97.55
1210.00,97.57
1209.00,97.59
1208.00,97.61
1207.00,97.62
1206.00,97.63
1205.00,97.64
1204.00,97.65
1203.00,97.66
1202.00,97.66
1201.00,97.67
1200.00,97.69
1199.00,97.71
1198.00,97.73
1197.00,97.75
1196.00,97.77
1195.00,97.77
1194.00,97.76
1193.00,97.75
1192.00,97.72
1191.00,97.70
1190.00,97.67
1189.00,97.64
1188.00,97.62
1187.00,97.62
1186.00,97.63
1185.00,97.63
1184.00,97.61
1183.00,97.57
1182.00,97.53
1181.00,97.48
1180.00,97.42
1179.00,97.33
1178.00,97.20
1177.00,97.03
1176.00,96.83
1175.00,96.58
1174.00,96.28
1173.00,95.93
1172.00,95.51
1171.00,95.05
1170.00,94.58
1169.00,94.18
1168.00,93.89
1167.00,93.76
1166.00,93.79
1165.00,93.94
1164.00,94.14
1163.00,94.37
1162.00,94.59
1161.00,94.78
1160.00,94.93
1159.00,95.03
1158.00,95.08
1157.00,95.11
1156.00,95.13
1155.00,95.16
1154.00,95.17
1153.00,95.17
1152.00,95.19
1151.00,95.22
1150.00,95.30
1149.00,95.39
1148.00,95.50
1147.00,95.60
1146.00,95.71
1145.00,95.81
1144.00,95.89
1143.00,95.96
1142.00,96.02
1141.00,96.08
1140.00,96.14
1139.00,96.19
1138.00,96.24
1137.00,96.27
1136.00,96.30
1135.00,96.32
1134.00,96.34
1133.00,96.36
1132.00,96.37
1131.00,96.38
1130.00,96.38
1129.00,96.38
1128.00,96.38
1127.00,96.39
1126.00,96.39
1125.00,96.39
1124.00,96.39
1123.00,96.38
1122.00,96.37
1121.00,96.36
1120.00,96.35
1119.00,96.34
1118.00,96.33
1117.00,96.32
1116.00,96.30
1115.00,96.29
1114.00,96.27
1113.00,96.25
1112.00,96.22
1111.00,96.18
1110.00,96.12
1109.00,96.06
1108.00,95.99
1107.00,95.92
1106.00,95.85
1105.00,95.76
1104.00,95.66
1103.00,95.59
1102.00,95.59
1101.00,95.65
1100.00,95.76
1099.00,95.88
1098.00,96.02
1097.00,96.14
1096.00,96.23
1095.00,96.31
1094.00,96.36
1093.00,96.41
1092.00,96.46
1091.00,96.52
1090.00,96.60
1089.00,96.69
1088.00,96.77
1087.00,96.83
1086.00,96.87
1085.00,96.90
1084.00,96.93
1083.00,96.96
1082.00,96.99
1081.00,97.00
1080.00,97.01
1079.00,97.02
1078.00,97.05
1077.00,97.09
1076.00,97.12
1075.00,97.14
1074.00,97.15
1073.00,97.15
1072.00,97.14
1071.00,97.13
1070.00,97.13
1069.00,97.14
1068.00,97.15
1067.00,97.16
1066.00,97.18
1065.00,97.20
1064.00,97.22
1063.00,97.23
1062.00,97.21
1061.00,97.19
1060.00,97.17
1059.00,97.15
1058.00,97.16
1057.00,97.19
1056.00,97.22
1055.00,97.26
1054.00,97.29
1053.00,97.33
1052.00,97.35
1051.00,97.34
1050.00,97.28
1049.00,97.18
1048.00,97.06
1047.00,96.96
1046.00,96.92
1045.00,96.95
1044.00,97.00
1043.00,97.05
1042.00,97.08
1041.00,97.10
1040.00,97.12
1039.00,97.15
1038.00,97.21
1037.00,97.26
1036.00,97.31
1035.00,97.33
1034.00,97.34
1033.00,97.37
1032.00,97.40
1031.00,97.44
1030.00,97.48
1029.00,97.49
1028.00,97.50
1027.00,97.49
1026.00,97.50
1025.00,97.52
1024.00,97.54
1023.00,97.54
1022.00,97.53
1021.00,97.52
1020.00,97.51
1019.00,97.50
1018.00,97.48
1017.00,97.46
1016.00,97.44
1015.00,97.41
1014.00,97.39
1013.00,97.37
1012.00,97.35
1011.00,97.34
1010.00,97.30
1009.00,97.23
1008.00,97.13
1007.00,97.01
1006.00,96.87
1005.00,96.68
1004.00,96.40
1003.00,95.99
1002.00,95.44
1001.00,94.79
1000.00,94.12
999.00,93.57
998.00,93.29
997.00,93.34
996.00,93.71
995.00,94.28
994.00,94.91
993.00,95.48
992.00,95.94
991.00,96.29
990.00,96.55
989.00,96.73
988.00,96.84
987.00,96.89
986.00,96.91
985.00,96.90
984.00,96.88
983.00,96.81
982.00,96.67
981.00,96.44
980.00,96.13
979.00,95.71
978.00,95.17
977.00,94.53
976.00,93.84
975.00,93.18
974.00,92.65
973.00,92.38
972.00,92.46
971.00,92.88
970.00,93.53
969.00,94.27
968.00,94.95
967.00,95.52
966.00,95.96
965.00,96.26
964.00,96.47
963.00,96.62
962.00,96.73
961.00,96.83
960.00,96.91
959.00,96.99
958.00,97.06
957.00,97.11
956.00,97.13
955.00,97.14
954.00,97.13
953.00,97.13
952.00,97.12
951.00,97.12
950.00,97.12
949.00,97.12
948.00,97.12
947.00,97.12
946.00,97.11
945.00,97.10
944.00,97.08
943.00,97.05
942.00,97.03
941.00,97.01
940.00,97.01
939.00,97.04
938.00,97.10
937.00,97.19
936.00,97.27
935.00,97.34
934.00,97.40
933.00,97.45
932.00,97.49
931.00,97.52
930.00,97.54
929.00,97.56
928.00,97.58
927.00,97.60
926.00,97.61
925.00,97.61
924.00,97.61
923.00,97.60
922.00,97.61
921.00,97.62
920.00,97.63
919.00,97.64
918.00,97.64
917.00,97.64
916.00,97.64
915.00,97.64
914.00,97.63
913.00,97.59
912.00,97.56
911.00,97.53
910.00,97.50
909.00,97.46
908.00,97.42
907.00,97.35
906.00,97.24
905.00,97.06
904.00,96.81
903.00,96.51
902.00,96.21
901.00,95.97
900.00,95.82
899.00,95.81
898.00,95.94
897.00,96.18
896.00,96.45
895.00,96.71
894.00,96.93
893.00,97.11
892.00,97.23
891.00,97.31
890.00,97.36
889.00,97.38
888.00,97.39
887.00,97.39
886.00,97.37
885.00,97.36
884.00,97.36
883.00,97.38
882.00,97.41
881.00,97.45
880.00,97.47
879.00,97.47
878.00,97.47
877.00,97.48
876.00,97.51
875.00,97.52
874.00,97.51
873.00,97.47
872.00,97.42
871.00,97.38
870.00,97.36
869.00,97.35
868.00,97.34
867.00,97.35
866.00,97.36
865.00,97.38
864.00,97.38
863.00,97.38
862.00,97.38
861.00,97.37
860.00,97.36
859.00,97.33
858.00,97.28
857.00,97.24
856.00,97.21
855.00,97.18
854.00,97.16
853.00,97.13
852.00,97.09
851.00,97.04
850.00,96.97
849.00,96.87
848.00,96.71
847.00,96.49
846.00,96.16
845.00,95.69
844.00,95.04
843.00,94.26
842.00,93.54
841.00,93.15
840.00,93.24
839.00,93.77
838.00,94.51
837.00,95.22
836.00,95.78
835.00,96.17
834.00,96.42
833.00,96.59
832.00,96.69
831.00,96.77
830.00,96.83
829.00,96.88
828.00,96.92
827.00,96.96
826.00,97.00
825.00,97.04
824.00,97.07
823.00,97.10
822.00,97.09
821.00,97.07
820.00,97.03
819.00,96.98
818.00,96.92
817.00,96.87
816.00,96.79
815.00,96.67
814.00,96.45
813.00,96.16
812.00,95.83
811.00,95.55
810.00,95.38
809.00,95.34
808.00,95.43
807.00,95.63
806.00,95.87
805.00,96.12
804.00,96.32
803.00,96.47
802.00,96.59
801.00,96.70
800.00,96.82
799.00,96.93
798.00,97.02
797.00,97.09
796.00,97.13
795.00,97.15
794.00,97.15
793.00,97.16
792.00,97.19
791.00,97.25
790.00,97.32
789.00,97.38
788.00,97.41
787.00,97.42
786.00,97.42
785.00,97.42
784.00,97.43
783.00,97.46
782.00,97.52
781.00,97.58
780.00,97.62
779.00,97.62
778.00,97.60
777.00,97.58
776.00,97.56
775.00,97.55
774.00,97.54
773.00,97.53
772.00,97.53
771.00,97.53
770.00,97.53
769.00,97.54
768.00,97.55
767.00,97.54
766.00,97.53
765.00,97.53
764.00,97.54
763.00,97.56
762.00,97.57
761.00,97.59
760.00,97.61
759.00,97.62
758.00,97.62
757.00,97.60
756.00,97.58
755.00,97.58
754.00,97.58
753.00,97.59
752.00,97.58
751.00,97.55
750.00,97.52
749.00,97.50
748.00,97.51
747.00,97.53
746.00,97.53
745.00,97.52
744.00,97.52
743.00,97.52
742.00,97.51
741.00,97.50
740.00,97.49
739.00,97.50
738.00,97.50
737.00,97.50
736.00,97.50
735.00,97.50
734.00,97.49
733.00,97.43
732.00,97.37
731.00,97.34
730.00,97.35
729.00,97.39
728.00,97.41
727.00,97.41
726.00,97.39
725.00,97.35
724.00,97.33
723.00,97.33
722.00,97.34
721.00,97.34
720.00,97.33
719.00,97.33
718.00,97.35
717.00,97.38
716.00,97.40
715.00,97.41
714.00,97.38
713.00,97.35
712.00,97.33
711.00,97.32
710.00,97.31
709.00,97.29
708.00,97.26
707.00,97.25
706.00,97.25
705.00,97.24
704.00,97.23
703.00,97.23
702.00,97.26
701.00,97.31
700.00,97.36
699.00,97.37
698.00,97.34
697.00,97.27
696.00,97.19
695.00,97.13
694.00,97.13
693.00,97.18
692.00,97.27
691.00,97.35
690.00,97.40
689.00,97.42
688.00,97.41
687.00,97.40
686.00,97.40
685.00,97.40
684.00,97.37
683.00,97.34
682.00,97.32
681.00,97.32
680.00,97.34
679.00,97.36
678.00,97.37
677.00,97.37
676.00,97.34
675.00,97.29
674.00,97.24
673.00,97.20
672.00,97.15
671.00,97.12
670.00,97.13
669.00,97.17
668.00,97.22
667.00,97.22
666.00,97.20
665.00,97.20
664.00,97.20
663.00,97.18
662.00,97.15
661.00,97.17
660.00,97.24
659.00,97.32
658.00,97.38
657.00,97.39
656.00,97.36
655.00,97.29
654.00,97.24
653.00,97.24
652.00,97.29
651.00,97.35
650.00,97.41
649.00,97.48
648.00,97.57
647.00,97.64
646.00,97.65
645.00,97.61
644.00,97.55
643.00,97.45
642.00,97.32
641.00,97.18
640.00,97.07
639.00,97.01
638.00,96.97
637.00,96.94
636.00,96.94
635.00,97.00
634.00,97.08
633.00,97.09
632.00,97.02
631.00,96.91
630.00,96.84
629.00,96.88
628.00,97.01
627.00,97.23
626.00,97.44
625.00,97.52
624.00,97.42
623.00,97.20
622.00,97.04
621.00,97.06
620.00,97.26
619.00,97.53
618.00,97.70
617.00,97.67
616.00,97.45
615.00,97.16
614.00,97.00
613.00,97.02
612.00,97.12
611.00,97.16
610.00,97.10
609.00,97.06
608.00,97.09
607.00,97.16
606.00,97.18
605.00,97.19
604.00,97.30
603.00,97.50
602.00,97.62
601.00,97.54
600.00,97.28
599.00,97.04
598.00,96.94
597.00,96.86
596.00,96.65
595.00,96.31
594.00,96.07
593.00,96.14
592.00,96.49
591.00,96.91
590.00,97.22
589.00,97.48
588.00,97.83
587.00,98.21
586.00,98.32
585.00,97.99
584.00,97.37
583.00,96.85
582.00,96.66
581.00,96.73
580.00,96.83
579.00,96.85
578.00,96.78
577.00,96.61
576.00,96.37
575.00,96.29
574.00,96.51
573.00,96.75
572.00,96.55
571.00,95.79
570.00,94.95
569.00,94.61
568.00,94.96
567.00,95.80
566.00,96.76
565.00,97.48
564.00,97.73
563.00,97.47
562.00,96.91
561.00,96.43
560.00,96.23
559.00,96.28
558.00,96.43
557.00,96.48
556.00,96.22
555.00,95.56
554.00,94.77
553.00,94.31
552.00,94.50
551.00,95.21
550.00,95.98
