Created as New Dataset,123 Philips
cm-1,%T
4000.00,100.70
3999.00,100.67
3998.00,100.65
3997.00,100.66
3996.00,100.67
3995.00,100.69
3994.00,100.70
3993.00,100.70
3992.00,100.68
3991.00,100.65
3990.00,100.62
3989.00,100.60
3988.00,100.60
3987.00,100.60
3986.00,100.62
3985.00,100.64
3984.00,100.66
3983.00,100.68
3982.00,100.69
3981.00,100.70
3980.00,100.70
3979.00,100.70
3978.00,100.69
3977.00,100.68
3976.00,100.66
3975.00,100.65
3974.00,100.64
3973.00,100.64
3972.00,100.64
3971.00,100.65
3970.00,100.65
3969.00,100.64
3968.00,100.63
3967.00,100.61
3966.00,100.60
3965.00,100.59
3964.00,100.59
3963.00,100.60
3962.00,100.61
3961.00,100.63
3960.00,100.65
3959.00,100.67
3958.00,100.70
3957.00,100.71
3956.00,100.72
3955.00,100.73
3954.00,100.71
3953.00,100.69
3952.00,100.67
3951.00,100.66
3950.00,100.66
3949.00,100.67
3948.00,100.68
3947.00,100.67
3946.00,100.67
3945.00,100.66
3944.00,100.66
3943.00,100.67
3942.00,100.66
3941.00,100.65
3940.00,100.64
3939.00,100.63
3938.00,100.64
3937.00,100.65
3936.00,100.66
3935.00,100.67
3934.00,100.66
3933.00,100.64
3932.00,100.61
3931.00,100.59
3930.00,100.59
3929.00,100.61
3928.00,100.63
3927.00,100.64
3926.00,100.64
3925.00,100.64
3924.00,100.64
3923.00,100.64
3922.00,100.64
3921.00,100.64
3920.00,100.65
3919.00,100.65
3918.00,100.64
3917.00,100.62
3916.00,100.60
3915.00,100.59
3914.00,100.59
3913.00,100.61
3912.00,100.62
3911.00,100.63
3910.00,100.64
3909.00,100.64
3908.00,100.64
3907.00,100.62
3906.00,100.62
3905.00,100.62
3904.00,100.63
3903.00,100.64
3902.00,100.64
3901.00,100.64
3900.00,100.64
3899.00,100.65
3898.00,100.64
3897.00,100.62
3896.00,100.60
3895.00,100.58
3894.00,100.57
3893.00,100.57
3892.00,100.58
3891.00,100.59
3890.00,100.58
3889.00,100.57
3888.00,100.57
3887.00,100.59
3886.00,100.61
3885.00,100.60
3884.00,100.56
3883.00,100.52
3882.00,100.52
3881.00,100.54
3880.00,100.57
3879.00,100.58
3878.00,100.57
3877.00,100.54
3876.00,100.51
3875.00,100.48
3874.00,100.44
3873.00,100.40
3872.00,100.39
3871.00,100.43
3870.00,100.49
3869.00,100.53
3868.00,100.53
3867.00,100.50
3866.00,100.49
3865.00,100.49
3864.00,100.49
3863.00,100.48
3862.00,100.48
3861.00,100.49
3860.00,100.51
3859.00,100.54
3858.00,100.56
3857.00,100.57
3856.00,100.57
3855.00,100.58
3854.00,100.60
3853.00,100.60
3852.00,100.57
3851.00,100.54
3850.00,100.52
3849.00,100.52
3848.00,100.51
3847.00,100.49
3846.00,100.47
3845.00,100.47
3844.00,100.48
3843.00,100.49
3842.00,100.51
3841.00,100.52
3840.00,100.52
3839.00,100.51
3838.00,100.48
3837.00,100.45
3836.00,100.43
3835.00,100.42
3834.00,100.42
3833.00,100.44
3832.00,100.47
3831.00,100.50
3830.00,100.51
3829.00,100.50
3828.00,100.49
3827.00,100.48
3826.00,100.47
3825.00,100.45
3824.00,100.41
3823.00,100.39
3822.00,100.40
3821.00,100.42
3820.00,100.43
3819.00,100.43
3818.00,100.43
3817.00,100.45
3816.00,100.47
3815.00,100.48
3814.00,100.48
3813.00,100.46
3812.00,100.45
3811.00,100.44
3810.00,100.43
3809.00,100.44
3808.00,100.47
3807.00,100.49
3806.00,100.47
3805.00,100.42
3804.00,100.39
3803.00,100.39
3802.00,100.42
3801.00,100.43
3800.00,100.40
3799.00,100.37
3798.00,100.36
3797.00,100.37
3796.00,100.38
3795.00,100.39
3794.00,100.39
3793.00,100.40
3792.00,100.42
3791.00,100.43
3790.00,100.44
3789.00,100.44
3788.00,100.43
3787.00,100.42
3786.00,100.40
3785.00,100.37
3784.00,100.34
3783.00,100.31
3782.00,100.29
3781.00,100.29
3780.00,100.29
3779.00,100.31
3778.00,100.32
3777.00,100.34
3776.00,100.37
3775.00,100.40
3774.00,100.41
3773.00,100.39
3772.00,100.35
3771.00,100.30
3770.00,100.27
3769.00,100.25
3768.00,100.24
3767.00,100.24
3766.00,100.26
3765.00,100.28
3764.00,100.30
3763.00,100.31
3762.00,100.31
3761.00,100.30
3760.00,100.29
3759.00,100.28
3758.00,100.28
3757.00,100.28
3756.00,100.29
3755.00,100.30
3754.00,100.32
3753.00,100.35
3752.00,100.37
3751.00,100.37
3750.00,100.36
3749.00,100.34
3748.00,100.31
3747.00,100.27
3746.00,100.24
3745.00,100.22
3744.00,100.21
3743.00,100.20
3742.00,100.21
3741.00,100.23
3740.00,100.25
3739.00,100.25
3738.00,100.24
3737.00,100.24
3736.00,100.24
3735.00,100.24
3734.00,100.24
3733.00,100.23
3732.00,100.24
3731.00,100.24
3730.00,100.24
3729.00,100.25
3728.00,100.27
3727.00,100.28
3726.00,100.25
3725.00,100.21
3724.00,100.19
3723.00,100.19
3722.00,100.22
3721.00,100.24
3720.00,100.24
3719.00,100.22
3718.00,100.20
3717.00,100.19
3716.00,100.18
3715.00,100.17
3714.00,100.17
3713.00,100.17
3712.00,100.17
3711.00,100.17
3710.00,100.17
3709.00,100.18
3708.00,100.20
3707.00,100.21
3706.00,100.21
3705.00,100.19
3704.00,100.16
3703.00,100.13
3702.00,100.13
3701.00,100.13
3700.00,100.14
3699.00,100.13
3698.00,100.12
3697.00,100.12
3696.00,100.13
3695.00,100.15
3694.00,100.17
3693.00,100.18
3692.00,100.17
3691.00,100.14
3690.00,100.12
3689.00,100.11
3688.00,100.11
3687.00,100.11
3686.00,100.11
3685.00,100.12
3684.00,100.13
3683.00,100.13
3682.00,100.14
3681.00,100.16
3680.00,100.19
3679.00,100.22
3678.00,100.22
3677.00,100.22
3676.00,100.22
3675.00,100.20
3674.00,100.18
3673.00,100.15
3672.00,100.13
3671.00,100.13
3670.00,100.13
3669.00,100.12
3668.00,100.13
3667.00,100.14
3666.00,100.15
3665.00,100.16
3664.00,100.15
3663.00,100.15
3662.00,100.15
3661.00,100.15
3660.00,100.14
3659.00,100.13
3658.00,100.11
3657.00,100.10
3656.00,100.09
3655.00,100.08
3654.00,100.06
3653.00,100.05
3652.00,100.05
3651.00,100.05
3650.00,100.04
3649.00,100.04
3648.00,100.05
3647.00,100.08
3646.00,100.11
3645.00,100.12
3644.00,100.12
3643.00,100.11
3642.00,100.10
3641.00,100.10
3640.00,100.11
3639.00,100.12
3638.00,100.13
3637.00,100.13
3636.00,100.13
3635.00,100.13
3634.00,100.13
3633.00,100.14
3632.00,100.15
3631.00,100.17
3630.00,100.20
3629.00,100.21
3628.00,100.18
3627.00,100.12
3626.00,100.07
3625.00,100.06
3624.00,100.07
3623.00,100.10
3622.00,100.11
3621.00,100.10
3620.00,100.08
3619.00,100.06
3618.00,100.05
3617.00,100.05
3616.00,100.05
3615.00,100.05
3614.00,100.05
3613.00,100.04
3612.00,100.03
3611.00,100.02
3610.00,100.02
3609.00,100.02
3608.00,100.02
3607.00,100.03
3606.00,100.05
3605.00,100.06
3604.00,100.07
3603.00,100.06
3602.00,100.05
3601.00,100.04
3600.00,100.05
3599.00,100.08
3598.00,100.10
3597.00,100.11
3596.00,100.10
3595.00,100.10
3594.00,100.10
3593.00,100.09
3592.00,100.08
3591.00,100.05
3590.00,100.01
3589.00,99.99
3588.00,99.99
3587.00,100.00
3586.00,100.02
3585.00,100.04
3584.00,100.05
3583.00,100.05
3582.00,100.04
3581.00,100.02
3580.00,100.00
3579.00,99.99
3578.00,99.98
3577.00,99.98
3576.00,99.99
3575.00,99.99
3574.00,100.01
3573.00,100.02
3572.00,100.04
3571.00,100.04
3570.00,100.03
3569.00,100.00
3568.00,99.99
3567.00,99.98
3566.00,100.00
3565.00,100.03
3564.00,100.06
3563.00,100.07
3562.00,100.06
3561.00,100.02
3560.00,99.98
3559.00,99.96
3558.00,99.95
3557.00,99.95
3556.00,99.97
3555.00,99.99
3554.00,100.00
3553.00,99.99
3552.00,99.97
3551.00,99.96
3550.00,99.95
3549.00,99.96
3548.00,99.96
3547.00,99.94
3546.00,99.92
3545.00,99.90
3544.00,99.89
3543.00,99.89
3542.00,99.91
3541.00,99.92
3540.00,99.93
3539.00,99.92
3538.00,99.91
3537.00,99.91
3536.00,99.91
3535.00,99.93
3534.00,99.94
3533.00,99.94
3532.00,99.92
3531.00,99.90
3530.00,99.88
3529.00,99.86
3528.00,99.84
3527.00,99.83
3526.00,99.82
3525.00,99.82
3524.00,99.84
3523.00,99.86
3522.00,99.89
3521.00,99.90
3520.00,99.91
3519.00,99.90
3518.00,99.88
3517.00,99.86
3516.00,99.83
3515.00,99.81
3514.00,99.79
3513.00,99.78
3512.00,99.77
3511.00,99.77
3510.00,99.78
3509.00,99.79
3508.00,99.80
3507.00,99.80
3506.00,99.80
3505.00,99.79
3504.00,99.78
3503.00,99.76
3502.00,99.72
3501.00,99.69
3500.00,99.68
3499.00,99.67
3498.00,99.69
3497.00,99.70
3496.00,99.72
3495.00,99.72
3494.00,99.72
3493.00,99.71
3492.00,99.70
3491.00,99.69
3490.00,99.68
3489.00,99.69
3488.00,99.69
3487.00,99.69
3486.00,99.68
3485.00,99.66
3484.00,99.66
3483.00,99.68
3482.00,99.71
3481.00,99.73
3480.00,99.72
3479.00,99.69
3478.00,99.67
3477.00,99.67
3476.00,99.69
3475.00,99.70
3474.00,99.70
3473.00,99.68
3472.00,99.67
3471.00,99.66
3470.00,99.67
3469.00,99.68
3468.00,99.69
3467.00,99.67
3466.00,99.65
3465.00,99.63
3464.00,99.62
3463.00,99.61
3462.00,99.60
3461.00,99.58
3460.00,99.57
3459.00,99.56
3458.00,99.55
3457.00,99.55
3456.00,99.56
3455.00,99.56
3454.00,99.57
3453.00,99.56
3452.00,99.55
3451.00,99.53
3450.00,99.52
3449.00,99.51
3448.00,99.50
3447.00,99.48
3446.00,99.46
3445.00,99.45
3444.00,99.45
3443.00,99.45
3442.00,99.46
3441.00,99.48
3440.00,99.49
3439.00,99.49
3438.00,99.48
3437.00,99.47
3436.00,99.47
3435.00,99.47
3434.00,99.47
3433.00,99.47
3432.00,99.47
3431.00,99.47
3430.00,99.47
3429.00,99.46
3428.00,99.44
3427.00,99.43
3426.00,99.43
3425.00,99.45
3424.00,99.47
3423.00,99.48
3422.00,99.48
3421.00,99.48
3420.00,99.47
3419.00,99.46
3418.00,99.45
3417.00,99.43
3416.00,99.42
3415.00,99.41
3414.00,99.40
3413.00,99.40
3412.00,99.40
3411.00,99.39
3410.00,99.39
3409.00,99.39
3408.00,99.40
3407.00,99.41
3406.00,99.42
3405.00,99.42
3404.00,99.40
3403.00,99.37
3402.00,99.34
3401.00,99.31
3400.00,99.31
3399.00,99.31
3398.00,99.33
3397.00,99.34
3396.00,99.36
3395.00,99.38
3394.00,99.37
3393.00,99.35
3392.00,99.32
3391.00,99.30
3390.00,99.28
3389.00,99.28
3388.00,99.29
3387.00,99.31
3386.00,99.33
3385.00,99.33
3384.00,99.33
3383.00,99.32
3382.00,99.30
3381.00,99.29
3380.00,99.29
3379.00,99.29
3378.00,99.30
3377.00,99.31
3376.00,99.32
3375.00,99.32
3374.00,99.31
3373.00,99.29
3372.00,99.26
3371.00,99.23
3370.00,99.21
3369.00,99.21
3368.00,99.20
3367.00,99.20
3366.00,99.20
3365.00,99.20
3364.00,99.20
3363.00,99.20
3362.00,99.19
3361.00,99.19
3360.00,99.19
3359.00,99.19
3358.00,99.21
3357.00,99.23
3356.00,99.25
3355.00,99.25
3354.00,99.26
3353.00,99.25
3352.00,99.23
3351.00,99.20
3350.00,99.18
3349.00,99.18
3348.00,99.19
3347.00,99.20
3346.00,99.21
3345.00,99.20
3344.00,99.19
3343.00,99.17
3342.00,99.16
3341.00,99.16
3340.00,99.16
3339.00,99.16
3338.00,99.16
3337.00,99.17
3336.00,99.19
3335.00,99.19
3334.00,99.18
3333.00,99.16
3332.00,99.15
3331.00,99.13
3330.00,99.13
3329.00,99.13
3328.00,99.13
3327.00,99.13
3326.00,99.12
3325.00,99.12
3324.00,99.12
3323.00,99.12
3322.00,99.13
3321.00,99.14
3320.00,99.14
3319.00,99.15
3318.00,99.17
3317.00,99.20
3316.00,99.23
3315.00,99.25
3314.00,99.26
3313.00,99.26
3312.00,99.25
3311.00,99.22
3310.00,99.19
3309.00,99.17
3308.00,99.16
3307.00,99.16
3306.00,99.16
3305.00,99.16
3304.00,99.16
3303.00,99.16
3302.00,99.17
3301.00,99.17
3300.00,99.17
3299.00,99.16
3298.00,99.15
3297.00,99.15
3296.00,99.15
3295.00,99.15
3294.00,99.16
3293.00,99.17
3292.00,99.20
3291.00,99.22
3290.00,99.21
3289.00,99.19
3288.00,99.15
3287.00,99.12
3286.00,99.11
3285.00,99.12
3284.00,99.15
3283.00,99.17
3282.00,99.17
3281.00,99.16
3280.00,99.14
3279.00,99.14
3278.00,99.14
3277.00,99.15
3276.00,99.16
3275.00,99.15
3274.00,99.14
3273.00,99.13
3272.00,99.13
3271.00,99.14
3270.00,99.15
3269.00,99.15
3268.00,99.14
3267.00,99.14
3266.00,99.13
3265.00,99.13
3264.00,99.13
3263.00,99.13
3262.00,99.14
3261.00,99.15
3260.00,99.17
3259.00,99.19
3258.00,99.21
3257.00,99.24
3256.00,99.26
3255.00,99.27
3254.00,99.27
3253.00,99.27
3252.00,99.27
3251.00,99.26
3250.00,99.26
3249.00,99.25
3248.00,99.25
3247.00,99.24
3246.00,99.23
3245.00,99.22
3244.00,99.22
3243.00,99.24
3242.00,99.26
3241.00,99.27
3240.00,99.27
3239.00,99.25
3238.00,99.23
3237.00,99.23
3236.00,99.23
3235.00,99.25
3234.00,99.27
3233.00,99.28
3232.00,99.29
3231.00,99.29
3230.00,99.29
3229.00,99.30
3228.00,99.30
3227.00,99.31
3226.00,99.31
3225.00,99.31
3224.00,99.30
3223.00,99.29
3222.00,99.29
3221.00,99.28
3220.00,99.27
3219.00,99.24
3218.00,99.22
3217.00,99.20
3216.00,99.21
3215.00,99.22
3214.00,99.24
3213.00,99.24
3212.00,99.24
3211.00,99.25
3210.00,99.26
3209.00,99.27
3208.00,99.27
3207.00,99.26
3206.00,99.24
3205.00,99.24
3204.00,99.25
3203.00,99.25
3202.00,99.25
3201.00,99.23
3200.00,99.21
3199.00,99.18
3198.00,99.16
3197.00,99.16
3196.00,99.16
3195.00,99.18
3194.00,99.19
3193.00,99.21
3192.00,99.22
3191.00,99.25
3190.00,99.27
3189.00,99.29
3188.00,99.30
3187.00,99.29
3186.00,99.29
3185.00,99.29
3184.00,99.30
3183.00,99.29
3182.00,99.27
3181.00,99.26
3180.00,99.26
3179.00,99.28
3178.00,99.30
3177.00,99.30
3176.00,99.29
3175.00,99.29
3174.00,99.30
3173.00,99.32
3172.00,99.33
3171.00,99.33
3170.00,99.31
3169.00,99.29
3168.00,99.28
3167.00,99.29
3166.00,99.30
3165.00,99.31
3164.00,99.31
3163.00,99.30
3162.00,99.29
3161.00,99.29
3160.00,99.30
3159.00,99.32
3158.00,99.34
3157.00,99.37
3156.00,99.39
3155.00,99.42
3154.00,99.43
3153.00,99.42
3152.00,99.39
3151.00,99.36
3150.00,99.34
3149.00,99.34
3148.00,99.35
3147.00,99.35
3146.00,99.35
3145.00,99.34
3144.00,99.34
3143.00,99.34
3142.00,99.35
3141.00,99.38
3140.00,99.41
3139.00,99.43
3138.00,99.43
3137.00,99.42
3136.00,99.41
3135.00,99.41
3134.00,99.41
3133.00,99.41
3132.00,99.41
3131.00,99.41
3130.00,99.42
3129.00,99.42
3128.00,99.42
3127.00,99.42
3126.00,99.42
3125.00,99.42
3124.00,99.43
3123.00,99.45
3122.00,99.46
3121.00,99.46
3120.00,99.46
3119.00,99.46
3118.00,99.47
3117.00,99.48
3116.00,99.48
3115.00,99.48
3114.00,99.46
3113.00,99.44
3112.00,99.43
3111.00,99.42
3110.00,99.42
3109.00,99.43
3108.00,99.44
3107.00,99.46
3106.00,99.47
3105.00,99.47
3104.00,99.48
3103.00,99.49
3102.00,99.50
3101.00,99.51
3100.00,99.53
3099.00,99.54
3098.00,99.57
3097.00,99.58
3096.00,99.59
3095.00,99.58
3094.00,99.56
3093.00,99.53
3092.00,99.52
3091.00,99.51
3090.00,99.50
3089.00,99.50
3088.00,99.51
3087.00,99.52
3086.00,99.53
3085.00,99.54
3084.00,99.54
3083.00,99.54
3082.00,99.53
3081.00,99.54
3080.00,99.56
3079.00,99.58
3078.00,99.60
3077.00,99.61
3076.00,99.59
3075.00,99.56
3074.00,99.53
3073.00,99.51
3072.00,99.51
3071.00,99.53
3070.00,99.55
3069.00,99.57
3068.00,99.57
3067.00,99.57
3066.00,99.58
3065.00,99.58
3064.00,99.57
3063.00,99.56
3062.00,99.56
3061.00,99.56
3060.00,99.57
3059.00,99.56
3058.00,99.55
3057.00,99.54
3056.00,99.54
3055.00,99.55
3054.00,99.56
3053.00,99.56
3052.00,99.56
3051.00,99.55
3050.00,99.55
3049.00,99.55
3048.00,99.56
3047.00,99.58
3046.00,99.58
3045.00,99.58
3044.00,99.57
3043.00,99.56
3042.00,99.55
3041.00,99.54
3040.00,99.54
3039.00,99.55
3038.00,99.55
3037.00,99.54
3036.00,99.53
3035.00,99.53
3034.00,99.52
3033.00,99.51
3032.00,99.51
3031.00,99.52
3030.00,99.52
3029.00,99.51
3028.00,99.50
3027.00,99.48
3026.00,99.46
3025.00,99.46
3024.00,99.45
3023.00,99.45
3022.00,99.44
3021.00,99.42
3020.00,99.40
3019.00,99.38
3018.00,99.38
3017.00,99.38
3016.00,99.38
3015.00,99.37
3014.00,99.34
3013.00,99.30
3012.00,99.26
3011.00,99.22
3010.00,99.19
3009.00,99.16
3008.00,99.14
3007.00,99.12
3006.00,99.11
3005.00,99.10
3004.00,99.07
3003.00,99.03
3002.00,98.97
3001.00,98.91
3000.00,98.84
2999.00,98.77
2998.00,98.71
2997.00,98.64
2996.00,98.57
2995.00,98.49
2994.00,98.41
2993.00,98.31
2992.00,98.20
2991.00,98.09
2990.00,97.97
2989.00,97.84
2988.00,97.69
2987.00,97.52
2986.00,97.34
2985.00,97.13
2984.00,96.88
2983.00,96.60
2982.00,96.29
2981.00,95.94
2980.00,95.56
2979.00,95.14
2978.00,94.67
2977.00,94.14
2976.00,93.54
2975.00,92.86
2974.00,92.12
2973.00,91.29
2972.00,90.36
2971.00,89.33
2970.00,88.21
2969.00,86.99
2968.00,85.67
2967.00,84.26
2966.00,82.79
2965.00,81.29
2964.00,79.82
2963.00,78.44
2962.00,77.20
2961.00,76.15
2960.00,75.32
2959.00,74.71
2958.00,74.26
2957.00,73.92
2956.00,73.62
2955.00,73.32
2954.00,73.02
2953.00,72.77
2952.00,72.65
2951.00,72.73
2950.00,73.10
2949.00,73.81
2948.00,74.85
2947.00,76.19
2946.00,77.74
2945.00,79.38
2944.00,80.97
2943.00,82.38
2942.00,83.54
2941.00,84.38
2940.00,84.90
2939.00,85.14
2938.00,85.12
2937.00,84.88
2936.00,84.44
2935.00,83.80
2934.00,82.99
2933.00,82.04
2932.00,80.99
2931.00,79.89
2930.00,78.77
2929.00,77.66
2928.00,76.59
2927.00,75.58
2926.00,74.65
2925.00,73.77
2924.00,72.92
2923.00,72.10
2922.00,71.31
2921.00,70.59
2920.00,69.97
2919.00,69.53
2918.00,69.31
2917.00,69.31
2916.00,69.53
2915.00,69.94
2914.00,70.45
2913.00,71.03
2912.00,71.60
2911.00,72.16
2910.00,72.69
2909.00,73.21
2908.00,73.74
2907.00,74.29
2906.00,74.89
2905.00,75.55
2904.00,76.26
2903.00,77.00
2902.00,77.77
2901.00,78.56
2900.00,79.34
2899.00,80.10
2898.00,80.82
2897.00,81.49
2896.00,82.08
2895.00,82.61
2894.00,83.05
2893.00,83.41
2892.00,83.69
2891.00,83.89
2890.00,84.03
2889.00,84.11
2888.00,84.13
2887.00,84.10
2886.00,84.03
2885.00,83.91
2884.00,83.74
2883.00,83.52
2882.00,83.27
2881.00,83.00
2880.00,82.72
2879.00,82.48
2878.00,82.30
2877.00,82.21
2876.00,82.22
2875.00,82.28
2874.00,82.34
2873.00,82.35
2872.00,82.29
2871.00,82.15
2870.00,81.99
2869.00,81.85
2868.00,81.82
2867.00,82.00
2866.00,82.46
2865.00,83.24
2864.00,84.28
2863.00,85.49
2862.00,86.75
2861.00,87.94
2860.00,89.00
2859.00,89.87
2858.00,90.55
2857.00,91.04
2856.00,91.37
2855.00,91.55
2854.00,91.61
2853.00,91.54
2852.00,91.35
2851.00,91.05
2850.00,90.64
2849.00,90.10
2848.00,89.44
2847.00,88.68
2846.00,87.81
2845.00,86.87
2844.00,85.88
2843.00,84.85
2842.00,83.84
2841.00,82.93
2840.00,82.21
2839.00,81.77
2838.00,81.68
2837.00,81.98
2836.00,82.67
2835.00,83.68
2834.00,84.94
2833.00,86.32
2832.00,87.73
2831.00,89.04
2830.00,90.21
2829.00,91.19
2828.00,91.99
2827.00,92.64
2826.00,93.19
2825.00,93.64
2824.00,94.02
2823.00,94.33
2822.00,94.59
2821.00,94.82
2820.00,95.04
2819.00,95.24
2818.00,95.43
2817.00,95.60
2816.00,95.74
2815.00,95.85
2814.00,95.95
2813.00,96.04
2812.00,96.12
2811.00,96.20
2810.00,96.29
2809.00,96.37
2808.00,96.45
2807.00,96.53
2806.00,96.61
2805.00,96.71
2804.00,96.81
2803.00,96.91
2802.00,97.00
2801.00,97.07
2800.00,97.15
2799.00,97.22
2798.00,97.27
2797.00,97.31
2796.00,97.33
2795.00,97.36
2794.00,97.41
2793.00,97.48
2792.00,97.54
2791.00,97.59
2790.00,97.63
2789.00,97.67
2788.00,97.72
2787.00,97.78
2786.00,97.85
2785.00,97.91
2784.00,97.97
2783.00,98.01
2782.00,98.04
2781.00,98.07
2780.00,98.11
2779.00,98.16
2778.00,98.21
2777.00,98.25
2776.00,98.27
2775.00,98.28
2774.00,98.29
2773.00,98.30
2772.00,98.32
2771.00,98.33
2770.00,98.33
2769.00,98.33
2768.00,98.32
2767.00,98.32
2766.00,98.33
2765.00,98.35
2764.00,98.37
2763.00,98.40
2762.00,98.42
2761.00,98.44
2760.00,98.45
2759.00,98.46
2758.00,98.47
2757.00,98.48
2756.00,98.48
2755.00,98.49
2754.00,98.49
2753.00,98.49
2752.00,98.48
2751.00,98.47
2750.00,98.46
2749.00,98.46
2748.00,98.46
2747.00,98.46
2746.00,98.46
2745.00,98.45
2744.00,98.44
2743.00,98.44
2742.00,98.42
2741.00,98.40
2740.00,98.37
2739.00,98.34
2738.00,98.31
2737.00,98.28
2736.00,98.26
2735.00,98.24
2734.00,98.22
2733.00,98.20
2732.00,98.17
2731.00,98.15
2730.00,98.12
2729.00,98.09
2728.00,98.06
2727.00,98.01
2726.00,97.95
2725.00,97.89
2724.00,97.86
2723.00,97.86
2722.00,97.88
2721.00,97.93
2720.00,97.98
2719.00,98.04
2718.00,98.10
2717.00,98.14
2716.00,98.17
2715.00,98.21
2714.00,98.26
2713.00,98.32
2712.00,98.36
2711.00,98.40
2710.00,98.43
2709.00,98.45
2708.00,98.47
2707.00,98.49
2706.00,98.50
2705.00,98.51
2704.00,98.53
2703.00,98.55
2702.00,98.57
2701.00,98.58
2700.00,98.56
2699.00,98.55
2698.00,98.55
2697.00,98.57
2696.00,98.60
2695.00,98.62
2694.00,98.63
2693.00,98.63
2692.00,98.62
2691.00,98.61
2690.00,98.61
2689.00,98.61
2688.00,98.61
2687.00,98.61
2686.00,98.61
2685.00,98.60
2684.00,98.61
2683.00,98.61
2682.00,98.61
2681.00,98.60
2680.00,98.58
2679.00,98.57
2678.00,98.57
2677.00,98.57
2676.00,98.58
2675.00,98.58
2674.00,98.58
2673.00,98.58
2672.00,98.58
2671.00,98.58
2670.00,98.59
2669.00,98.61
2668.00,98.62
2667.00,98.62
2666.00,98.62
2665.00,98.61
2664.00,98.60
2663.00,98.59
2662.00,98.58
2661.00,98.57
2660.00,98.55
2659.00,98.54
2658.00,98.54
2657.00,98.55
2656.00,98.56
2655.00,98.56
2654.00,98.56
2653.00,98.54
2652.00,98.52
2651.00,98.50
2650.00,98.49
2649.00,98.48
2648.00,98.48
2647.00,98.49
2646.00,98.50
2645.00,98.51
2644.00,98.52
2643.00,98.52
2642.00,98.51
2641.00,98.50
2640.00,98.48
2639.00,98.46
2638.00,98.46
2637.00,98.46
2636.00,98.47
2635.00,98.46
2634.00,98.43
2633.00,98.40
2632.00,98.38
2631.00,98.36
2630.00,98.37
2629.00,98.39
2628.00,98.40
2627.00,98.40
2626.00,98.37
2625.00,98.34
2624.00,98.32
2623.00,98.31
2622.00,98.32
2621.00,98.32
2620.00,98.31
2619.00,98.31
2618.00,98.31
2617.00,98.30
2616.00,98.28
2615.00,98.26
2614.00,98.25
2613.00,98.24
2612.00,98.24
2611.00,98.25
2610.00,98.25
2609.00,98.24
2608.00,98.22
2607.00,98.22
2606.00,98.23
2605.00,98.25
2604.00,98.26
2603.00,98.27
2602.00,98.28
2601.00,98.28
2600.00,98.27
2599.00,98.26
2598.00,98.26
2597.00,98.27
2596.00,98.26
2595.00,98.24
2594.00,98.21
2593.00,98.18
2592.00,98.17
2591.00,98.17
2590.00,98.16
2589.00,98.14
2588.00,98.11
2587.00,98.10
2586.00,98.08
2585.00,98.06
2584.00,98.04
2583.00,98.02
2582.00,98.00
2581.00,97.99
2580.00,97.99
2579.00,97.99
2578.00,98.01
2577.00,98.03
2576.00,98.05
2575.00,98.07
2574.00,98.08
2573.00,98.10
2572.00,98.12
2571.00,98.14
2570.00,98.16
2569.00,98.17
2568.00,98.17
2567.00,98.16
2566.00,98.17
2565.00,98.19
2564.00,98.20
2563.00,98.21
2562.00,98.20
2561.00,98.18
2560.00,98.17
2559.00,98.17
2558.00,98.19
2557.00,98.20
2556.00,98.23
2555.00,98.25
2554.00,98.26
2553.00,98.26
2552.00,98.26
2551.00,98.25
2550.00,98.25
2549.00,98.25
2548.00,98.26
2547.00,98.27
2546.00,98.27
2545.00,98.27
2544.00,98.26
2543.00,98.24
2542.00,98.22
2541.00,98.20
2540.00,98.19
2539.00,98.18
2538.00,98.18
2537.00,98.18
2536.00,98.20
2535.00,98.22
2534.00,98.24
2533.00,98.24
2532.00,98.23
2531.00,98.23
2530.00,98.24
2529.00,98.24
2528.00,98.24
2527.00,98.23
2526.00,98.23
2525.00,98.24
2524.00,98.26
2523.00,98.26
2522.00,98.25
2521.00,98.24
2520.00,98.23
2519.00,98.23
2518.00,98.24
2517.00,98.25
2516.00,98.25
2515.00,98.26
2514.00,98.27
2513.00,98.27
2512.00,98.28
2511.00,98.28
2510.00,98.29
2509.00,98.30
2508.00,98.31
2507.00,98.32
2506.00,98.33
2505.00,98.34
2504.00,98.34
2503.00,98.36
2502.00,98.37
2501.00,98.39
2500.00,98.41
2499.00,98.43
2498.00,98.44
2497.00,98.43
2496.00,98.41
2495.00,98.39
2494.00,98.38
2493.00,98.36
2492.00,98.34
2491.00,98.32
2490.00,98.31
2489.00,98.31
2488.00,98.32
2487.00,98.33
2486.00,98.33
2485.00,98.34
2484.00,98.34
2483.00,98.34
2482.00,98.32
2481.00,98.31
2480.00,98.30
2479.00,98.30
2478.00,98.31
2477.00,98.32
2476.00,98.33
2475.00,98.34
2474.00,98.35
2473.00,98.34
2472.00,98.34
2471.00,98.33
2470.00,98.33
2469.00,98.32
2468.00,98.32
2467.00,98.32
2466.00,98.33
2465.00,98.34
2464.00,98.35
2463.00,98.36
2462.00,98.38
2461.00,98.39
2460.00,98.39
2459.00,98.38
2458.00,98.36
2457.00,98.33
2456.00,98.31
2455.00,98.30
2454.00,98.29
2453.00,98.28
2452.00,98.28
2451.00,98.29
2450.00,98.30
2449.00,98.31
2448.00,98.31
2447.00,98.31
2446.00,98.30
2445.00,98.30
2444.00,98.29
2443.00,98.30
2442.00,98.30
2441.00,98.31
2440.00,98.31
2439.00,98.32
2438.00,98.32
2437.00,98.33
2436.00,98.34
2435.00,98.36
2434.00,98.37
2433.00,98.37
2432.00,98.36
2431.00,98.35
2430.00,98.35
2429.00,98.35
2428.00,98.33
2427.00,98.29
2426.00,98.25
2425.00,98.24
2424.00,98.27
2423.00,98.31
2422.00,98.35
2421.00,98.37
2420.00,98.37
2419.00,98.35
2418.00,98.33
2417.00,98.32
2416.00,98.34
2415.00,98.36
2414.00,98.38
2413.00,98.38
2412.00,98.37
2411.00,98.37
2410.00,98.37
2409.00,98.38
2408.00,98.39
2407.00,98.40
2406.00,98.41
2405.00,98.43
2404.00,98.44
2403.00,98.46
2402.00,98.47
2401.00,98.48
2400.00,98.48
2399.00,98.50
2398.00,98.51
2397.00,98.51
2396.00,98.50
2395.00,98.50
2394.00,98.51
2393.00,98.52
2392.00,98.53
2391.00,98.54
2390.00,98.55
2389.00,98.56
2388.00,98.56
2387.00,98.56
2386.00,98.57
2385.00,98.59
2384.00,98.61
2383.00,98.63
2382.00,98.65
2381.00,98.67
2380.00,98.68
2379.00,98.71
2378.00,98.74
2377.00,98.78
2376.00,98.83
2375.00,98.87
2374.00,98.90
2373.00,98.90
2372.00,98.87
2371.00,98.82
2370.00,98.78
2369.00,98.77
2368.00,98.78
2367.00,98.81
2366.00,98.84
2365.00,98.85
2364.00,98.81
2363.00,98.74
2362.00,98.69
2361.00,98.69
2360.00,98.72
2359.00,98.76
2358.00,98.79
2357.00,98.81
2356.00,98.83
2355.00,98.86
2354.00,98.88
2353.00,98.87
2352.00,98.86
2351.00,98.87
2350.00,98.93
2349.00,99.01
2348.00,99.09
2347.00,99.13
2346.00,99.12
2345.00,99.05
2344.00,98.95
2343.00,98.86
2342.00,98.80
2341.00,98.78
2340.00,98.77
2339.00,98.78
2338.00,98.79
2337.00,98.78
2336.00,98.77
2335.00,98.74
2334.00,98.71
2333.00,98.71
2332.00,98.72
2331.00,98.72
2330.00,98.70
2329.00,98.66
2328.00,98.62
2327.00,98.57
2326.00,98.51
2325.00,98.44
2324.00,98.38
2323.00,98.36
2322.00,98.36
2321.00,98.38
2320.00,98.40
2319.00,98.41
2318.00,98.42
2317.00,98.42
2316.00,98.42
2315.00,98.41
2314.00,98.40
2313.00,98.38
2312.00,98.35
2311.00,98.33
2310.00,98.31
2309.00,98.30
2308.00,98.28
2307.00,98.27
2306.00,98.27
2305.00,98.26
2304.00,98.24
2303.00,98.23
2302.00,98.21
2301.00,98.21
2300.00,98.19
2299.00,98.16
2298.00,98.12
2297.00,98.08
2296.00,98.05
2295.00,98.03
2294.00,98.01
2293.00,97.98
2292.00,97.96
2291.00,97.93
2290.00,97.90
2289.00,97.86
2288.00,97.82
2287.00,97.78
2286.00,97.75
2285.00,97.74
2284.00,97.75
2283.00,97.75
2282.00,97.76
2281.00,97.77
2280.00,97.77
2279.00,97.76
2278.00,97.74
2277.00,97.71
2276.00,97.68
2275.00,97.65
2274.00,97.64
2273.00,97.63
2272.00,97.62
2271.00,97.61
2270.00,97.63
2269.00,97.66
2268.00,97.67
2267.00,97.65
2266.00,97.61
2265.00,97.56
2264.00,97.51
2263.00,97.47
2262.00,97.43
2261.00,97.38
2260.00,97.32
2259.00,97.28
2258.00,97.27
2257.00,97.30
2256.00,97.36
2255.00,97.42
2254.00,97.45
2253.00,97.43
2252.00,97.35
2251.00,97.25
2250.00,97.18
2249.00,97.16
2248.00,97.18
2247.00,97.21
2246.00,97.21
2245.00,97.18
2244.00,97.14
2243.00,97.11
2242.00,97.09
2241.00,97.07
2240.00,97.05
2239.00,97.01
2238.00,96.98
2237.00,96.97
2236.00,97.00
2235.00,97.04
2234.00,97.06
2233.00,97.06
2232.00,97.06
2231.00,97.08
2230.00,97.10
2229.00,97.11
2228.00,97.09
2227.00,97.05
2226.00,96.99
2225.00,96.92
2224.00,96.86
2223.00,96.83
2222.00,96.83
2221.00,96.85
2220.00,96.86
2219.00,96.85
2218.00,96.83
2217.00,96.81
2216.00,96.80
2215.00,96.78
2214.00,96.74
2213.00,96.68
2212.00,96.64
2211.00,96.63
2210.00,96.65
2209.00,96.66
2208.00,96.66
2207.00,96.66
2206.00,96.66
2205.00,96.64
2204.00,96.63
2203.00,96.61
2202.00,96.61
2201.00,96.58
2200.00,96.52
2199.00,96.45
2198.00,96.40
2197.00,96.39
2196.00,96.42
2195.00,96.48
2194.00,96.53
2193.00,96.55
2192.00,96.52
2191.00,96.47
2190.00,96.39
2189.00,96.30
2188.00,96.20
2187.00,96.12
2186.00,96.07
2185.00,96.05
2184.00,96.05
2183.00,96.04
2182.00,96.06
2181.00,96.09
2180.00,96.14
2179.00,96.18
2178.00,96.21
2177.00,96.22
2176.00,96.22
2175.00,96.20
2174.00,96.17
2173.00,96.11
2172.00,96.01
2171.00,95.90
2170.00,95.81
2169.00,95.78
2168.00,95.78
2167.00,95.78
2166.00,95.74
2165.00,95.65
2164.00,95.53
2163.00,95.42
2162.00,95.33
2161.00,95.31
2160.00,95.40
2159.00,95.59
2158.00,95.84
2157.00,96.08
2156.00,96.28
2155.00,96.40
2154.00,96.45
2153.00,96.43
2152.00,96.41
2151.00,96.41
2150.00,96.47
2149.00,96.56
2148.00,96.65
2147.00,96.73
2146.00,96.78
2145.00,96.81
2144.00,96.82
2143.00,96.82
2142.00,96.83
2141.00,96.82
2140.00,96.82
2139.00,96.83
2138.00,96.87
2137.00,96.94
2136.00,97.04
2135.00,97.16
2134.00,97.25
2133.00,97.32
2132.00,97.34
2131.00,97.34
2130.00,97.33
2129.00,97.34
2128.00,97.36
2127.00,97.38
2126.00,97.39
2125.00,97.41
2124.00,97.41
2123.00,97.42
2122.00,97.44
2121.00,97.46
2120.00,97.48
2119.00,97.48
2118.00,97.45
2117.00,97.41
2116.00,97.37
2115.00,97.35
2114.00,97.35
2113.00,97.36
2112.00,97.38
2111.00,97.39
2110.00,97.38
2109.00,97.34
2108.00,97.29
2107.00,97.23
2106.00,97.21
2105.00,97.22
2104.00,97.27
2103.00,97.34
2102.00,97.39
2101.00,97.40
2100.00,97.37
2099.00,97.33
2098.00,97.31
2097.00,97.34
2096.00,97.41
2095.00,97.46
2094.00,97.47
2093.00,97.45
2092.00,97.42
2091.00,97.38
2090.00,97.35
2089.00,97.33
2088.00,97.32
2087.00,97.32
2086.00,97.32
2085.00,97.30
2084.00,97.27
2083.00,97.25
2082.00,97.24
2081.00,97.23
2080.00,97.23
2079.00,97.24
2078.00,97.24
2077.00,97.23
2076.00,97.21
2075.00,97.16
2074.00,97.10
2073.00,97.06
2072.00,97.05
2071.00,97.07
2070.00,97.08
2069.00,97.08
2068.00,97.06
2067.00,97.05
2066.00,97.04
2065.00,97.05
2064.00,97.07
2063.00,97.09
2062.00,97.12
2061.00,97.11
2060.00,97.08
2059.00,97.05
2058.00,97.03
2057.00,97.02
2056.00,97.01
2055.00,96.95
2054.00,96.84
2053.00,96.70
2052.00,96.57
2051.00,96.48
2050.00,96.43
2049.00,96.43
2048.00,96.44
2047.00,96.45
2046.00,96.45
2045.00,96.44
2044.00,96.41
2043.00,96.37
2042.00,96.30
2041.00,96.23
2040.00,96.19
2039.00,96.17
2038.00,96.13
2037.00,96.08
2036.00,96.02
2035.00,96.01
2034.00,96.06
2033.00,96.12
2032.00,96.16
2031.00,96.16
2030.00,96.15
2029.00,96.12
2028.00,96.07
2027.00,96.00
2026.00,95.97
2025.00,95.98
2024.00,96.04
2023.00,96.10
2022.00,96.14
2021.00,96.17
2020.00,96.21
2019.00,96.27
2018.00,96.31
2017.00,96.28
2016.00,96.22
2015.00,96.15
2014.00,96.11
2013.00,96.11
2012.00,96.13
2011.00,96.16
2010.00,96.19
2009.00,96.25
2008.00,96.33
2007.00,96.40
2006.00,96.45
2005.00,96.47
2004.00,96.49
2003.00,96.52
2002.00,96.56
2001.00,96.57
2000.00,96.54
1999.00,96.49
1998.00,96.44
1997.00,96.43
1996.00,96.47
1995.00,96.53
1994.00,96.57
1993.00,96.59
1992.00,96.59
1991.00,96.57
1990.00,96.55
1989.00,96.52
1988.00,96.46
1987.00,96.38
1986.00,96.31
1985.00,96.26
1984.00,96.23
1983.00,96.18
1982.00,96.10
1981.00,96.00
1980.00,95.94
1979.00,95.93
1978.00,95.95
1977.00,95.99
1976.00,96.02
1975.00,96.09
1974.00,96.18
1973.00,96.26
1972.00,96.30
1971.00,96.34
1970.00,96.39
1969.00,96.45
1968.00,96.50
1967.00,96.51
1966.00,96.50
1965.00,96.48
1964.00,96.49
1963.00,96.53
1962.00,96.61
1961.00,96.70
1960.00,96.78
1959.00,96.88
1958.00,96.97
1957.00,97.02
1956.00,97.01
1955.00,96.96
1954.00,96.92
1953.00,96.93
1952.00,96.98
1951.00,97.03
1950.00,97.05
1949.00,97.04
1948.00,97.03
1947.00,97.04
1946.00,97.07
1945.00,97.12
1944.00,97.16
1943.00,97.17
1942.00,97.17
1941.00,97.18
1940.00,97.22
1939.00,97.30
1938.00,97.38
1937.00,97.41
1936.00,97.38
1935.00,97.35
1934.00,97.35
1933.00,97.40
1932.00,97.46
1931.00,97.48
1930.00,97.48
1929.00,97.48
1928.00,97.48
1927.00,97.49
1926.00,97.50
1925.00,97.50
1924.00,97.49
1923.00,97.50
1922.00,97.50
1921.00,97.50
1920.00,97.53
1919.00,97.59
1918.00,97.66
1917.00,97.69
1916.00,97.70
1915.00,97.69
1914.00,97.69
1913.00,97.68
1912.00,97.67
1911.00,97.68
1910.00,97.71
1909.00,97.76
1908.00,97.78
1907.00,97.79
1906.00,97.77
1905.00,97.75
1904.00,97.75
1903.00,97.76
1902.00,97.78
1901.00,97.79
1900.00,97.81
1899.00,97.82
1898.00,97.84
1897.00,97.84
1896.00,97.83
1895.00,97.81
1894.00,97.78
1893.00,97.77
1892.00,97.77
1891.00,97.79
1890.00,97.82
1889.00,97.83
1888.00,97.84
1887.00,97.86
1886.00,97.89
1885.00,97.92
1884.00,97.93
1883.00,97.93
1882.00,97.92
1881.00,97.90
1880.00,97.89
1879.00,97.89
1878.00,97.90
1877.00,97.92
1876.00,97.93
1875.00,97.94
1874.00,97.95
1873.00,97.96
1872.00,97.97
1871.00,97.98
1870.00,97.98
1869.00,97.98
1868.00,97.98
1867.00,97.97
1866.00,97.96
1865.00,97.95
1864.00,97.96
1863.00,97.97
1862.00,97.98
1861.00,97.98
1860.00,97.98
1859.00,97.99
1858.00,98.00
1857.00,98.00
1856.00,97.99
1855.00,97.99
1854.00,97.99
1853.00,98.00
1852.00,98.01
1851.00,98.03
1850.00,98.05
1849.00,98.05
1848.00,98.05
1847.00,98.06
1846.00,98.07
1845.00,98.08
1844.00,98.06
1843.00,98.05
1842.00,98.05
1841.00,98.07
1840.00,98.10
1839.00,98.12
1838.00,98.13
1837.00,98.12
1836.00,98.10
1835.00,98.08
1834.00,98.09
1833.00,98.10
1832.00,98.11
1831.00,98.12
1830.00,98.11
1829.00,98.09
1828.00,98.07
1827.00,98.06
1826.00,98.06
1825.00,98.08
1824.00,98.11
1823.00,98.15
1822.00,98.16
1821.00,98.16
1820.00,98.15
1819.00,98.16
1818.00,98.18
1817.00,98.20
1816.00,98.21
1815.00,98.20
1814.00,98.19
1813.00,98.18
1812.00,98.17
1811.00,98.19
1810.00,98.21
1809.00,98.22
1808.00,98.22
1807.00,98.22
1806.00,98.22
1805.00,98.22
1804.00,98.22
1803.00,98.22
1802.00,98.21
1801.00,98.19
1800.00,98.16
1799.00,98.16
1798.00,98.18
1797.00,98.21
1796.00,98.24
1795.00,98.26
1794.00,98.27
1793.00,98.27
1792.00,98.28
1791.00,98.29
1790.00,98.28
1789.00,98.28
1788.00,98.27
1787.00,98.26
1786.00,98.26
1785.00,98.26
1784.00,98.26
1783.00,98.26
1782.00,98.25
1781.00,98.23
1780.00,98.21
1779.00,98.21
1778.00,98.22
1777.00,98.23
1776.00,98.22
1775.00,98.22
1774.00,98.22
1773.00,98.23
1772.00,98.23
1771.00,98.23
1770.00,98.21
1769.00,98.19
1768.00,98.16
1767.00,98.15
1766.00,98.14
1765.00,98.14
1764.00,98.14
1763.00,98.16
1762.00,98.16
1761.00,98.15
1760.00,98.13
1759.00,98.10
1758.00,98.08
1757.00,98.05
1756.00,98.03
1755.00,98.01
1754.00,98.00
1753.00,97.98
1752.00,97.97
1751.00,97.99
1750.00,98.01
1749.00,98.02
1748.00,98.01
1747.00,97.99
1746.00,97.97
1745.00,97.96
1744.00,97.96
1743.00,97.95
1742.00,97.94
1741.00,97.93
1740.00,97.92
1739.00,97.92
1738.00,97.92
1737.00,97.93
1736.00,97.93
1735.00,97.94
1734.00,97.93
1733.00,97.92
1732.00,97.91
1731.00,97.90
1730.00,97.90
1729.00,97.91
1728.00,97.91
1727.00,97.92
1726.00,97.92
1725.00,97.93
1724.00,97.92
1723.00,97.93
1722.00,97.93
1721.00,97.94
1720.00,97.95
1719.00,97.94
1718.00,97.91
1717.00,97.88
1716.00,97.85
1715.00,97.85
1714.00,97.85
1713.00,97.85
1712.00,97.85
1711.00,97.86
1710.00,97.87
1709.00,97.87
1708.00,97.87
1707.00,97.86
1706.00,97.84
1705.00,97.81
1704.00,97.80
1703.00,97.79
1702.00,97.78
1701.00,97.75
1700.00,97.70
1699.00,97.67
1698.00,97.67
1697.00,97.67
1696.00,97.67
1695.00,97.68
1694.00,97.69
1693.00,97.70
1692.00,97.71
1691.00,97.72
1690.00,97.72
1689.00,97.73
1688.00,97.74
1687.00,97.75
1686.00,97.76
1685.00,97.76
1684.00,97.75
1683.00,97.76
1682.00,97.77
1681.00,97.77
1680.00,97.77
1679.00,97.76
1678.00,97.76
1677.00,97.75
1676.00,97.73
1675.00,97.71
1674.00,97.70
1673.00,97.71
1672.00,97.73
1671.00,97.74
1670.00,97.74
1669.00,97.74
1668.00,97.73
1667.00,97.73
1666.00,97.72
1665.00,97.72
1664.00,97.72
1663.00,97.72
1662.00,97.71
1661.00,97.69
1660.00,97.68
1659.00,97.67
1658.00,97.67
1657.00,97.65
1656.00,97.63
1655.00,97.62
1654.00,97.63
1653.00,97.64
1652.00,97.63
1651.00,97.63
1650.00,97.63
1649.00,97.63
1648.00,97.63
1647.00,97.64
1646.00,97.65
1645.00,97.65
1644.00,97.66
1643.00,97.67
1642.00,97.69
1641.00,97.71
1640.00,97.73
1639.00,97.75
1638.00,97.76
1637.00,97.76
1636.00,97.74
1635.00,97.72
1634.00,97.71
1633.00,97.70
1632.00,97.69
1631.00,97.71
1630.00,97.73
1629.00,97.76
1628.00,97.78
1627.00,97.79
1626.00,97.79
1625.00,97.78
1624.00,97.78
1623.00,97.79
1622.00,97.81
1621.00,97.81
1620.00,97.80
1619.00,97.79
1618.00,97.79
1617.00,97.80
1616.00,97.80
1615.00,97.80
1614.00,97.80
1613.00,97.79
1612.00,97.79
1611.00,97.79
1610.00,97.78
1609.00,97.78
1608.00,97.79
1607.00,97.79
1606.00,97.80
1605.00,97.81
1604.00,97.82
1603.00,97.83
1602.00,97.82
1601.00,97.81
1600.00,97.80
1599.00,97.79
1598.00,97.79
1597.00,97.80
1596.00,97.81
1595.00,97.81
1594.00,97.81
1593.00,97.80
1592.00,97.79
1591.00,97.79
1590.00,97.79
1589.00,97.80
1588.00,97.81
1587.00,97.82
1586.00,97.84
1585.00,97.85
1584.00,97.85
1583.00,97.86
1582.00,97.86
1581.00,97.86
1580.00,97.85
1579.00,97.85
1578.00,97.85
1577.00,97.85
1576.00,97.85
1575.00,97.84
1574.00,97.83
1573.00,97.82
1572.00,97.82
1571.00,97.83
1570.00,97.85
1569.00,97.85
1568.00,97.84
1567.00,97.84
1566.00,97.85
1565.00,97.85
1564.00,97.85
1563.00,97.86
1562.00,97.85
1561.00,97.84
1560.00,97.82
1559.00,97.81
1558.00,97.82
1557.00,97.82
1556.00,97.81
1555.00,97.79
1554.00,97.76
1553.00,97.74
1552.00,97.72
1551.00,97.72
1550.00,97.72
1549.00,97.72
1548.00,97.72
1547.00,97.71
1546.00,97.71
1545.00,97.72
1544.00,97.72
1543.00,97.72
1542.00,97.73
1541.00,97.72
1540.00,97.70
1539.00,97.70
1538.00,97.71
1537.00,97.72
1536.00,97.73
1535.00,97.73
1534.00,97.73
1533.00,97.72
1532.00,97.71
1531.00,97.71
1530.00,97.73
1529.00,97.73
1528.00,97.73
1527.00,97.72
1526.00,97.73
1525.00,97.73
1524.00,97.74
1523.00,97.73
1522.00,97.72
1521.00,97.68
1520.00,97.63
1519.00,97.60
1518.00,97.60
1517.00,97.60
1516.00,97.61
1515.00,97.61
1514.00,97.61
1513.00,97.58
1512.00,97.56
1511.00,97.55
1510.00,97.55
1509.00,97.54
1508.00,97.53
1507.00,97.53
1506.00,97.53
1505.00,97.50
1504.00,97.46
1503.00,97.43
1502.00,97.40
1501.00,97.38
1500.00,97.35
1499.00,97.33
1498.00,97.31
1497.00,97.27
1496.00,97.20
1495.00,97.15
1494.00,97.10
1493.00,97.04
1492.00,96.98
1491.00,96.92
1490.00,96.84
1489.00,96.74
1488.00,96.63
1487.00,96.55
1486.00,96.48
1485.00,96.39
1484.00,96.28
1483.00,96.16
1482.00,96.02
1481.00,95.84
1480.00,95.64
1479.00,95.43
1478.00,95.18
1477.00,94.86
1476.00,94.48
1475.00,94.05
1474.00,93.50
1473.00,92.75
1472.00,91.85
1471.00,90.93
1470.00,90.02
1469.00,89.06
1468.00,88.04
1467.00,86.95
1466.00,85.76
1465.00,84.50
1464.00,83.37
1463.00,82.49
1462.00,81.84
1461.00,81.33
1460.00,80.92
1459.00,80.58
1458.00,80.26
1457.00,79.95
1456.00,79.73
1455.00,79.63
1454.00,79.59
1453.00,79.60
1452.00,79.71
1451.00,80.00
1450.00,80.51
1449.00,81.33
1448.00,82.46
1447.00,83.79
1446.00,85.10
1445.00,86.31
1444.00,87.38
1443.00,88.28
1442.00,88.98
1441.00,89.48
1440.00,89.81
1439.00,89.97
1438.00,90.03
1437.00,90.07
1436.00,90.22
1435.00,90.56
1434.00,91.07
1433.00,91.70
1432.00,92.39
1431.00,93.03
1430.00,93.55
1429.00,93.95
1428.00,94.25
1427.00,94.47
1426.00,94.63
1425.00,94.77
1424.00,94.91
1423.00,95.01
1422.00,95.09
1421.00,95.18
1420.00,95.27
1419.00,95.34
1418.00,95.40
1417.00,95.47
1416.00,95.54
1415.00,95.59
1414.00,95.64
1413.00,95.69
1412.00,95.75
1411.00,95.80
1410.00,95.83
1409.00,95.86
1408.00,95.89
1407.00,95.90
1406.00,95.91
1405.00,95.94
1404.00,95.98
1403.00,96.01
1402.00,96.03
1401.00,96.04
1400.00,96.04
1399.00,96.03
1398.00,96.00
1397.00,95.99
1396.00,95.98
1395.00,95.94
1394.00,95.88
1393.00,95.83
1392.00,95.76
1391.00,95.65
1390.00,95.50
1389.00,95.28
1388.00,94.94
1387.00,94.42
1386.00,93.67
1385.00,92.66
1384.00,91.29
1383.00,89.44
1382.00,87.09
1381.00,84.30
1380.00,81.15
1379.00,77.88
1378.00,74.99
1377.00,73.01
1376.00,72.35
1375.00,73.19
1374.00,75.34
1373.00,78.20
1372.00,81.14
1371.00,83.84
1370.00,86.18
1369.00,88.09
1368.00,89.50
1367.00,90.44
1366.00,91.01
1365.00,91.28
1364.00,91.33
1363.00,91.22
1362.00,90.99
1361.00,90.72
1360.00,90.52
1359.00,90.45
1358.00,90.59
1357.00,90.93
1356.00,91.43
1355.00,92.01
1354.00,92.58
1353.00,93.09
1352.00,93.51
1351.00,93.85
1350.00,94.14
1349.00,94.38
1348.00,94.58
1347.00,94.75
1346.00,94.90
1345.00,95.02
1344.00,95.13
1343.00,95.23
1342.00,95.30
1341.00,95.36
1340.00,95.39
1339.00,95.42
1338.00,95.44
1337.00,95.45
1336.00,95.45
1335.00,95.43
1334.00,95.39
1333.00,95.34
1332.00,95.27
1331.00,95.21
1330.00,95.17
1329.00,95.16
1328.00,95.19
1327.00,95.26
1326.00,95.35
1325.00,95.45
1324.00,95.54
1323.00,95.64
1322.00,95.72
1321.00,95.79
1320.00,95.84
1319.00,95.87
1318.00,95.89
1317.00,95.90
1316.00,95.92
1315.00,95.94
1314.00,95.96
1313.00,95.96
1312.00,95.94
1311.00,95.91
1310.00,95.83
1309.00,95.70
1308.00,95.51
1307.00,95.27
1306.00,95.04
1305.00,94.89
1304.00,94.86
1303.00,94.94
1302.00,95.08
1301.00,95.21
1300.00,95.29
1299.00,95.34
1298.00,95.37
1297.00,95.39
1296.00,95.41
1295.00,95.45
1294.00,95.50
1293.00,95.58
1292.00,95.66
1291.00,95.75
1290.00,95.84
1289.00,95.92
1288.00,95.99
1287.00,96.04
1286.00,96.06
1285.00,96.09
1284.00,96.12
1283.00,96.15
1282.00,96.18
1281.00,96.21
1280.00,96.25
1279.00,96.27
1278.00,96.28
1277.00,96.29
1276.00,96.29
1275.00,96.29
1274.00,96.29
1273.00,96.29
1272.00,96.29
1271.00,96.28
1270.00,96.27
1269.00,96.26
1268.00,96.26
1267.00,96.24
1266.00,96.22
1265.00,96.19
1264.00,96.14
1263.00,96.08
1262.00,96.00
1261.00,95.88
1260.00,95.74
1259.00,95.56
1258.00,95.38
1257.00,95.22
1256.00,95.12
1255.00,95.13
1254.00,95.23
1253.00,95.39
1252.00,95.57
1251.00,95.72
1250.00,95.83
1249.00,95.91
1248.00,95.97
1247.00,96.01
1246.00,96.05
1245.00,96.10
1244.00,96.13
1243.00,96.15
1242.00,96.16
1241.00,96.17
1240.00,96.19
1239.00,96.20
1238.00,96.22
1237.00,96.24
1236.00,96.25
1235.00,96.27
1234.00,96.27
1233.00,96.28
1232.00,96.28
1231.00,96.27
1230.00,96.27
1229.00,96.26
1228.00,96.24
1227.00,96.22
1226.00,96.19
1225.00,96.16
1224.00,96.14
1223.00,96.11
1222.00,96.06
1221.00,96.00
1220.00,95.94
1219.00,95.90
1218.00,95.89
1217.00,95.91
1216.00,95.98
1215.00,96.05
1214.00,96.12
1213.00,96.17
1212.00,96.21
1211.00,96.23
1210.00,96.23
1209.00,96.24
1208.00,96.26
1207.00,96.28
1206.00,96.29
1205.00,96.31
1204.00,96.32
1203.00,96.33
1202.00,96.35
1201.00,96.37
1200.00,96.39
1199.00,96.42
1198.00,96.44
1197.00,96.46
1196.00,96.47
1195.00,96.48
1194.00,96.49
1193.00,96.50
1192.00,96.49
1191.00,96.47
1190.00,96.43
1189.00,96.40
1188.00,96.39
1187.00,96.40
1186.00,96.40
1185.00,96.39
1184.00,96.35
1183.00,96.30
1182.00,96.23
1181.00,96.16
1180.00,96.06
1179.00,95.91
1178.00,95.70
1177.00,95.45
1176.00,95.15
1175.00,94.78
1174.00,94.32
1173.00,93.75
1172.00,93.10
1171.00,92.41
1170.00,91.76
1169.00,91.22
1168.00,90.86
1167.00,90.73
1166.00,90.80
1165.00,91.00
1164.00,91.29
1163.00,91.59
1162.00,91.89
1161.00,92.15
1160.00,92.38
1159.00,92.54
1158.00,92.66
1157.00,92.73
1156.00,92.77
1155.00,92.79
1154.00,92.81
1153.00,92.84
1152.00,92.91
1151.00,93.03
1150.00,93.19
1149.00,93.37
1148.00,93.54
1147.00,93.70
1146.00,93.84
1145.00,93.97
1144.00,94.09
1143.00,94.19
1142.00,94.29
1141.00,94.38
1140.00,94.45
1139.00,94.52
1138.00,94.59
1137.00,94.64
1136.00,94.68
1135.00,94.70
1134.00,94.69
1133.00,94.68
1132.00,94.67
1131.00,94.66
1130.00,94.64
1129.00,94.63
1128.00,94.62
1127.00,94.61
1126.00,94.60
1125.00,94.57
1124.00,94.53
1123.00,94.49
1122.00,94.45
1121.00,94.41
1120.00,94.38
1119.00,94.34
1118.00,94.30
1117.00,94.24
1116.00,94.18
1115.00,94.13
1114.00,94.08
1113.00,94.05
1112.00,94.03
1111.00,94.00
1110.00,93.96
1109.00,93.88
1108.00,93.79
1107.00,93.69
1106.00,93.58
1105.00,93.47
1104.00,93.37
1103.00,93.32
1102.00,93.34
1101.00,93.41
1100.00,93.52
1099.00,93.66
1098.00,93.80
1097.00,93.93
1096.00,94.04
1095.00,94.13
1094.00,94.20
1093.00,94.26
1092.00,94.30
1091.00,94.36
1090.00,94.43
1089.00,94.51
1088.00,94.58
1087.00,94.64
1086.00,94.67
1085.00,94.71
1084.00,94.75
1083.00,94.80
1082.00,94.84
1081.00,94.88
1080.00,94.89
1079.00,94.90
1078.00,94.90
1077.00,94.90
1076.00,94.90
1075.00,94.92
1074.00,94.94
1073.00,94.96
1072.00,94.95
1071.00,94.92
1070.00,94.90
1069.00,94.90
1068.00,94.91
1067.00,94.90
1066.00,94.90
1065.00,94.90
1064.00,94.91
1063.00,94.91
1062.00,94.89
1061.00,94.86
1060.00,94.81
1059.00,94.76
1058.00,94.74
1057.00,94.74
1056.00,94.77
1055.00,94.80
1054.00,94.82
1053.00,94.82
1052.00,94.80
1051.00,94.74
1050.00,94.65
1049.00,94.56
1048.00,94.46
1047.00,94.39
1046.00,94.35
1045.00,94.35
1044.00,94.38
1043.00,94.43
1042.00,94.48
1041.00,94.53
1040.00,94.57
1039.00,94.60
1038.00,94.62
1037.00,94.66
1036.00,94.70
1035.00,94.73
1034.00,94.75
1033.00,94.77
1032.00,94.79
1031.00,94.82
1030.00,94.84
1029.00,94.85
1028.00,94.86
1027.00,94.88
1026.00,94.90
1025.00,94.93
1024.00,94.95
1023.00,94.95
1022.00,94.93
1021.00,94.91
1020.00,94.88
1019.00,94.86
1018.00,94.85
1017.00,94.83
1016.00,94.81
1015.00,94.79
1014.00,94.79
1013.00,94.80
1012.00,94.80
1011.00,94.77
1010.00,94.71
1009.00,94.61
1008.00,94.48
1007.00,94.32
1006.00,94.13
1005.00,93.87
1004.00,93.50
1003.00,92.98
1002.00,92.28
1001.00,91.43
1000.00,90.53
999.00,89.78
998.00,89.37
997.00,89.42
996.00,89.92
995.00,90.70
994.00,91.55
993.00,92.32
992.00,92.93
991.00,93.39
990.00,93.72
989.00,93.97
988.00,94.14
987.00,94.25
986.00,94.31
985.00,94.33
984.00,94.30
983.00,94.20
982.00,94.01
981.00,93.71
980.00,93.29
979.00,92.72
978.00,92.01
977.00,91.17
976.00,90.27
975.00,89.43
974.00,88.78
973.00,88.47
972.00,88.61
971.00,89.21
970.00,90.12
969.00,91.14
968.00,92.08
967.00,92.85
966.00,93.43
965.00,93.85
964.00,94.15
963.00,94.38
962.00,94.57
961.00,94.72
960.00,94.86
959.00,94.98
958.00,95.10
957.00,95.21
956.00,95.29
955.00,95.35
954.00,95.38
953.00,95.41
952.00,95.44
951.00,95.46
950.00,95.49
949.00,95.51
948.00,95.53
947.00,95.55
946.00,95.55
945.00,95.52
944.00,95.46
943.00,95.40
942.00,95.36
941.00,95.34
940.00,95.35
939.00,95.41
938.00,95.49
937.00,95.60
936.00,95.71
935.00,95.79
934.00,95.85
933.00,95.89
932.00,95.92
931.00,95.95
930.00,95.99
929.00,96.03
928.00,96.06
927.00,96.07
926.00,96.07
925.00,96.06
924.00,96.06
923.00,96.07
922.00,96.09
921.00,96.10
920.00,96.11
919.00,96.10
918.00,96.11
917.00,96.12
916.00,96.14
915.00,96.14
914.00,96.14
913.00,96.13
912.00,96.11
911.00,96.08
910.00,96.04
909.00,95.98
908.00,95.89
907.00,95.76
906.00,95.58
905.00,95.34
904.00,95.04
903.00,94.69
902.00,94.32
901.00,94.01
900.00,93.81
899.00,93.76
898.00,93.88
897.00,94.12
896.00,94.43
895.00,94.75
894.00,95.03
893.00,95.25
892.00,95.40
891.00,95.48
890.00,95.53
889.00,95.59
888.00,95.65
887.00,95.70
886.00,95.73
885.00,95.74
884.00,95.74
883.00,95.76
882.00,95.78
881.00,95.81
880.00,95.81
879.00,95.77
878.00,95.72
877.00,95.69
876.00,95.67
875.00,95.66
874.00,95.62
873.00,95.60
872.00,95.62
871.00,95.68
870.00,95.76
869.00,95.84
868.00,95.90
867.00,95.94
866.00,95.98
865.00,96.00
864.00,95.99
863.00,95.96
862.00,95.93
861.00,95.91
860.00,95.90
859.00,95.89
858.00,95.87
857.00,95.85
856.00,95.82
855.00,95.79
854.00,95.75
853.00,95.71
852.00,95.64
851.00,95.55
850.00,95.45
849.00,95.33
848.00,95.16
847.00,94.87
846.00,94.42
845.00,93.74
844.00,92.81
843.00,91.71
842.00,90.70
841.00,90.17
840.00,90.34
839.00,91.14
838.00,92.22
837.00,93.23
836.00,93.99
835.00,94.48
834.00,94.78
833.00,94.94
832.00,95.06
831.00,95.15
830.00,95.23
829.00,95.31
828.00,95.36
827.00,95.40
826.00,95.44
825.00,95.48
824.00,95.50
823.00,95.51
822.00,95.50
821.00,95.49
820.00,95.49
819.00,95.47
818.00,95.44
817.00,95.37
816.00,95.24
815.00,95.04
814.00,94.75
813.00,94.39
812.00,94.00
811.00,93.65
810.00,93.43
809.00,93.37
808.00,93.47
807.00,93.70
806.00,94.00
805.00,94.31
804.00,94.61
803.00,94.86
802.00,95.05
801.00,95.20
800.00,95.31
799.00,95.40
798.00,95.48
797.00,95.54
796.00,95.59
795.00,95.64
794.00,95.69
793.00,95.72
792.00,95.75
791.00,95.77
790.00,95.81
789.00,95.86
788.00,95.90
787.00,95.94
786.00,95.97
785.00,96.00
784.00,96.03
783.00,96.07
782.00,96.10
781.00,96.13
780.00,96.15
779.00,96.17
778.00,96.16
777.00,96.16
776.00,96.15
775.00,96.14
774.00,96.13
773.00,96.12
772.00,96.11
771.00,96.11
770.00,96.11
769.00,96.12
768.00,96.11
767.00,96.08
766.00,96.06
765.00,96.05
764.00,96.05
763.00,96.06
762.00,96.08
761.00,96.11
760.00,96.13
759.00,96.15
758.00,96.14
757.00,96.12
756.00,96.10
755.00,96.09
754.00,96.09
753.00,96.10
752.00,96.10
751.00,96.10
750.00,96.08
749.00,96.04
748.00,95.99
747.00,95.95
746.00,95.92
745.00,95.91
744.00,95.92
743.00,95.94
742.00,95.95
741.00,95.95
740.00,95.95
739.00,95.92
738.00,95.88
737.00,95.83
736.00,95.80
735.00,95.78
734.00,95.77
733.00,95.78
732.00,95.78
731.00,95.76
730.00,95.73
729.00,95.72
728.00,95.71
727.00,95.71
726.00,95.68
725.00,95.62
724.00,95.57
723.00,95.55
722.00,95.55
721.00,95.56
720.00,95.55
719.00,95.53
718.00,95.52
717.00,95.53
716.00,95.52
715.00,95.48
714.00,95.42
713.00,95.37
712.00,95.37
711.00,95.41
710.00,95.43
709.00,95.41
708.00,95.35
707.00,95.31
706.00,95.32
705.00,95.35
704.00,95.37
703.00,95.37
702.00,95.37
701.00,95.37
700.00,95.38
699.00,95.38
698.00,95.36
697.00,95.33
696.00,95.27
695.00,95.22
694.00,95.20
693.00,95.21
692.00,95.25
691.00,95.31
690.00,95.35
689.00,95.36
688.00,95.32
687.00,95.28
686.00,95.28
685.00,95.28
684.00,95.27
683.00,95.24
682.00,95.21
681.00,95.19
680.00,95.19
679.00,95.18
678.00,95.17
677.00,95.17
676.00,95.18
675.00,95.21
674.00,95.21
673.00,95.16
672.00,95.05
671.00,94.96
670.00,94.95
669.00,95.04
668.00,95.11
667.00,95.05
666.00,94.97
665.00,94.96
664.00,95.01
663.00,95.06
662.00,95.08
661.00,95.08
660.00,95.08
659.00,95.09
658.00,95.06
657.00,95.02
656.00,94.97
655.00,94.98
654.00,95.06
653.00,95.19
652.00,95.29
651.00,95.33
650.00,95.30
649.00,95.24
648.00,95.21
647.00,95.21
646.00,95.25
645.00,95.27
644.00,95.22
643.00,95.11
642.00,94.98
641.00,94.90
640.00,94.89
639.00,94.89
638.00,94.87
637.00,94.84
636.00,94.84
635.00,94.89
634.00,94.94
633.00,94.90
632.00,94.76
631.00,94.59
630.00,94.49
629.00,94.57
628.00,94.80
627.00,95.08
626.00,95.26
625.00,95.24
624.00,95.07
623.00,94.82
622.00,94.62
621.00,94.55
620.00,94.65
619.00,94.90
618.00,95.19
617.00,95.37
616.00,95.41
615.00,95.37
614.00,95.35
613.00,95.36
612.00,95.29
611.00,95.06
610.00,94.74
609.00,94.52
608.00,94.55
607.00,94.82
606.00,95.18
605.00,95.44
604.00,95.50
603.00,95.34
602.00,95.03
601.00,94.63
600.00,94.30
599.00,94.23
598.00,94.45
597.00,94.73
596.00,94.80
595.00,94.65
594.00,94.49
593.00,94.49
592.00,94.57
591.00,94.59
590.00,94.58
589.00,94.66
588.00,94.90
587.00,95.26
586.00,95.68
585.00,96.10
584.00,96.39
583.00,96.37
582.00,95.95
581.00,95.25
580.00,94.53
579.00,94.02
578.00,93.87
577.00,94.03
576.00,94.34
575.00,94.73
574.00,95.21
573.00,95.71
572.00,95.97
571.00,95.81
570.00,95.36
569.00,94.96
568.00,94.77
567.00,94.74
566.00,94.81
565.00,94.98
564.00,95.24
563.00,95.55
562.00,95.81
561.00,95.87
560.00,95.59
559.00,95.05
558.00,94.67
557.00,94.63
556.00,94.58
555.00,93.92
554.00,92.82
553.00,92.01
552.00,92.10
551.00,92.75
550.00,93.30
