Created as New Dataset,122 Hoechst Celanese
cm-1,%T
4000.00,99.48
3999.00,99.46
3998.00,99.44
3997.00,99.43
3996.00,99.44
3995.00,99.45
3994.00,99.46
3993.00,99.45
3992.00,99.43
3991.00,99.41
3990.00,99.40
3989.00,99.39
3988.00,99.39
3987.00,99.40
3986.00,99.40
3985.00,99.41
3984.00,99.41
3983.00,99.41
3982.00,99.40
3981.00,99.41
3980.00,99.41
3979.00,99.42
3978.00,99.41
3977.00,99.40
3976.00,99.38
3975.00,99.36
3974.00,99.34
3973.00,99.34
3972.00,99.34
3971.00,99.34
3970.00,99.35
3969.00,99.36
3968.00,99.36
3967.00,99.36
3966.00,99.37
3965.00,99.38
3964.00,99.40
3963.00,99.40
3962.00,99.41
3961.00,99.42
3960.00,99.44
3959.00,99.44
3958.00,99.44
3957.00,99.42
3956.00,99.39
3955.00,99.38
3954.00,99.38
3953.00,99.38
3952.00,99.38
3951.00,99.37
3950.00,99.37
3949.00,99.38
3948.00,99.40
3947.00,99.41
3946.00,99.42
3945.00,99.41
3944.00,99.40
3943.00,99.39
3942.00,99.39
3941.00,99.38
3940.00,99.37
3939.00,99.37
3938.00,99.37
3937.00,99.37
3936.00,99.36
3935.00,99.34
3934.00,99.31
3933.00,99.29
3932.00,99.27
3931.00,99.27
3930.00,99.28
3929.00,99.29
3928.00,99.30
3927.00,99.29
3926.00,99.28
3925.00,99.27
3924.00,99.27
3923.00,99.28
3922.00,99.29
3921.00,99.30
3920.00,99.30
3919.00,99.28
3918.00,99.25
3917.00,99.22
3916.00,99.21
3915.00,99.22
3914.00,99.24
3913.00,99.26
3912.00,99.29
3911.00,99.31
3910.00,99.33
3909.00,99.35
3908.00,99.36
3907.00,99.35
3906.00,99.33
3905.00,99.31
3904.00,99.30
3903.00,99.30
3902.00,99.29
3901.00,99.29
3900.00,99.28
3899.00,99.27
3898.00,99.26
3897.00,99.24
3896.00,99.23
3895.00,99.23
3894.00,99.23
3893.00,99.24
3892.00,99.25
3891.00,99.25
3890.00,99.25
3889.00,99.26
3888.00,99.27
3887.00,99.29
3886.00,99.29
3885.00,99.26
3884.00,99.22
3883.00,99.19
3882.00,99.19
3881.00,99.21
3880.00,99.22
3879.00,99.21
3878.00,99.20
3877.00,99.18
3876.00,99.17
3875.00,99.16
3874.00,99.15
3873.00,99.15
3872.00,99.17
3871.00,99.21
3870.00,99.24
3869.00,99.24
3868.00,99.20
3867.00,99.15
3866.00,99.13
3865.00,99.12
3864.00,99.12
3863.00,99.13
3862.00,99.12
3861.00,99.12
3860.00,99.13
3859.00,99.14
3858.00,99.15
3857.00,99.15
3856.00,99.16
3855.00,99.18
3854.00,99.20
3853.00,99.20
3852.00,99.19
3851.00,99.18
3850.00,99.18
3849.00,99.17
3848.00,99.16
3847.00,99.13
3846.00,99.10
3845.00,99.08
3844.00,99.08
3843.00,99.10
3842.00,99.13
3841.00,99.14
3840.00,99.15
3839.00,99.14
3838.00,99.12
3837.00,99.11
3836.00,99.11
3835.00,99.12
3834.00,99.15
3833.00,99.16
3832.00,99.16
3831.00,99.14
3830.00,99.13
3829.00,99.13
3828.00,99.14
3827.00,99.14
3826.00,99.11
3825.00,99.05
3824.00,99.00
3823.00,98.98
3822.00,99.01
3821.00,99.05
3820.00,99.07
3819.00,99.05
3818.00,99.04
3817.00,99.06
3816.00,99.09
3815.00,99.10
3814.00,99.09
3813.00,99.07
3812.00,99.05
3811.00,99.03
3810.00,99.01
3809.00,99.01
3808.00,99.02
3807.00,99.03
3806.00,99.01
3805.00,98.99
3804.00,98.99
3803.00,99.03
3802.00,99.07
3801.00,99.09
3800.00,99.07
3799.00,99.04
3798.00,99.03
3797.00,99.03
3796.00,99.04
3795.00,99.04
3794.00,99.05
3793.00,99.06
3792.00,99.07
3791.00,99.07
3790.00,99.06
3789.00,99.04
3788.00,99.03
3787.00,99.03
3786.00,99.03
3785.00,99.04
3784.00,99.03
3783.00,99.02
3782.00,99.00
3781.00,99.00
3780.00,99.01
3779.00,99.02
3778.00,99.02
3777.00,99.00
3776.00,98.99
3775.00,98.98
3774.00,98.97
3773.00,98.96
3772.00,98.96
3771.00,98.96
3770.00,98.97
3769.00,98.96
3768.00,98.95
3767.00,98.94
3766.00,98.94
3765.00,98.96
3764.00,98.97
3763.00,98.97
3762.00,98.97
3761.00,98.97
3760.00,98.96
3759.00,98.96
3758.00,98.96
3757.00,98.97
3756.00,98.97
3755.00,98.95
3754.00,98.94
3753.00,98.95
3752.00,98.96
3751.00,98.96
3750.00,98.95
3749.00,98.94
3748.00,98.92
3747.00,98.91
3746.00,98.91
3745.00,98.91
3744.00,98.89
3743.00,98.86
3742.00,98.84
3741.00,98.85
3740.00,98.87
3739.00,98.88
3738.00,98.88
3737.00,98.89
3736.00,98.89
3735.00,98.90
3734.00,98.90
3733.00,98.91
3732.00,98.91
3731.00,98.91
3730.00,98.90
3729.00,98.90
3728.00,98.91
3727.00,98.92
3726.00,98.92
3725.00,98.90
3724.00,98.89
3723.00,98.90
3722.00,98.90
3721.00,98.88
3720.00,98.84
3719.00,98.80
3718.00,98.77
3717.00,98.75
3716.00,98.75
3715.00,98.76
3714.00,98.77
3713.00,98.78
3712.00,98.77
3711.00,98.76
3710.00,98.75
3709.00,98.76
3708.00,98.78
3707.00,98.79
3706.00,98.80
3705.00,98.79
3704.00,98.78
3703.00,98.77
3702.00,98.78
3701.00,98.79
3700.00,98.79
3699.00,98.78
3698.00,98.76
3697.00,98.76
3696.00,98.76
3695.00,98.77
3694.00,98.77
3693.00,98.77
3692.00,98.76
3691.00,98.74
3690.00,98.73
3689.00,98.72
3688.00,98.70
3687.00,98.68
3686.00,98.67
3685.00,98.68
3684.00,98.69
3683.00,98.70
3682.00,98.72
3681.00,98.73
3680.00,98.75
3679.00,98.75
3678.00,98.74
3677.00,98.73
3676.00,98.72
3675.00,98.70
3674.00,98.68
3673.00,98.66
3672.00,98.67
3671.00,98.70
3670.00,98.70
3669.00,98.68
3668.00,98.65
3667.00,98.63
3666.00,98.64
3665.00,98.65
3664.00,98.66
3663.00,98.67
3662.00,98.67
3661.00,98.68
3660.00,98.68
3659.00,98.66
3658.00,98.64
3657.00,98.62
3656.00,98.60
3655.00,98.57
3654.00,98.55
3653.00,98.55
3652.00,98.55
3651.00,98.55
3650.00,98.54
3649.00,98.54
3648.00,98.57
3647.00,98.61
3646.00,98.64
3645.00,98.65
3644.00,98.65
3643.00,98.63
3642.00,98.62
3641.00,98.62
3640.00,98.63
3639.00,98.65
3638.00,98.66
3637.00,98.66
3636.00,98.66
3635.00,98.67
3634.00,98.67
3633.00,98.67
3632.00,98.66
3631.00,98.66
3630.00,98.68
3629.00,98.68
3628.00,98.65
3627.00,98.61
3626.00,98.59
3625.00,98.59
3624.00,98.62
3623.00,98.64
3622.00,98.64
3621.00,98.63
3620.00,98.59
3619.00,98.54
3618.00,98.51
3617.00,98.50
3616.00,98.51
3615.00,98.54
3614.00,98.56
3613.00,98.57
3612.00,98.57
3611.00,98.56
3610.00,98.53
3609.00,98.51
3608.00,98.49
3607.00,98.49
3606.00,98.51
3605.00,98.52
3604.00,98.52
3603.00,98.50
3602.00,98.48
3601.00,98.48
3600.00,98.50
3599.00,98.55
3598.00,98.59
3597.00,98.63
3596.00,98.64
3595.00,98.66
3594.00,98.66
3593.00,98.66
3592.00,98.64
3591.00,98.61
3590.00,98.58
3589.00,98.57
3588.00,98.58
3587.00,98.60
3586.00,98.60
3585.00,98.60
3584.00,98.59
3583.00,98.58
3582.00,98.58
3581.00,98.58
3580.00,98.58
3579.00,98.58
3578.00,98.59
3577.00,98.59
3576.00,98.59
3575.00,98.59
3574.00,98.59
3573.00,98.60
3572.00,98.61
3571.00,98.61
3570.00,98.61
3569.00,98.60
3568.00,98.61
3567.00,98.61
3566.00,98.60
3565.00,98.59
3564.00,98.59
3563.00,98.58
3562.00,98.56
3561.00,98.55
3560.00,98.55
3559.00,98.55
3558.00,98.56
3557.00,98.57
3556.00,98.57
3555.00,98.56
3554.00,98.56
3553.00,98.56
3552.00,98.56
3551.00,98.57
3550.00,98.57
3549.00,98.59
3548.00,98.61
3547.00,98.63
3546.00,98.63
3545.00,98.63
3544.00,98.60
3543.00,98.57
3542.00,98.54
3541.00,98.52
3540.00,98.50
3539.00,98.50
3538.00,98.51
3537.00,98.54
3536.00,98.56
3535.00,98.58
3534.00,98.59
3533.00,98.59
3532.00,98.59
3531.00,98.56
3530.00,98.54
3529.00,98.52
3528.00,98.51
3527.00,98.51
3526.00,98.51
3525.00,98.51
3524.00,98.50
3523.00,98.49
3522.00,98.48
3521.00,98.47
3520.00,98.47
3519.00,98.47
3518.00,98.47
3517.00,98.46
3516.00,98.44
3515.00,98.43
3514.00,98.42
3513.00,98.42
3512.00,98.42
3511.00,98.42
3510.00,98.43
3509.00,98.45
3508.00,98.46
3507.00,98.48
3506.00,98.49
3505.00,98.49
3504.00,98.48
3503.00,98.45
3502.00,98.42
3501.00,98.39
3500.00,98.39
3499.00,98.40
3498.00,98.42
3497.00,98.44
3496.00,98.45
3495.00,98.45
3494.00,98.44
3493.00,98.43
3492.00,98.42
3491.00,98.42
3490.00,98.43
3489.00,98.45
3488.00,98.47
3487.00,98.48
3486.00,98.48
3485.00,98.46
3484.00,98.45
3483.00,98.45
3482.00,98.45
3481.00,98.45
3480.00,98.45
3479.00,98.45
3478.00,98.45
3477.00,98.46
3476.00,98.47
3475.00,98.46
3474.00,98.44
3473.00,98.40
3472.00,98.37
3471.00,98.37
3470.00,98.38
3469.00,98.39
3468.00,98.40
3467.00,98.40
3466.00,98.38
3465.00,98.38
3464.00,98.39
3463.00,98.40
3462.00,98.41
3461.00,98.41
3460.00,98.40
3459.00,98.37
3458.00,98.35
3457.00,98.34
3456.00,98.34
3455.00,98.35
3454.00,98.35
3453.00,98.34
3452.00,98.32
3451.00,98.32
3450.00,98.32
3449.00,98.33
3448.00,98.33
3447.00,98.32
3446.00,98.31
3445.00,98.31
3444.00,98.32
3443.00,98.32
3442.00,98.33
3441.00,98.34
3440.00,98.35
3439.00,98.37
3438.00,98.39
3437.00,98.39
3436.00,98.38
3435.00,98.36
3434.00,98.34
3433.00,98.32
3432.00,98.32
3431.00,98.32
3430.00,98.32
3429.00,98.32
3428.00,98.31
3427.00,98.31
3426.00,98.31
3425.00,98.32
3424.00,98.35
3423.00,98.37
3422.00,98.39
3421.00,98.39
3420.00,98.38
3419.00,98.37
3418.00,98.38
3417.00,98.39
3416.00,98.39
3415.00,98.38
3414.00,98.36
3413.00,98.34
3412.00,98.34
3411.00,98.35
3410.00,98.35
3409.00,98.34
3408.00,98.34
3407.00,98.35
3406.00,98.36
3405.00,98.36
3404.00,98.34
3403.00,98.32
3402.00,98.29
3401.00,98.27
3400.00,98.26
3399.00,98.26
3398.00,98.26
3397.00,98.27
3396.00,98.28
3395.00,98.29
3394.00,98.29
3393.00,98.28
3392.00,98.26
3391.00,98.25
3390.00,98.25
3389.00,98.26
3388.00,98.28
3387.00,98.29
3386.00,98.30
3385.00,98.30
3384.00,98.30
3383.00,98.30
3382.00,98.28
3381.00,98.26
3380.00,98.24
3379.00,98.22
3378.00,98.20
3377.00,98.18
3376.00,98.17
3375.00,98.17
3374.00,98.18
3373.00,98.19
3372.00,98.19
3371.00,98.18
3370.00,98.16
3369.00,98.15
3368.00,98.14
3367.00,98.14
3366.00,98.14
3365.00,98.14
3364.00,98.14
3363.00,98.13
3362.00,98.14
3361.00,98.14
3360.00,98.15
3359.00,98.16
3358.00,98.16
3357.00,98.17
3356.00,98.18
3355.00,98.19
3354.00,98.20
3353.00,98.20
3352.00,98.19
3351.00,98.18
3350.00,98.17
3349.00,98.17
3348.00,98.18
3347.00,98.19
3346.00,98.20
3345.00,98.20
3344.00,98.19
3343.00,98.18
3342.00,98.18
3341.00,98.19
3340.00,98.20
3339.00,98.20
3338.00,98.20
3337.00,98.20
3336.00,98.20
3335.00,98.20
3334.00,98.21
3333.00,98.22
3332.00,98.22
3331.00,98.22
3330.00,98.21
3329.00,98.20
3328.00,98.21
3327.00,98.22
3326.00,98.22
3325.00,98.22
3324.00,98.21
3323.00,98.20
3322.00,98.20
3321.00,98.20
3320.00,98.20
3319.00,98.21
3318.00,98.23
3317.00,98.25
3316.00,98.27
3315.00,98.29
3314.00,98.30
3313.00,98.30
3312.00,98.30
3311.00,98.29
3310.00,98.28
3309.00,98.26
3308.00,98.24
3307.00,98.23
3306.00,98.23
3305.00,98.23
3304.00,98.24
3303.00,98.25
3302.00,98.27
3301.00,98.27
3300.00,98.27
3299.00,98.26
3298.00,98.25
3297.00,98.24
3296.00,98.23
3295.00,98.23
3294.00,98.23
3293.00,98.24
3292.00,98.25
3291.00,98.27
3290.00,98.27
3289.00,98.25
3288.00,98.23
3287.00,98.21
3286.00,98.20
3285.00,98.21
3284.00,98.22
3283.00,98.22
3282.00,98.21
3281.00,98.19
3280.00,98.19
3279.00,98.20
3278.00,98.21
3277.00,98.22
3276.00,98.22
3275.00,98.22
3274.00,98.21
3273.00,98.21
3272.00,98.21
3271.00,98.21
3270.00,98.21
3269.00,98.21
3268.00,98.19
3267.00,98.17
3266.00,98.17
3265.00,98.17
3264.00,98.19
3263.00,98.19
3262.00,98.19
3261.00,98.19
3260.00,98.19
3259.00,98.20
3258.00,98.20
3257.00,98.22
3256.00,98.24
3255.00,98.26
3254.00,98.28
3253.00,98.29
3252.00,98.29
3251.00,98.29
3250.00,98.29
3249.00,98.29
3248.00,98.28
3247.00,98.26
3246.00,98.23
3245.00,98.22
3244.00,98.22
3243.00,98.23
3242.00,98.25
3241.00,98.25
3240.00,98.25
3239.00,98.25
3238.00,98.25
3237.00,98.27
3236.00,98.27
3235.00,98.27
3234.00,98.27
3233.00,98.27
3232.00,98.27
3231.00,98.27
3230.00,98.27
3229.00,98.27
3228.00,98.28
3227.00,98.30
3226.00,98.31
3225.00,98.31
3224.00,98.31
3223.00,98.30
3222.00,98.29
3221.00,98.28
3220.00,98.27
3219.00,98.26
3218.00,98.26
3217.00,98.26
3216.00,98.26
3215.00,98.26
3214.00,98.25
3213.00,98.24
3212.00,98.22
3211.00,98.21
3210.00,98.20
3209.00,98.21
3208.00,98.22
3207.00,98.24
3206.00,98.25
3205.00,98.27
3204.00,98.28
3203.00,98.29
3202.00,98.30
3201.00,98.29
3200.00,98.27
3199.00,98.24
3198.00,98.20
3197.00,98.17
3196.00,98.17
3195.00,98.18
3194.00,98.19
3193.00,98.21
3192.00,98.23
3191.00,98.24
3190.00,98.26
3189.00,98.27
3188.00,98.27
3187.00,98.27
3186.00,98.27
3185.00,98.27
3184.00,98.28
3183.00,98.28
3182.00,98.29
3181.00,98.30
3180.00,98.31
3179.00,98.31
3178.00,98.30
3177.00,98.29
3176.00,98.28
3175.00,98.29
3174.00,98.31
3173.00,98.33
3172.00,98.35
3171.00,98.35
3170.00,98.34
3169.00,98.34
3168.00,98.35
3167.00,98.35
3166.00,98.34
3165.00,98.33
3164.00,98.32
3163.00,98.31
3162.00,98.31
3161.00,98.31
3160.00,98.32
3159.00,98.33
3158.00,98.33
3157.00,98.35
3156.00,98.37
3155.00,98.40
3154.00,98.43
3153.00,98.43
3152.00,98.42
3151.00,98.40
3150.00,98.38
3149.00,98.37
3148.00,98.36
3147.00,98.37
3146.00,98.37
3145.00,98.37
3144.00,98.36
3143.00,98.36
3142.00,98.36
3141.00,98.38
3140.00,98.40
3139.00,98.40
3138.00,98.40
3137.00,98.39
3136.00,98.40
3135.00,98.40
3134.00,98.42
3133.00,98.43
3132.00,98.43
3131.00,98.43
3130.00,98.43
3129.00,98.41
3128.00,98.40
3127.00,98.39
3126.00,98.39
3125.00,98.38
3124.00,98.39
3123.00,98.40
3122.00,98.40
3121.00,98.39
3120.00,98.39
3119.00,98.38
3118.00,98.40
3117.00,98.41
3116.00,98.41
3115.00,98.40
3114.00,98.39
3113.00,98.38
3112.00,98.36
3111.00,98.34
3110.00,98.33
3109.00,98.33
3108.00,98.34
3107.00,98.35
3106.00,98.35
3105.00,98.35
3104.00,98.34
3103.00,98.34
3102.00,98.34
3101.00,98.34
3100.00,98.34
3099.00,98.35
3098.00,98.36
3097.00,98.36
3096.00,98.35
3095.00,98.33
3094.00,98.31
3093.00,98.28
3092.00,98.27
3091.00,98.27
3090.00,98.29
3089.00,98.30
3088.00,98.30
3087.00,98.30
3086.00,98.30
3085.00,98.31
3084.00,98.32
3083.00,98.31
3082.00,98.30
3081.00,98.30
3080.00,98.30
3079.00,98.30
3078.00,98.31
3077.00,98.32
3076.00,98.32
3075.00,98.32
3074.00,98.31
3073.00,98.29
3072.00,98.28
3071.00,98.28
3070.00,98.28
3069.00,98.29
3068.00,98.31
3067.00,98.33
3066.00,98.35
3065.00,98.38
3064.00,98.39
3063.00,98.39
3062.00,98.39
3061.00,98.38
3060.00,98.37
3059.00,98.36
3058.00,98.34
3057.00,98.33
3056.00,98.31
3055.00,98.31
3054.00,98.32
3053.00,98.33
3052.00,98.34
3051.00,98.33
3050.00,98.32
3049.00,98.30
3048.00,98.29
3047.00,98.29
3046.00,98.30
3045.00,98.33
3044.00,98.36
3043.00,98.39
3042.00,98.39
3041.00,98.38
3040.00,98.37
3039.00,98.37
3038.00,98.37
3037.00,98.37
3036.00,98.37
3035.00,98.35
3034.00,98.34
3033.00,98.32
3032.00,98.32
3031.00,98.33
3030.00,98.35
3029.00,98.35
3028.00,98.34
3027.00,98.32
3026.00,98.31
3025.00,98.31
3024.00,98.31
3023.00,98.31
3022.00,98.32
3021.00,98.33
3020.00,98.33
3019.00,98.34
3018.00,98.34
3017.00,98.35
3016.00,98.36
3015.00,98.37
3014.00,98.37
3013.00,98.37
3012.00,98.36
3011.00,98.34
3010.00,98.34
3009.00,98.34
3008.00,98.35
3007.00,98.37
3006.00,98.39
3005.00,98.41
3004.00,98.42
3003.00,98.42
3002.00,98.41
3001.00,98.40
3000.00,98.38
2999.00,98.36
2998.00,98.34
2997.00,98.33
2996.00,98.34
2995.00,98.34
2994.00,98.35
2993.00,98.35
2992.00,98.35
2991.00,98.36
2990.00,98.38
2989.00,98.38
2988.00,98.39
2987.00,98.39
2986.00,98.39
2985.00,98.40
2984.00,98.40
2983.00,98.39
2982.00,98.36
2981.00,98.32
2980.00,98.29
2979.00,98.27
2978.00,98.26
2977.00,98.26
2976.00,98.26
2975.00,98.27
2974.00,98.27
2973.00,98.26
2972.00,98.24
2971.00,98.21
2970.00,98.18
2969.00,98.15
2968.00,98.11
2967.00,98.06
2966.00,98.01
2965.00,97.98
2964.00,97.95
2963.00,97.92
2962.00,97.88
2961.00,97.83
2960.00,97.77
2959.00,97.71
2958.00,97.65
2957.00,97.60
2956.00,97.55
2955.00,97.50
2954.00,97.45
2953.00,97.39
2952.00,97.31
2951.00,97.23
2950.00,97.14
2949.00,97.05
2948.00,96.95
2947.00,96.82
2946.00,96.67
2945.00,96.49
2944.00,96.28
2943.00,96.05
2942.00,95.79
2941.00,95.50
2940.00,95.17
2939.00,94.81
2938.00,94.42
2937.00,94.00
2936.00,93.54
2935.00,93.03
2934.00,92.46
2933.00,91.84
2932.00,91.17
2931.00,90.44
2930.00,89.64
2929.00,88.76
2928.00,87.77
2927.00,86.67
2926.00,85.44
2925.00,84.07
2924.00,82.59
2923.00,81.04
2922.00,79.47
2921.00,77.93
2920.00,76.48
2919.00,75.17
2918.00,74.04
2917.00,73.15
2916.00,72.50
2915.00,72.12
2914.00,72.01
2913.00,72.14
2912.00,72.48
2911.00,72.97
2910.00,73.56
2909.00,74.21
2908.00,74.90
2907.00,75.61
2906.00,76.30
2905.00,76.97
2904.00,77.62
2903.00,78.21
2902.00,78.77
2901.00,79.27
2900.00,79.74
2899.00,80.18
2898.00,80.59
2897.00,80.98
2896.00,81.37
2895.00,81.76
2894.00,82.15
2893.00,82.54
2892.00,82.92
2891.00,83.32
2890.00,83.71
2889.00,84.11
2888.00,84.52
2887.00,84.92
2886.00,85.33
2885.00,85.73
2884.00,86.13
2883.00,86.52
2882.00,86.92
2881.00,87.34
2880.00,87.78
2879.00,88.24
2878.00,88.69
2877.00,89.13
2876.00,89.56
2875.00,89.96
2874.00,90.34
2873.00,90.69
2872.00,91.01
2871.00,91.29
2870.00,91.52
2869.00,91.70
2868.00,91.83
2867.00,91.91
2866.00,91.93
2865.00,91.91
2864.00,91.82
2863.00,91.65
2862.00,91.39
2861.00,91.01
2860.00,90.48
2859.00,89.77
2858.00,88.83
2857.00,87.60
2856.00,86.06
2855.00,84.20
2854.00,82.04
2853.00,79.69
2852.00,77.31
2851.00,75.13
2850.00,73.40
2849.00,72.34
2848.00,72.04
2847.00,72.50
2846.00,73.57
2845.00,75.05
2844.00,76.74
2843.00,78.46
2842.00,80.08
2841.00,81.54
2840.00,82.84
2839.00,83.97
2838.00,84.97
2837.00,85.85
2836.00,86.61
2835.00,87.28
2834.00,87.87
2833.00,88.40
2832.00,88.88
2831.00,89.31
2830.00,89.69
2829.00,90.03
2828.00,90.33
2827.00,90.62
2826.00,90.89
2825.00,91.14
2824.00,91.38
2823.00,91.59
2822.00,91.78
2821.00,91.96
2820.00,92.14
2819.00,92.30
2818.00,92.46
2817.00,92.60
2816.00,92.73
2815.00,92.85
2814.00,92.96
2813.00,93.07
2812.00,93.18
2811.00,93.28
2810.00,93.38
2809.00,93.48
2808.00,93.56
2807.00,93.63
2806.00,93.70
2805.00,93.75
2804.00,93.82
2803.00,93.89
2802.00,93.96
2801.00,94.03
2800.00,94.11
2799.00,94.19
2798.00,94.26
2797.00,94.31
2796.00,94.35
2795.00,94.39
2794.00,94.43
2793.00,94.47
2792.00,94.52
2791.00,94.57
2790.00,94.62
2789.00,94.66
2788.00,94.71
2787.00,94.77
2786.00,94.82
2785.00,94.87
2784.00,94.92
2783.00,94.96
2782.00,95.00
2781.00,95.04
2780.00,95.09
2779.00,95.14
2778.00,95.19
2777.00,95.24
2776.00,95.28
2775.00,95.31
2774.00,95.34
2773.00,95.36
2772.00,95.39
2771.00,95.42
2770.00,95.45
2769.00,95.48
2768.00,95.51
2767.00,95.54
2766.00,95.56
2765.00,95.59
2764.00,95.62
2763.00,95.65
2762.00,95.68
2761.00,95.71
2760.00,95.73
2759.00,95.75
2758.00,95.76
2757.00,95.77
2756.00,95.78
2755.00,95.79
2754.00,95.79
2753.00,95.79
2752.00,95.79
2751.00,95.79
2750.00,95.80
2749.00,95.81
2748.00,95.83
2747.00,95.84
2746.00,95.84
2745.00,95.85
2744.00,95.86
2743.00,95.87
2742.00,95.88
2741.00,95.88
2740.00,95.87
2739.00,95.87
2738.00,95.87
2737.00,95.88
2736.00,95.90
2735.00,95.91
2734.00,95.92
2733.00,95.93
2732.00,95.94
2731.00,95.96
2730.00,95.99
2729.00,96.01
2728.00,96.02
2727.00,96.01
2726.00,96.01
2725.00,96.02
2724.00,96.04
2723.00,96.06
2722.00,96.08
2721.00,96.10
2720.00,96.13
2719.00,96.16
2718.00,96.18
2717.00,96.19
2716.00,96.19
2715.00,96.20
2714.00,96.20
2713.00,96.21
2712.00,96.20
2711.00,96.20
2710.00,96.20
2709.00,96.21
2708.00,96.22
2707.00,96.23
2706.00,96.24
2705.00,96.25
2704.00,96.26
2703.00,96.28
2702.00,96.29
2701.00,96.30
2700.00,96.30
2699.00,96.29
2698.00,96.30
2697.00,96.31
2696.00,96.33
2695.00,96.36
2694.00,96.38
2693.00,96.39
2692.00,96.39
2691.00,96.39
2690.00,96.39
2689.00,96.41
2688.00,96.41
2687.00,96.41
2686.00,96.40
2685.00,96.40
2684.00,96.39
2683.00,96.40
2682.00,96.40
2681.00,96.40
2680.00,96.39
2679.00,96.38
2678.00,96.38
2677.00,96.37
2676.00,96.36
2675.00,96.36
2674.00,96.36
2673.00,96.36
2672.00,96.35
2671.00,96.35
2670.00,96.35
2669.00,96.36
2668.00,96.36
2667.00,96.35
2666.00,96.33
2665.00,96.31
2664.00,96.29
2663.00,96.28
2662.00,96.27
2661.00,96.26
2660.00,96.25
2659.00,96.24
2658.00,96.23
2657.00,96.22
2656.00,96.22
2655.00,96.21
2654.00,96.20
2653.00,96.18
2652.00,96.15
2651.00,96.14
2650.00,96.13
2649.00,96.13
2648.00,96.11
2647.00,96.10
2646.00,96.08
2645.00,96.07
2644.00,96.06
2643.00,96.04
2642.00,96.03
2641.00,96.01
2640.00,95.98
2639.00,95.95
2638.00,95.93
2637.00,95.93
2636.00,95.92
2635.00,95.91
2634.00,95.89
2633.00,95.87
2632.00,95.84
2631.00,95.84
2630.00,95.86
2629.00,95.90
2628.00,95.93
2627.00,95.95
2626.00,95.95
2625.00,95.94
2624.00,95.92
2623.00,95.92
2622.00,95.93
2621.00,95.94
2620.00,95.95
2619.00,95.96
2618.00,95.97
2617.00,95.97
2616.00,95.98
2615.00,95.98
2614.00,95.97
2613.00,95.96
2612.00,95.95
2611.00,95.96
2610.00,95.98
2609.00,96.01
2608.00,96.02
2607.00,96.01
2606.00,95.99
2605.00,95.97
2604.00,95.95
2603.00,95.95
2602.00,95.96
2601.00,95.98
2600.00,96.00
2599.00,96.00
2598.00,95.99
2597.00,95.98
2596.00,95.98
2595.00,95.96
2594.00,95.94
2593.00,95.93
2592.00,95.93
2591.00,95.94
2590.00,95.95
2589.00,95.96
2588.00,95.96
2587.00,95.97
2586.00,95.97
2585.00,95.98
2584.00,95.98
2583.00,95.97
2582.00,95.95
2581.00,95.93
2580.00,95.93
2579.00,95.94
2578.00,95.96
2577.00,95.97
2576.00,95.97
2575.00,95.95
2574.00,95.94
2573.00,95.94
2572.00,95.95
2571.00,95.97
2570.00,95.98
2569.00,95.99
2568.00,95.99
2567.00,95.98
2566.00,95.96
2565.00,95.96
2564.00,95.97
2563.00,95.99
2562.00,96.01
2561.00,96.02
2560.00,96.02
2559.00,96.01
2558.00,96.00
2557.00,96.00
2556.00,96.00
2555.00,96.01
2554.00,96.01
2553.00,96.00
2552.00,95.98
2551.00,95.97
2550.00,95.97
2549.00,95.97
2548.00,95.96
2547.00,95.96
2546.00,95.95
2545.00,95.95
2544.00,95.97
2543.00,95.99
2542.00,96.00
2541.00,96.01
2540.00,96.00
2539.00,95.98
2538.00,95.96
2537.00,95.95
2536.00,95.94
2535.00,95.95
2534.00,95.97
2533.00,95.98
2532.00,95.96
2531.00,95.94
2530.00,95.93
2529.00,95.93
2528.00,95.95
2527.00,95.97
2526.00,95.98
2525.00,95.99
2524.00,95.99
2523.00,95.98
2522.00,95.97
2521.00,95.96
2520.00,95.95
2519.00,95.96
2518.00,95.96
2517.00,95.96
2516.00,95.96
2515.00,95.97
2514.00,95.97
2513.00,95.97
2512.00,95.97
2511.00,95.97
2510.00,95.99
2509.00,96.00
2508.00,96.01
2507.00,96.00
2506.00,95.99
2505.00,95.99
2504.00,96.00
2503.00,96.02
2502.00,96.04
2501.00,96.07
2500.00,96.10
2499.00,96.11
2498.00,96.10
2497.00,96.06
2496.00,96.03
2495.00,96.00
2494.00,96.00
2493.00,96.01
2492.00,96.01
2491.00,96.01
2490.00,96.01
2489.00,96.01
2488.00,96.01
2487.00,96.00
2486.00,96.01
2485.00,96.02
2484.00,96.03
2483.00,96.02
2482.00,95.99
2481.00,95.98
2480.00,95.98
2479.00,95.99
2478.00,95.99
2477.00,96.00
2476.00,96.01
2475.00,96.02
2474.00,96.02
2473.00,96.00
2472.00,95.98
2471.00,95.97
2470.00,95.98
2469.00,95.99
2468.00,96.00
2467.00,96.02
2466.00,96.02
2465.00,96.02
2464.00,96.03
2463.00,96.04
2462.00,96.05
2461.00,96.05
2460.00,96.05
2459.00,96.05
2458.00,96.04
2457.00,96.03
2456.00,96.01
2455.00,95.98
2454.00,95.96
2453.00,95.97
2452.00,96.00
2451.00,96.04
2450.00,96.06
2449.00,96.06
2448.00,96.05
2447.00,96.04
2446.00,96.03
2445.00,96.03
2444.00,96.04
2443.00,96.04
2442.00,96.04
2441.00,96.03
2440.00,96.03
2439.00,96.04
2438.00,96.06
2437.00,96.08
2436.00,96.11
2435.00,96.12
2434.00,96.12
2433.00,96.12
2432.00,96.11
2431.00,96.11
2430.00,96.10
2429.00,96.10
2428.00,96.08
2427.00,96.06
2426.00,96.03
2425.00,96.03
2424.00,96.03
2423.00,96.05
2422.00,96.06
2421.00,96.06
2420.00,96.05
2419.00,96.04
2418.00,96.03
2417.00,96.02
2416.00,96.02
2415.00,96.03
2414.00,96.05
2413.00,96.06
2412.00,96.08
2411.00,96.09
2410.00,96.09
2409.00,96.10
2408.00,96.09
2407.00,96.10
2406.00,96.10
2405.00,96.11
2404.00,96.14
2403.00,96.17
2402.00,96.20
2401.00,96.21
2400.00,96.20
2399.00,96.18
2398.00,96.16
2397.00,96.16
2396.00,96.16
2395.00,96.17
2394.00,96.19
2393.00,96.21
2392.00,96.25
2391.00,96.28
2390.00,96.30
2389.00,96.30
2388.00,96.29
2387.00,96.29
2386.00,96.30
2385.00,96.33
2384.00,96.37
2383.00,96.41
2382.00,96.44
2381.00,96.45
2380.00,96.46
2379.00,96.45
2378.00,96.45
2377.00,96.45
2376.00,96.47
2375.00,96.49
2374.00,96.50
2373.00,96.50
2372.00,96.49
2371.00,96.48
2370.00,96.50
2369.00,96.56
2368.00,96.63
2367.00,96.71
2366.00,96.78
2365.00,96.78
2364.00,96.70
2363.00,96.57
2362.00,96.44
2361.00,96.37
2360.00,96.36
2359.00,96.42
2358.00,96.51
2357.00,96.57
2356.00,96.58
2355.00,96.56
2354.00,96.54
2353.00,96.53
2352.00,96.54
2351.00,96.56
2350.00,96.59
2349.00,96.60
2348.00,96.59
2347.00,96.56
2346.00,96.54
2345.00,96.53
2344.00,96.54
2343.00,96.56
2342.00,96.55
2341.00,96.51
2340.00,96.46
2339.00,96.41
2338.00,96.39
2337.00,96.39
2336.00,96.42
2335.00,96.47
2334.00,96.51
2333.00,96.55
2332.00,96.57
2331.00,96.56
2330.00,96.51
2329.00,96.42
2328.00,96.32
2327.00,96.24
2326.00,96.17
2325.00,96.11
2324.00,96.07
2323.00,96.04
2322.00,96.04
2321.00,96.05
2320.00,96.04
2319.00,96.03
2318.00,96.02
2317.00,96.04
2316.00,96.07
2315.00,96.11
2314.00,96.13
2313.00,96.11
2312.00,96.08
2311.00,96.03
2310.00,96.00
2309.00,95.97
2308.00,95.96
2307.00,95.95
2306.00,95.94
2305.00,95.93
2304.00,95.91
2303.00,95.88
2302.00,95.86
2301.00,95.85
2300.00,95.83
2299.00,95.80
2298.00,95.76
2297.00,95.72
2296.00,95.71
2295.00,95.70
2294.00,95.70
2293.00,95.68
2292.00,95.65
2291.00,95.60
2290.00,95.54
2289.00,95.49
2288.00,95.45
2287.00,95.42
2286.00,95.41
2285.00,95.40
2284.00,95.39
2283.00,95.38
2282.00,95.37
2281.00,95.36
2280.00,95.35
2279.00,95.34
2278.00,95.32
2277.00,95.30
2276.00,95.27
2275.00,95.24
2274.00,95.21
2273.00,95.18
2272.00,95.15
2271.00,95.13
2270.00,95.14
2269.00,95.16
2268.00,95.17
2267.00,95.17
2266.00,95.17
2265.00,95.16
2264.00,95.16
2263.00,95.17
2262.00,95.15
2261.00,95.12
2260.00,95.06
2259.00,95.00
2258.00,94.97
2257.00,94.96
2256.00,94.99
2255.00,95.02
2254.00,95.03
2253.00,95.00
2252.00,94.93
2251.00,94.84
2250.00,94.78
2249.00,94.77
2248.00,94.79
2247.00,94.83
2246.00,94.85
2245.00,94.86
2244.00,94.85
2243.00,94.82
2242.00,94.76
2241.00,94.72
2240.00,94.69
2239.00,94.69
2238.00,94.70
2237.00,94.70
2236.00,94.70
2235.00,94.71
2234.00,94.71
2233.00,94.71
2232.00,94.71
2231.00,94.68
2230.00,94.65
2229.00,94.62
2228.00,94.60
2227.00,94.60
2226.00,94.60
2225.00,94.61
2224.00,94.60
2223.00,94.58
2222.00,94.55
2221.00,94.51
2220.00,94.47
2219.00,94.42
2218.00,94.34
2217.00,94.29
2216.00,94.27
2215.00,94.29
2214.00,94.33
2213.00,94.38
2212.00,94.42
2211.00,94.44
2210.00,94.43
2209.00,94.40
2208.00,94.36
2207.00,94.35
2206.00,94.35
2205.00,94.34
2204.00,94.33
2203.00,94.29
2202.00,94.25
2201.00,94.20
2200.00,94.16
2199.00,94.12
2198.00,94.10
2197.00,94.09
2196.00,94.10
2195.00,94.12
2194.00,94.13
2193.00,94.14
2192.00,94.14
2191.00,94.13
2190.00,94.09
2189.00,94.03
2188.00,93.94
2187.00,93.85
2186.00,93.78
2185.00,93.74
2184.00,93.72
2183.00,93.72
2182.00,93.74
2181.00,93.79
2180.00,93.85
2179.00,93.91
2178.00,93.97
2177.00,94.04
2176.00,94.08
2175.00,94.09
2174.00,94.03
2173.00,93.93
2172.00,93.84
2171.00,93.80
2170.00,93.81
2169.00,93.82
2168.00,93.82
2167.00,93.78
2166.00,93.69
2165.00,93.58
2164.00,93.47
2163.00,93.34
2162.00,93.19
2161.00,93.09
2160.00,93.12
2159.00,93.30
2158.00,93.56
2157.00,93.78
2156.00,93.92
2155.00,93.97
2154.00,93.98
2153.00,93.98
2152.00,94.00
2151.00,94.02
2150.00,94.05
2149.00,94.08
2148.00,94.13
2147.00,94.19
2146.00,94.25
2145.00,94.30
2144.00,94.36
2143.00,94.44
2142.00,94.52
2141.00,94.56
2140.00,94.56
2139.00,94.53
2138.00,94.52
2137.00,94.55
2136.00,94.61
2135.00,94.70
2134.00,94.79
2133.00,94.87
2132.00,94.91
2131.00,94.92
2130.00,94.90
2129.00,94.90
2128.00,94.92
2127.00,94.95
2126.00,94.99
2125.00,95.00
2124.00,95.00
2123.00,94.99
2122.00,94.99
2121.00,94.98
2120.00,94.96
2119.00,94.94
2118.00,94.92
2117.00,94.91
2116.00,94.90
2115.00,94.90
2114.00,94.88
2113.00,94.86
2112.00,94.85
2111.00,94.86
2110.00,94.88
2109.00,94.90
2108.00,94.89
2107.00,94.88
2106.00,94.88
2105.00,94.89
2104.00,94.91
2103.00,94.93
2102.00,94.94
2101.00,94.94
2100.00,94.94
2099.00,94.94
2098.00,94.93
2097.00,94.94
2096.00,94.94
2095.00,94.93
2094.00,94.92
2093.00,94.89
2092.00,94.88
2091.00,94.88
2090.00,94.89
2089.00,94.90
2088.00,94.92
2087.00,94.95
2086.00,94.98
2085.00,94.97
2084.00,94.93
2083.00,94.85
2082.00,94.78
2081.00,94.72
2080.00,94.70
2079.00,94.68
2078.00,94.68
2077.00,94.67
2076.00,94.67
2075.00,94.66
2074.00,94.65
2073.00,94.63
2072.00,94.62
2071.00,94.61
2070.00,94.59
2069.00,94.57
2068.00,94.56
2067.00,94.57
2066.00,94.58
2065.00,94.59
2064.00,94.60
2063.00,94.61
2062.00,94.64
2061.00,94.66
2060.00,94.67
2059.00,94.65
2058.00,94.62
2057.00,94.59
2056.00,94.55
2055.00,94.50
2054.00,94.44
2053.00,94.36
2052.00,94.26
2051.00,94.16
2050.00,94.08
2049.00,94.03
2048.00,94.01
2047.00,93.99
2046.00,93.97
2045.00,93.93
2044.00,93.88
2043.00,93.83
2042.00,93.76
2041.00,93.67
2040.00,93.59
2039.00,93.55
2038.00,93.54
2037.00,93.54
2036.00,93.54
2035.00,93.58
2034.00,93.64
2033.00,93.69
2032.00,93.70
2031.00,93.68
2030.00,93.65
2029.00,93.63
2028.00,93.59
2027.00,93.55
2026.00,93.51
2025.00,93.47
2024.00,93.44
2023.00,93.44
2022.00,93.47
2021.00,93.52
2020.00,93.59
2019.00,93.62
2018.00,93.63
2017.00,93.61
2016.00,93.59
2015.00,93.58
2014.00,93.59
2013.00,93.61
2012.00,93.63
2011.00,93.63
2010.00,93.64
2009.00,93.66
2008.00,93.72
2007.00,93.80
2006.00,93.87
2005.00,93.92
2004.00,93.96
2003.00,94.00
2002.00,94.02
2001.00,94.02
2000.00,94.00
1999.00,93.99
1998.00,93.98
1997.00,93.97
1996.00,93.96
1995.00,93.95
1994.00,93.93
1993.00,93.93
1992.00,93.94
1991.00,93.96
1990.00,93.98
1989.00,93.97
1988.00,93.94
1987.00,93.89
1986.00,93.86
1985.00,93.83
1984.00,93.81
1983.00,93.76
1982.00,93.68
1981.00,93.60
1980.00,93.56
1979.00,93.57
1978.00,93.61
1977.00,93.65
1976.00,93.69
1975.00,93.75
1974.00,93.79
1973.00,93.80
1972.00,93.77
1971.00,93.77
1970.00,93.82
1969.00,93.90
1968.00,93.95
1967.00,93.93
1966.00,93.89
1965.00,93.87
1964.00,93.91
1963.00,94.01
1962.00,94.12
1961.00,94.20
1960.00,94.27
1959.00,94.32
1958.00,94.35
1957.00,94.36
1956.00,94.36
1955.00,94.35
1954.00,94.36
1953.00,94.39
1952.00,94.42
1951.00,94.45
1950.00,94.47
1949.00,94.50
1948.00,94.52
1947.00,94.53
1946.00,94.53
1945.00,94.54
1944.00,94.54
1943.00,94.52
1942.00,94.52
1941.00,94.54
1940.00,94.60
1939.00,94.68
1938.00,94.73
1937.00,94.76
1936.00,94.77
1935.00,94.77
1934.00,94.77
1933.00,94.77
1932.00,94.79
1931.00,94.82
1930.00,94.87
1929.00,94.92
1928.00,94.96
1927.00,94.97
1926.00,94.97
1925.00,94.95
1924.00,94.93
1923.00,94.94
1922.00,94.95
1921.00,94.97
1920.00,94.98
1919.00,95.00
1918.00,95.03
1917.00,95.05
1916.00,95.07
1915.00,95.08
1914.00,95.07
1913.00,95.05
1912.00,95.03
1911.00,95.02
1910.00,95.04
1909.00,95.07
1908.00,95.11
1907.00,95.14
1906.00,95.15
1905.00,95.15
1904.00,95.14
1903.00,95.14
1902.00,95.14
1901.00,95.14
1900.00,95.14
1899.00,95.13
1898.00,95.11
1897.00,95.08
1896.00,95.06
1895.00,95.06
1894.00,95.08
1893.00,95.10
1892.00,95.13
1891.00,95.16
1890.00,95.18
1889.00,95.20
1888.00,95.21
1887.00,95.22
1886.00,95.23
1885.00,95.25
1884.00,95.27
1883.00,95.28
1882.00,95.27
1881.00,95.26
1880.00,95.24
1879.00,95.24
1878.00,95.25
1877.00,95.27
1876.00,95.30
1875.00,95.32
1874.00,95.34
1873.00,95.35
1872.00,95.37
1871.00,95.38
1870.00,95.38
1869.00,95.36
1868.00,95.34
1867.00,95.33
1866.00,95.34
1865.00,95.36
1864.00,95.39
1863.00,95.42
1862.00,95.44
1861.00,95.44
1860.00,95.44
1859.00,95.44
1858.00,95.46
1857.00,95.47
1856.00,95.47
1855.00,95.46
1854.00,95.44
1853.00,95.43
1852.00,95.43
1851.00,95.44
1850.00,95.45
1849.00,95.46
1848.00,95.46
1847.00,95.47
1846.00,95.47
1845.00,95.46
1844.00,95.46
1843.00,95.46
1842.00,95.49
1841.00,95.53
1840.00,95.56
1839.00,95.57
1838.00,95.56
1837.00,95.54
1836.00,95.53
1835.00,95.52
1834.00,95.53
1833.00,95.54
1832.00,95.55
1831.00,95.56
1830.00,95.55
1829.00,95.55
1828.00,95.54
1827.00,95.54
1826.00,95.53
1825.00,95.52
1824.00,95.52
1823.00,95.52
1822.00,95.52
1821.00,95.52
1820.00,95.52
1819.00,95.54
1818.00,95.55
1817.00,95.58
1816.00,95.60
1815.00,95.61
1814.00,95.61
1813.00,95.60
1812.00,95.59
1811.00,95.59
1810.00,95.60
1809.00,95.61
1808.00,95.62
1807.00,95.63
1806.00,95.63
1805.00,95.63
1804.00,95.63
1803.00,95.64
1802.00,95.65
1801.00,95.65
1800.00,95.64
1799.00,95.63
1798.00,95.63
1797.00,95.64
1796.00,95.66
1795.00,95.67
1794.00,95.68
1793.00,95.68
1792.00,95.69
1791.00,95.69
1790.00,95.70
1789.00,95.69
1788.00,95.69
1787.00,95.69
1786.00,95.69
1785.00,95.69
1784.00,95.70
1783.00,95.71
1782.00,95.71
1781.00,95.69
1780.00,95.67
1779.00,95.66
1778.00,95.65
1777.00,95.65
1776.00,95.65
1775.00,95.64
1774.00,95.63
1773.00,95.63
1772.00,95.64
1771.00,95.65
1770.00,95.64
1769.00,95.63
1768.00,95.62
1767.00,95.60
1766.00,95.59
1765.00,95.58
1764.00,95.58
1763.00,95.58
1762.00,95.58
1761.00,95.58
1760.00,95.57
1759.00,95.55
1758.00,95.54
1757.00,95.53
1756.00,95.51
1755.00,95.49
1754.00,95.48
1753.00,95.46
1752.00,95.44
1751.00,95.42
1750.00,95.41
1749.00,95.40
1748.00,95.38
1747.00,95.37
1746.00,95.36
1745.00,95.34
1744.00,95.32
1743.00,95.29
1742.00,95.27
1741.00,95.24
1740.00,95.23
1739.00,95.21
1738.00,95.21
1737.00,95.21
1736.00,95.22
1735.00,95.23
1734.00,95.25
1733.00,95.25
1732.00,95.25
1731.00,95.25
1730.00,95.26
1729.00,95.27
1728.00,95.27
1727.00,95.29
1726.00,95.31
1725.00,95.33
1724.00,95.35
1723.00,95.37
1722.00,95.38
1721.00,95.38
1720.00,95.39
1719.00,95.40
1718.00,95.40
1717.00,95.39
1716.00,95.38
1715.00,95.37
1714.00,95.38
1713.00,95.38
1712.00,95.39
1711.00,95.40
1710.00,95.42
1709.00,95.44
1708.00,95.45
1707.00,95.45
1706.00,95.43
1705.00,95.42
1704.00,95.41
1703.00,95.41
1702.00,95.41
1701.00,95.40
1700.00,95.39
1699.00,95.38
1698.00,95.39
1697.00,95.41
1696.00,95.43
1695.00,95.45
1694.00,95.46
1693.00,95.46
1692.00,95.45
1691.00,95.44
1690.00,95.44
1689.00,95.45
1688.00,95.46
1687.00,95.47
1686.00,95.47
1685.00,95.46
1684.00,95.43
1683.00,95.41
1682.00,95.40
1681.00,95.40
1680.00,95.39
1679.00,95.38
1678.00,95.38
1677.00,95.38
1676.00,95.37
1675.00,95.36
1674.00,95.33
1673.00,95.32
1672.00,95.31
1671.00,95.31
1670.00,95.30
1669.00,95.28
1668.00,95.26
1667.00,95.24
1666.00,95.23
1665.00,95.21
1664.00,95.19
1663.00,95.17
1662.00,95.16
1661.00,95.16
1660.00,95.15
1659.00,95.15
1658.00,95.14
1657.00,95.12
1656.00,95.10
1655.00,95.09
1654.00,95.11
1653.00,95.15
1652.00,95.19
1651.00,95.20
1650.00,95.20
1649.00,95.20
1648.00,95.19
1647.00,95.19
1646.00,95.20
1645.00,95.20
1644.00,95.20
1643.00,95.20
1642.00,95.20
1641.00,95.20
1640.00,95.20
1639.00,95.19
1638.00,95.17
1637.00,95.13
1636.00,95.09
1635.00,95.06
1634.00,95.05
1633.00,95.05
1632.00,95.06
1631.00,95.08
1630.00,95.11
1629.00,95.15
1628.00,95.19
1627.00,95.22
1626.00,95.23
1625.00,95.24
1624.00,95.25
1623.00,95.26
1622.00,95.27
1621.00,95.27
1620.00,95.27
1619.00,95.27
1618.00,95.28
1617.00,95.30
1616.00,95.31
1615.00,95.31
1614.00,95.30
1613.00,95.29
1612.00,95.28
1611.00,95.28
1610.00,95.29
1609.00,95.30
1608.00,95.31
1607.00,95.32
1606.00,95.32
1605.00,95.32
1604.00,95.32
1603.00,95.32
1602.00,95.32
1601.00,95.31
1600.00,95.30
1599.00,95.30
1598.00,95.29
1597.00,95.30
1596.00,95.31
1595.00,95.32
1594.00,95.33
1593.00,95.33
1592.00,95.32
1591.00,95.31
1590.00,95.32
1589.00,95.32
1588.00,95.33
1587.00,95.34
1586.00,95.34
1585.00,95.35
1584.00,95.36
1583.00,95.36
1582.00,95.37
1581.00,95.37
1580.00,95.37
1579.00,95.37
1578.00,95.38
1577.00,95.38
1576.00,95.37
1575.00,95.36
1574.00,95.35
1573.00,95.35
1572.00,95.36
1571.00,95.36
1570.00,95.36
1569.00,95.36
1568.00,95.35
1567.00,95.35
1566.00,95.35
1565.00,95.33
1564.00,95.31
1563.00,95.29
1562.00,95.26
1561.00,95.24
1560.00,95.23
1559.00,95.23
1558.00,95.25
1557.00,95.26
1556.00,95.26
1555.00,95.26
1554.00,95.26
1553.00,95.26
1552.00,95.27
1551.00,95.29
1550.00,95.31
1549.00,95.33
1548.00,95.33
1547.00,95.33
1546.00,95.33
1545.00,95.33
1544.00,95.33
1543.00,95.33
1542.00,95.33
1541.00,95.33
1540.00,95.32
1539.00,95.33
1538.00,95.35
1537.00,95.36
1536.00,95.37
1535.00,95.37
1534.00,95.37
1533.00,95.37
1532.00,95.35
1531.00,95.35
1530.00,95.36
1529.00,95.37
1528.00,95.37
1527.00,95.37
1526.00,95.37
1525.00,95.38
1524.00,95.38
1523.00,95.39
1522.00,95.40
1521.00,95.40
1520.00,95.40
1519.00,95.40
1518.00,95.42
1517.00,95.43
1516.00,95.44
1515.00,95.44
1514.00,95.44
1513.00,95.43
1512.00,95.42
1511.00,95.42
1510.00,95.42
1509.00,95.42
1508.00,95.42
1507.00,95.43
1506.00,95.45
1505.00,95.44
1504.00,95.42
1503.00,95.41
1502.00,95.40
1501.00,95.39
1500.00,95.37
1499.00,95.37
1498.00,95.37
1497.00,95.35
1496.00,95.32
1495.00,95.29
1494.00,95.28
1493.00,95.26
1492.00,95.23
1491.00,95.21
1490.00,95.18
1489.00,95.16
1488.00,95.12
1487.00,95.11
1486.00,95.09
1485.00,95.05
1484.00,94.99
1483.00,94.92
1482.00,94.82
1481.00,94.64
1480.00,94.36
1479.00,93.88
1478.00,92.99
1477.00,91.43
1476.00,89.06
1475.00,86.05
1474.00,82.79
1473.00,80.10
1472.00,78.96
1471.00,79.49
1470.00,80.95
1469.00,82.61
1468.00,84.13
1467.00,85.30
1466.00,85.99
1465.00,86.14
1464.00,85.94
1463.00,85.82
1462.00,86.14
1461.00,86.96
1460.00,88.09
1459.00,89.27
1458.00,90.33
1457.00,91.15
1456.00,91.70
1455.00,92.03
1454.00,92.25
1453.00,92.45
1452.00,92.63
1451.00,92.78
1450.00,92.90
1449.00,93.00
1448.00,93.12
1447.00,93.21
1446.00,93.29
1445.00,93.36
1444.00,93.43
1443.00,93.49
1442.00,93.53
1441.00,93.56
1440.00,93.59
1439.00,93.61
1438.00,93.64
1437.00,93.70
1436.00,93.76
1435.00,93.81
1434.00,93.85
1433.00,93.89
1432.00,93.93
1431.00,93.96
1430.00,93.99
1429.00,94.03
1428.00,94.06
1427.00,94.08
1426.00,94.11
1425.00,94.16
1424.00,94.20
1423.00,94.23
1422.00,94.24
1421.00,94.24
1420.00,94.25
1419.00,94.27
1418.00,94.30
1417.00,94.34
1416.00,94.37
1415.00,94.39
1414.00,94.41
1413.00,94.42
1412.00,94.43
1411.00,94.44
1410.00,94.45
1409.00,94.46
1408.00,94.48
1407.00,94.48
1406.00,94.48
1405.00,94.49
1404.00,94.51
1403.00,94.54
1402.00,94.56
1401.00,94.57
1400.00,94.58
1399.00,94.58
1398.00,94.58
1397.00,94.58
1396.00,94.58
1395.00,94.57
1394.00,94.56
1393.00,94.56
1392.00,94.57
1391.00,94.58
1390.00,94.59
1389.00,94.59
1388.00,94.59
1387.00,94.58
1386.00,94.57
1385.00,94.56
1384.00,94.56
1383.00,94.57
1382.00,94.56
1381.00,94.54
1380.00,94.50
1379.00,94.47
1378.00,94.44
1377.00,94.42
1376.00,94.41
1375.00,94.40
1374.00,94.38
1373.00,94.36
1372.00,94.34
1371.00,94.31
1370.00,94.29
1369.00,94.28
1368.00,94.27
1367.00,94.25
1366.00,94.23
1365.00,94.22
1364.00,94.22
1363.00,94.23
1362.00,94.25
1361.00,94.26
1360.00,94.27
1359.00,94.27
1358.00,94.26
1357.00,94.26
1356.00,94.24
1355.00,94.22
1354.00,94.19
1353.00,94.17
1352.00,94.16
1351.00,94.16
1350.00,94.16
1349.00,94.16
1348.00,94.17
1347.00,94.19
1346.00,94.22
1345.00,94.27
1344.00,94.33
1343.00,94.38
1342.00,94.43
1341.00,94.45
1340.00,94.47
1339.00,94.49
1338.00,94.52
1337.00,94.54
1336.00,94.57
1335.00,94.58
1334.00,94.58
1333.00,94.58
1332.00,94.56
1331.00,94.55
1330.00,94.53
1329.00,94.52
1328.00,94.52
1327.00,94.51
1326.00,94.50
1325.00,94.48
1324.00,94.47
1323.00,94.47
1322.00,94.48
1321.00,94.50
1320.00,94.50
1319.00,94.49
1318.00,94.47
1317.00,94.45
1316.00,94.44
1315.00,94.44
1314.00,94.43
1313.00,94.42
1312.00,94.42
1311.00,94.42
1310.00,94.42
1309.00,94.41
1308.00,94.40
1307.00,94.38
1306.00,94.37
1305.00,94.36
1304.00,94.36
1303.00,94.35
1302.00,94.34
1301.00,94.34
1300.00,94.34
1299.00,94.35
1298.00,94.36
1297.00,94.36
1296.00,94.35
1295.00,94.34
1294.00,94.34
1293.00,94.35
1292.00,94.36
1291.00,94.38
1290.00,94.40
1289.00,94.42
1288.00,94.43
1287.00,94.43
1286.00,94.42
1285.00,94.42
1284.00,94.42
1283.00,94.43
1282.00,94.42
1281.00,94.42
1280.00,94.42
1279.00,94.43
1278.00,94.43
1277.00,94.43
1276.00,94.44
1275.00,94.46
1274.00,94.47
1273.00,94.49
1272.00,94.49
1271.00,94.48
1270.00,94.47
1269.00,94.47
1268.00,94.47
1267.00,94.47
1266.00,94.46
1265.00,94.46
1264.00,94.45
1263.00,94.45
1262.00,94.45
1261.00,94.44
1260.00,94.41
1259.00,94.38
1258.00,94.35
1257.00,94.33
1256.00,94.31
1255.00,94.30
1254.00,94.30
1253.00,94.29
1252.00,94.29
1251.00,94.29
1250.00,94.30
1249.00,94.31
1248.00,94.32
1247.00,94.32
1246.00,94.32
1245.00,94.33
1244.00,94.34
1243.00,94.35
1242.00,94.36
1241.00,94.37
1240.00,94.38
1239.00,94.39
1238.00,94.40
1237.00,94.40
1236.00,94.41
1235.00,94.43
1234.00,94.45
1233.00,94.46
1232.00,94.47
1231.00,94.48
1230.00,94.50
1229.00,94.51
1228.00,94.53
1227.00,94.55
1226.00,94.55
1225.00,94.56
1224.00,94.56
1223.00,94.57
1222.00,94.57
1221.00,94.58
1220.00,94.57
1219.00,94.57
1218.00,94.56
1217.00,94.54
1216.00,94.54
1215.00,94.55
1214.00,94.56
1213.00,94.59
1212.00,94.61
1211.00,94.61
1210.00,94.60
1209.00,94.58
1208.00,94.57
1207.00,94.56
1206.00,94.55
1205.00,94.53
1204.00,94.53
1203.00,94.52
1202.00,94.52
1201.00,94.53
1200.00,94.54
1199.00,94.54
1198.00,94.56
1197.00,94.58
1196.00,94.60
1195.00,94.61
1194.00,94.60
1193.00,94.57
1192.00,94.53
1191.00,94.50
1190.00,94.48
1189.00,94.47
1188.00,94.48
1187.00,94.49
1186.00,94.51
1185.00,94.51
1184.00,94.51
1183.00,94.50
1182.00,94.49
1181.00,94.47
1180.00,94.45
1179.00,94.41
1178.00,94.37
1177.00,94.33
1176.00,94.31
1175.00,94.32
1174.00,94.34
1173.00,94.37
1172.00,94.38
1171.00,94.38
1170.00,94.34
1169.00,94.28
1168.00,94.23
1167.00,94.21
1166.00,94.20
1165.00,94.18
1164.00,94.15
1163.00,94.12
1162.00,94.09
1161.00,94.06
1160.00,94.03
1159.00,93.97
1158.00,93.90
1157.00,93.83
1156.00,93.77
1155.00,93.72
1154.00,93.65
1153.00,93.58
1152.00,93.52
1151.00,93.45
1150.00,93.39
1149.00,93.34
1148.00,93.29
1147.00,93.24
1146.00,93.18
1145.00,93.12
1144.00,93.07
1143.00,93.03
1142.00,92.99
1141.00,92.97
1140.00,92.95
1139.00,92.93
1138.00,92.92
1137.00,92.91
1136.00,92.90
1135.00,92.88
1134.00,92.85
1133.00,92.81
1132.00,92.77
1131.00,92.74
1130.00,92.71
1129.00,92.68
1128.00,92.66
1127.00,92.63
1126.00,92.60
1125.00,92.57
1124.00,92.53
1123.00,92.49
1122.00,92.45
1121.00,92.42
1120.00,92.41
1119.00,92.39
1118.00,92.35
1117.00,92.32
1116.00,92.31
1115.00,92.33
1114.00,92.36
1113.00,92.37
1112.00,92.36
1111.00,92.34
1110.00,92.32
1109.00,92.32
1108.00,92.33
1107.00,92.34
1106.00,92.36
1105.00,92.34
1104.00,92.30
1103.00,92.26
1102.00,92.25
1101.00,92.28
1100.00,92.35
1099.00,92.44
1098.00,92.53
1097.00,92.58
1096.00,92.60
1095.00,92.61
1094.00,92.63
1093.00,92.66
1092.00,92.70
1091.00,92.75
1090.00,92.79
1089.00,92.84
1088.00,92.88
1087.00,92.92
1086.00,92.96
1085.00,92.99
1084.00,93.02
1083.00,93.07
1082.00,93.12
1081.00,93.15
1080.00,93.17
1079.00,93.19
1078.00,93.22
1077.00,93.27
1076.00,93.31
1075.00,93.36
1074.00,93.40
1073.00,93.42
1072.00,93.42
1071.00,93.41
1070.00,93.42
1069.00,93.45
1068.00,93.49
1067.00,93.51
1066.00,93.52
1065.00,93.53
1064.00,93.54
1063.00,93.55
1062.00,93.57
1061.00,93.59
1060.00,93.60
1059.00,93.60
1058.00,93.59
1057.00,93.59
1056.00,93.62
1055.00,93.67
1054.00,93.73
1053.00,93.79
1052.00,93.83
1051.00,93.87
1050.00,93.88
1049.00,93.87
1048.00,93.86
1047.00,93.85
1046.00,93.85
1045.00,93.87
1044.00,93.87
1043.00,93.86
1042.00,93.85
1041.00,93.84
1040.00,93.85
1039.00,93.87
1038.00,93.89
1037.00,93.90
1036.00,93.91
1035.00,93.92
1034.00,93.94
1033.00,93.96
1032.00,93.98
1031.00,93.99
1030.00,94.01
1029.00,94.03
1028.00,94.05
1027.00,94.06
1026.00,94.07
1025.00,94.09
1024.00,94.12
1023.00,94.15
1022.00,94.16
1021.00,94.17
1020.00,94.17
1019.00,94.17
1018.00,94.16
1017.00,94.15
1016.00,94.15
1015.00,94.18
1014.00,94.23
1013.00,94.27
1012.00,94.28
1011.00,94.28
1010.00,94.28
1009.00,94.29
1008.00,94.31
1007.00,94.35
1006.00,94.38
1005.00,94.41
1004.00,94.42
1003.00,94.43
1002.00,94.42
1001.00,94.39
1000.00,94.35
999.00,94.32
998.00,94.30
997.00,94.30
996.00,94.30
995.00,94.30
994.00,94.31
993.00,94.34
992.00,94.36
991.00,94.37
990.00,94.37
989.00,94.38
988.00,94.38
987.00,94.38
986.00,94.39
985.00,94.40
984.00,94.43
983.00,94.44
982.00,94.44
981.00,94.43
980.00,94.42
979.00,94.42
978.00,94.42
977.00,94.41
976.00,94.40
975.00,94.39
974.00,94.39
973.00,94.39
972.00,94.39
971.00,94.39
970.00,94.38
969.00,94.35
968.00,94.33
967.00,94.32
966.00,94.32
965.00,94.31
964.00,94.29
963.00,94.25
962.00,94.23
961.00,94.21
960.00,94.21
959.00,94.22
958.00,94.23
957.00,94.23
956.00,94.21
955.00,94.18
954.00,94.16
953.00,94.15
952.00,94.15
951.00,94.15
950.00,94.15
949.00,94.13
948.00,94.11
947.00,94.10
946.00,94.10
945.00,94.10
944.00,94.11
943.00,94.14
942.00,94.18
941.00,94.21
940.00,94.21
939.00,94.20
938.00,94.19
937.00,94.20
936.00,94.21
935.00,94.21
934.00,94.21
933.00,94.21
932.00,94.24
931.00,94.27
930.00,94.30
929.00,94.32
928.00,94.33
927.00,94.33
926.00,94.34
925.00,94.34
924.00,94.34
923.00,94.34
922.00,94.33
921.00,94.35
920.00,94.38
919.00,94.42
918.00,94.44
917.00,94.44
916.00,94.44
915.00,94.45
914.00,94.46
913.00,94.46
912.00,94.45
911.00,94.44
910.00,94.44
909.00,94.43
908.00,94.42
907.00,94.41
906.00,94.42
905.00,94.44
904.00,94.45
903.00,94.47
902.00,94.49
901.00,94.51
900.00,94.52
899.00,94.52
898.00,94.51
897.00,94.51
896.00,94.50
895.00,94.49
894.00,94.48
893.00,94.48
892.00,94.47
891.00,94.46
890.00,94.45
889.00,94.43
888.00,94.42
887.00,94.40
886.00,94.38
885.00,94.37
884.00,94.37
883.00,94.39
882.00,94.41
881.00,94.42
880.00,94.41
879.00,94.39
878.00,94.39
877.00,94.40
876.00,94.43
875.00,94.46
874.00,94.48
873.00,94.48
872.00,94.46
871.00,94.44
870.00,94.43
869.00,94.45
868.00,94.47
867.00,94.48
866.00,94.49
865.00,94.50
864.00,94.49
863.00,94.48
862.00,94.45
861.00,94.44
860.00,94.44
859.00,94.46
858.00,94.48
857.00,94.49
856.00,94.48
855.00,94.45
854.00,94.42
853.00,94.40
852.00,94.40
851.00,94.41
850.00,94.43
849.00,94.44
848.00,94.42
847.00,94.39
846.00,94.37
845.00,94.36
844.00,94.38
843.00,94.41
842.00,94.45
841.00,94.49
840.00,94.50
839.00,94.49
838.00,94.46
837.00,94.45
836.00,94.46
835.00,94.47
834.00,94.47
833.00,94.46
832.00,94.46
831.00,94.47
830.00,94.49
829.00,94.52
828.00,94.54
827.00,94.54
826.00,94.54
825.00,94.53
824.00,94.54
823.00,94.56
822.00,94.57
821.00,94.58
820.00,94.58
819.00,94.58
818.00,94.60
817.00,94.63
816.00,94.68
815.00,94.71
814.00,94.73
813.00,94.73
812.00,94.71
811.00,94.67
810.00,94.63
809.00,94.59
808.00,94.57
807.00,94.56
806.00,94.57
805.00,94.58
804.00,94.60
803.00,94.62
802.00,94.65
801.00,94.68
800.00,94.70
799.00,94.70
798.00,94.69
797.00,94.67
796.00,94.65
795.00,94.63
794.00,94.62
793.00,94.64
792.00,94.69
791.00,94.75
790.00,94.81
789.00,94.82
788.00,94.80
787.00,94.76
786.00,94.73
785.00,94.72
784.00,94.74
783.00,94.78
782.00,94.81
781.00,94.83
780.00,94.82
779.00,94.79
778.00,94.76
777.00,94.75
776.00,94.75
775.00,94.76
774.00,94.77
773.00,94.79
772.00,94.80
771.00,94.81
770.00,94.81
769.00,94.80
768.00,94.78
767.00,94.77
766.00,94.76
765.00,94.78
764.00,94.83
763.00,94.89
762.00,94.93
761.00,94.95
760.00,94.96
759.00,94.96
758.00,94.95
757.00,94.92
756.00,94.90
755.00,94.92
754.00,94.96
753.00,95.01
752.00,95.03
751.00,95.01
750.00,94.99
749.00,94.96
748.00,94.94
747.00,94.92
746.00,94.91
745.00,94.90
744.00,94.91
743.00,94.91
742.00,94.91
741.00,94.90
740.00,94.88
739.00,94.84
738.00,94.74
737.00,94.55
736.00,94.21
735.00,93.60
734.00,92.55
733.00,91.08
732.00,89.53
731.00,88.41
730.00,88.11
729.00,88.58
728.00,89.38
727.00,90.06
726.00,90.37
725.00,90.26
724.00,89.72
723.00,88.65
722.00,86.94
721.00,84.62
720.00,82.01
719.00,79.57
718.00,77.66
717.00,76.43
716.00,76.00
715.00,76.49
714.00,77.85
713.00,79.81
712.00,81.95
711.00,83.93
710.00,85.58
709.00,86.89
708.00,87.93
707.00,88.77
706.00,89.46
705.00,90.03
704.00,90.47
703.00,90.81
702.00,91.10
701.00,91.39
700.00,91.67
699.00,91.90
698.00,92.06
697.00,92.13
696.00,92.16
695.00,92.20
694.00,92.29
693.00,92.42
692.00,92.54
691.00,92.63
690.00,92.68
689.00,92.74
688.00,92.83
687.00,92.93
686.00,93.03
685.00,93.11
684.00,93.17
683.00,93.22
682.00,93.26
681.00,93.28
680.00,93.29
679.00,93.30
678.00,93.33
677.00,93.38
676.00,93.42
675.00,93.46
674.00,93.50
673.00,93.53
672.00,93.54
671.00,93.53
670.00,93.52
669.00,93.57
668.00,93.60
667.00,93.58
666.00,93.61
665.00,93.66
664.00,93.67
663.00,93.64
662.00,93.64
661.00,93.72
660.00,93.85
659.00,93.94
658.00,93.95
657.00,93.90
656.00,93.84
655.00,93.82
654.00,93.84
653.00,93.91
652.00,93.97
651.00,93.99
650.00,93.98
649.00,94.00
648.00,94.06
647.00,94.10
646.00,94.03
645.00,93.89
644.00,93.73
643.00,93.62
642.00,93.54
641.00,93.46
640.00,93.39
639.00,93.36
638.00,93.42
637.00,93.54
636.00,93.64
635.00,93.70
634.00,93.71
633.00,93.68
632.00,93.60
631.00,93.50
630.00,93.50
629.00,93.69
628.00,94.05
627.00,94.38
626.00,94.51
625.00,94.35
624.00,94.03
623.00,93.77
622.00,93.73
621.00,93.87
620.00,94.07
619.00,94.23
618.00,94.38
617.00,94.50
616.00,94.50
615.00,94.37
614.00,94.29
613.00,94.40
612.00,94.56
611.00,94.49
610.00,94.16
609.00,93.80
608.00,93.68
607.00,93.77
606.00,93.88
605.00,93.86
604.00,93.75
603.00,93.71
602.00,93.82
601.00,93.98
600.00,94.01
599.00,93.92
598.00,93.83
597.00,93.81
596.00,93.74
595.00,93.51
594.00,93.22
593.00,93.08
592.00,93.13
591.00,93.24
590.00,93.32
589.00,93.46
588.00,93.72
587.00,94.04
586.00,94.24
585.00,94.22
584.00,94.00
583.00,93.66
582.00,93.37
581.00,93.33
580.00,93.57
579.00,93.95
578.00,94.13
577.00,93.82
576.00,93.04
575.00,92.28
574.00,92.22
573.00,92.95
572.00,93.83
571.00,94.10
570.00,93.67
569.00,93.18
568.00,93.15
567.00,93.50
566.00,93.84
565.00,93.92
564.00,93.76
563.00,93.56
562.00,93.55
561.00,93.79
560.00,94.14
559.00,94.49
558.00,94.87
557.00,95.27
556.00,95.38
555.00,94.78
554.00,93.64
553.00,92.61
552.00,92.09
551.00,91.97
550.00,91.96
