Created as New Dataset,127 Shaw Industries
cm-1,%T
4000.00,101.30
3999.00,101.29
3998.00,101.29
3997.00,101.29
3996.00,101.28
3995.00,101.26
3994.00,101.25
3993.00,101.24
3992.00,101.24
3991.00,101.24
3990.00,101.25
3989.00,101.26
3988.00,101.27
3987.00,101.28
3986.00,101.29
3985.00,101.30
3984.00,101.30
3983.00,101.29
3982.00,101.27
3981.00,101.26
3980.00,101.25
3979.00,101.26
3978.00,101.27
3977.00,101.27
3976.00,101.27
3975.00,101.27
3974.00,101.25
3973.00,101.25
3972.00,101.24
3971.00,101.24
3970.00,101.23
3969.00,101.22
3968.00,101.21
3967.00,101.20
3966.00,101.20
3965.00,101.22
3964.00,101.25
3963.00,101.28
3962.00,101.29
3961.00,101.29
3960.00,101.29
3959.00,101.29
3958.00,101.30
3957.00,101.31
3956.00,101.31
3955.00,101.31
3954.00,101.30
3953.00,101.30
3952.00,101.30
3951.00,101.31
3950.00,101.31
3949.00,101.32
3948.00,101.33
3947.00,101.35
3946.00,101.37
3945.00,101.37
3944.00,101.36
3943.00,101.34
3942.00,101.31
3941.00,101.29
3940.00,101.28
3939.00,101.27
3938.00,101.28
3937.00,101.29
3936.00,101.30
3935.00,101.30
3934.00,101.29
3933.00,101.27
3932.00,101.25
3931.00,101.25
3930.00,101.25
3929.00,101.26
3928.00,101.27
3927.00,101.27
3926.00,101.25
3925.00,101.22
3924.00,101.20
3923.00,101.20
3922.00,101.20
3921.00,101.21
3920.00,101.21
3919.00,101.20
3918.00,101.19
3917.00,101.20
3916.00,101.22
3915.00,101.27
3914.00,101.30
3913.00,101.32
3912.00,101.33
3911.00,101.32
3910.00,101.31
3909.00,101.30
3908.00,101.30
3907.00,101.29
3906.00,101.28
3905.00,101.27
3904.00,101.27
3903.00,101.28
3902.00,101.28
3901.00,101.25
3900.00,101.22
3899.00,101.21
3898.00,101.22
3897.00,101.24
3896.00,101.26
3895.00,101.29
3894.00,101.32
3893.00,101.33
3892.00,101.32
3891.00,101.30
3890.00,101.28
3889.00,101.25
3888.00,101.21
3887.00,101.17
3886.00,101.16
3885.00,101.19
3884.00,101.23
3883.00,101.24
3882.00,101.22
3881.00,101.22
3880.00,101.24
3879.00,101.27
3878.00,101.27
3877.00,101.25
3876.00,101.22
3875.00,101.21
3874.00,101.24
3873.00,101.27
3872.00,101.26
3871.00,101.22
3870.00,101.18
3869.00,101.18
3868.00,101.21
3867.00,101.22
3866.00,101.20
3865.00,101.19
3864.00,101.19
3863.00,101.19
3862.00,101.19
3861.00,101.20
3860.00,101.22
3859.00,101.24
3858.00,101.25
3857.00,101.25
3856.00,101.24
3855.00,101.21
3854.00,101.18
3853.00,101.19
3852.00,101.24
3851.00,101.25
3850.00,101.22
3849.00,101.20
3848.00,101.21
3847.00,101.24
3846.00,101.27
3845.00,101.29
3844.00,101.31
3843.00,101.32
3842.00,101.33
3841.00,101.33
3840.00,101.30
3839.00,101.25
3838.00,101.22
3837.00,101.20
3836.00,101.20
3835.00,101.18
3834.00,101.17
3833.00,101.16
3832.00,101.17
3831.00,101.19
3830.00,101.22
3829.00,101.23
3828.00,101.23
3827.00,101.21
3826.00,101.21
3825.00,101.22
3824.00,101.20
3823.00,101.17
3822.00,101.13
3821.00,101.14
3820.00,101.19
3819.00,101.22
3818.00,101.18
3817.00,101.11
3816.00,101.06
3815.00,101.06
3814.00,101.08
3813.00,101.08
3812.00,101.08
3811.00,101.10
3810.00,101.13
3809.00,101.14
3808.00,101.14
3807.00,101.15
3806.00,101.18
3805.00,101.19
3804.00,101.16
3803.00,101.11
3802.00,101.08
3801.00,101.10
3800.00,101.14
3799.00,101.14
3798.00,101.11
3797.00,101.10
3796.00,101.12
3795.00,101.15
3794.00,101.16
3793.00,101.15
3792.00,101.14
3791.00,101.15
3790.00,101.17
3789.00,101.17
3788.00,101.17
3787.00,101.15
3786.00,101.14
3785.00,101.12
3784.00,101.11
3783.00,101.11
3782.00,101.12
3781.00,101.13
3780.00,101.15
3779.00,101.17
3778.00,101.18
3777.00,101.16
3776.00,101.11
3775.00,101.07
3774.00,101.05
3773.00,101.06
3772.00,101.07
3771.00,101.08
3770.00,101.09
3769.00,101.10
3768.00,101.10
3767.00,101.08
3766.00,101.07
3765.00,101.07
3764.00,101.07
3763.00,101.08
3762.00,101.06
3761.00,101.06
3760.00,101.07
3759.00,101.08
3758.00,101.08
3757.00,101.08
3756.00,101.09
3755.00,101.11
3754.00,101.13
3753.00,101.15
3752.00,101.14
3751.00,101.08
3750.00,101.02
3749.00,100.99
3748.00,100.98
3747.00,100.98
3746.00,100.95
3745.00,100.90
3744.00,100.89
3743.00,100.92
3742.00,100.94
3741.00,100.93
3740.00,100.95
3739.00,101.01
3738.00,101.05
3737.00,101.06
3736.00,101.06
3735.00,101.05
3734.00,101.04
3733.00,101.01
3732.00,100.98
3731.00,100.97
3730.00,100.97
3729.00,100.96
3728.00,100.94
3727.00,100.93
3726.00,100.94
3725.00,100.96
3724.00,100.97
3723.00,100.98
3722.00,100.98
3721.00,101.00
3720.00,101.01
3719.00,101.01
3718.00,101.00
3717.00,101.01
3716.00,101.02
3715.00,101.03
3714.00,101.01
3713.00,100.99
3712.00,100.97
3711.00,100.96
3710.00,100.95
3709.00,100.94
3708.00,100.93
3707.00,100.92
3706.00,100.93
3705.00,100.95
3704.00,100.96
3703.00,100.97
3702.00,100.97
3701.00,100.97
3700.00,100.97
3699.00,100.97
3698.00,100.96
3697.00,100.96
3696.00,100.97
3695.00,100.99
3694.00,101.02
3693.00,101.03
3692.00,101.04
3691.00,101.02
3690.00,100.97
3689.00,100.91
3688.00,100.89
3687.00,100.89
3686.00,100.89
3685.00,100.89
3684.00,100.89
3683.00,100.91
3682.00,100.93
3681.00,100.95
3680.00,100.99
3679.00,101.03
3678.00,101.05
3677.00,101.04
3676.00,101.00
3675.00,100.99
3674.00,101.00
3673.00,100.98
3672.00,100.90
3671.00,100.84
3670.00,100.84
3669.00,100.88
3668.00,100.93
3667.00,100.95
3666.00,100.95
3665.00,100.95
3664.00,100.95
3663.00,100.93
3662.00,100.91
3661.00,100.90
3660.00,100.89
3659.00,100.89
3658.00,100.88
3657.00,100.87
3656.00,100.87
3655.00,100.89
3654.00,100.90
3653.00,100.90
3652.00,100.90
3651.00,100.91
3650.00,100.93
3649.00,100.95
3648.00,100.96
3647.00,100.95
3646.00,100.94
3645.00,100.93
3644.00,100.93
3643.00,100.92
3642.00,100.91
3641.00,100.91
3640.00,100.89
3639.00,100.88
3638.00,100.87
3637.00,100.87
3636.00,100.89
3635.00,100.92
3634.00,100.96
3633.00,101.00
3632.00,101.00
3631.00,100.96
3630.00,100.91
3629.00,100.89
3628.00,100.90
3627.00,100.92
3626.00,100.91
3625.00,100.89
3624.00,100.90
3623.00,100.93
3622.00,100.95
3621.00,100.96
3620.00,100.97
3619.00,100.97
3618.00,100.98
3617.00,100.98
3616.00,100.96
3615.00,100.93
3614.00,100.90
3613.00,100.87
3612.00,100.85
3611.00,100.81
3610.00,100.79
3609.00,100.77
3608.00,100.79
3607.00,100.82
3606.00,100.85
3605.00,100.86
3604.00,100.87
3603.00,100.87
3602.00,100.88
3601.00,100.88
3600.00,100.89
3599.00,100.91
3598.00,100.93
3597.00,100.95
3596.00,100.96
3595.00,100.96
3594.00,100.96
3593.00,100.96
3592.00,100.95
3591.00,100.93
3590.00,100.91
3589.00,100.88
3588.00,100.85
3587.00,100.84
3586.00,100.85
3585.00,100.87
3584.00,100.88
3583.00,100.88
3582.00,100.88
3581.00,100.88
3580.00,100.88
3579.00,100.90
3578.00,100.92
3577.00,100.94
3576.00,100.95
3575.00,100.95
3574.00,100.95
3573.00,100.94
3572.00,100.94
3571.00,100.94
3570.00,100.93
3569.00,100.90
3568.00,100.88
3567.00,100.86
3566.00,100.86
3565.00,100.86
3564.00,100.85
3563.00,100.86
3562.00,100.88
3561.00,100.91
3560.00,100.93
3559.00,100.93
3558.00,100.91
3557.00,100.89
3556.00,100.87
3555.00,100.86
3554.00,100.86
3553.00,100.86
3552.00,100.87
3551.00,100.88
3550.00,100.88
3549.00,100.87
3548.00,100.85
3547.00,100.84
3546.00,100.83
3545.00,100.82
3544.00,100.80
3543.00,100.76
3542.00,100.74
3541.00,100.74
3540.00,100.77
3539.00,100.80
3538.00,100.82
3537.00,100.83
3536.00,100.83
3535.00,100.83
3534.00,100.83
3533.00,100.84
3532.00,100.83
3531.00,100.83
3530.00,100.81
3529.00,100.80
3528.00,100.79
3527.00,100.79
3526.00,100.80
3525.00,100.81
3524.00,100.82
3523.00,100.82
3522.00,100.81
3521.00,100.80
3520.00,100.81
3519.00,100.82
3518.00,100.84
3517.00,100.84
3516.00,100.84
3515.00,100.84
3514.00,100.84
3513.00,100.85
3512.00,100.85
3511.00,100.84
3510.00,100.82
3509.00,100.79
3508.00,100.76
3507.00,100.74
3506.00,100.74
3505.00,100.75
3504.00,100.78
3503.00,100.80
3502.00,100.82
3501.00,100.81
3500.00,100.80
3499.00,100.77
3498.00,100.74
3497.00,100.73
3496.00,100.74
3495.00,100.77
3494.00,100.80
3493.00,100.83
3492.00,100.85
3491.00,100.85
3490.00,100.85
3489.00,100.84
3488.00,100.84
3487.00,100.85
3486.00,100.86
3485.00,100.86
3484.00,100.85
3483.00,100.84
3482.00,100.82
3481.00,100.81
3480.00,100.78
3479.00,100.77
3478.00,100.76
3477.00,100.76
3476.00,100.75
3475.00,100.74
3474.00,100.73
3473.00,100.72
3472.00,100.72
3471.00,100.72
3470.00,100.72
3469.00,100.74
3468.00,100.77
3467.00,100.79
3466.00,100.80
3465.00,100.80
3464.00,100.79
3463.00,100.78
3462.00,100.77
3461.00,100.76
3460.00,100.76
3459.00,100.76
3458.00,100.75
3457.00,100.74
3456.00,100.72
3455.00,100.71
3454.00,100.71
3453.00,100.72
3452.00,100.73
3451.00,100.75
3450.00,100.75
3449.00,100.73
3448.00,100.72
3447.00,100.71
3446.00,100.71
3445.00,100.71
3444.00,100.72
3443.00,100.72
3442.00,100.73
3441.00,100.72
3440.00,100.72
3439.00,100.72
3438.00,100.72
3437.00,100.72
3436.00,100.73
3435.00,100.73
3434.00,100.74
3433.00,100.74
3432.00,100.73
3431.00,100.72
3430.00,100.70
3429.00,100.68
3428.00,100.67
3427.00,100.67
3426.00,100.66
3425.00,100.66
3424.00,100.67
3423.00,100.69
3422.00,100.71
3421.00,100.73
3420.00,100.74
3419.00,100.74
3418.00,100.74
3417.00,100.73
3416.00,100.72
3415.00,100.71
3414.00,100.70
3413.00,100.69
3412.00,100.69
3411.00,100.68
3410.00,100.66
3409.00,100.65
3408.00,100.65
3407.00,100.67
3406.00,100.70
3405.00,100.74
3404.00,100.76
3403.00,100.77
3402.00,100.76
3401.00,100.75
3400.00,100.74
3399.00,100.73
3398.00,100.73
3397.00,100.74
3396.00,100.76
3395.00,100.76
3394.00,100.76
3393.00,100.75
3392.00,100.73
3391.00,100.70
3390.00,100.68
3389.00,100.67
3388.00,100.68
3387.00,100.69
3386.00,100.70
3385.00,100.69
3384.00,100.68
3383.00,100.67
3382.00,100.68
3381.00,100.69
3380.00,100.70
3379.00,100.69
3378.00,100.67
3377.00,100.64
3376.00,100.62
3375.00,100.63
3374.00,100.65
3373.00,100.67
3372.00,100.68
3371.00,100.68
3370.00,100.67
3369.00,100.67
3368.00,100.67
3367.00,100.68
3366.00,100.70
3365.00,100.70
3364.00,100.70
3363.00,100.69
3362.00,100.68
3361.00,100.68
3360.00,100.70
3359.00,100.71
3358.00,100.72
3357.00,100.72
3356.00,100.71
3355.00,100.69
3354.00,100.67
3353.00,100.66
3352.00,100.66
3351.00,100.66
3350.00,100.66
3349.00,100.65
3348.00,100.65
3347.00,100.65
3346.00,100.65
3345.00,100.67
3344.00,100.68
3343.00,100.69
3342.00,100.67
3341.00,100.65
3340.00,100.63
3339.00,100.61
3338.00,100.62
3337.00,100.64
3336.00,100.67
3335.00,100.69
3334.00,100.71
3333.00,100.72
3332.00,100.72
3331.00,100.72
3330.00,100.71
3329.00,100.69
3328.00,100.68
3327.00,100.67
3326.00,100.68
3325.00,100.69
3324.00,100.71
3323.00,100.72
3322.00,100.72
3321.00,100.72
3320.00,100.73
3319.00,100.74
3318.00,100.75
3317.00,100.75
3316.00,100.75
3315.00,100.73
3314.00,100.70
3313.00,100.67
3312.00,100.65
3311.00,100.65
3310.00,100.67
3309.00,100.69
3308.00,100.72
3307.00,100.73
3306.00,100.73
3305.00,100.72
3304.00,100.70
3303.00,100.70
3302.00,100.71
3301.00,100.72
3300.00,100.73
3299.00,100.73
3298.00,100.72
3297.00,100.70
3296.00,100.68
3295.00,100.66
3294.00,100.67
3293.00,100.68
3292.00,100.70
3291.00,100.71
3290.00,100.71
3289.00,100.70
3288.00,100.68
3287.00,100.67
3286.00,100.65
3285.00,100.64
3284.00,100.65
3283.00,100.67
3282.00,100.68
3281.00,100.68
3280.00,100.67
3279.00,100.65
3278.00,100.63
3277.00,100.64
3276.00,100.66
3275.00,100.68
3274.00,100.69
3273.00,100.69
3272.00,100.68
3271.00,100.68
3270.00,100.68
3269.00,100.68
3268.00,100.69
3267.00,100.69
3266.00,100.69
3265.00,100.69
3264.00,100.70
3263.00,100.71
3262.00,100.73
3261.00,100.73
3260.00,100.72
3259.00,100.70
3258.00,100.69
3257.00,100.67
3256.00,100.67
3255.00,100.66
3254.00,100.65
3253.00,100.64
3252.00,100.64
3251.00,100.65
3250.00,100.66
3249.00,100.67
3248.00,100.68
3247.00,100.68
3246.00,100.68
3245.00,100.68
3244.00,100.67
3243.00,100.66
3242.00,100.65
3241.00,100.65
3240.00,100.65
3239.00,100.65
3238.00,100.64
3237.00,100.63
3236.00,100.63
3235.00,100.64
3234.00,100.66
3233.00,100.67
3232.00,100.67
3231.00,100.65
3230.00,100.64
3229.00,100.63
3228.00,100.62
3227.00,100.61
3226.00,100.60
3225.00,100.59
3224.00,100.59
3223.00,100.59
3222.00,100.59
3221.00,100.58
3220.00,100.56
3219.00,100.55
3218.00,100.53
3217.00,100.53
3216.00,100.55
3215.00,100.58
3214.00,100.61
3213.00,100.62
3212.00,100.61
3211.00,100.60
3210.00,100.58
3209.00,100.58
3208.00,100.58
3207.00,100.59
3206.00,100.60
3205.00,100.59
3204.00,100.58
3203.00,100.56
3202.00,100.56
3201.00,100.56
3200.00,100.57
3199.00,100.57
3198.00,100.57
3197.00,100.56
3196.00,100.55
3195.00,100.56
3194.00,100.57
3193.00,100.59
3192.00,100.59
3191.00,100.59
3190.00,100.58
3189.00,100.57
3188.00,100.56
3187.00,100.57
3186.00,100.58
3185.00,100.59
3184.00,100.60
3183.00,100.60
3182.00,100.59
3181.00,100.58
3180.00,100.57
3179.00,100.58
3178.00,100.59
3177.00,100.60
3176.00,100.61
3175.00,100.60
3174.00,100.59
3173.00,100.58
3172.00,100.57
3171.00,100.58
3170.00,100.60
3169.00,100.61
3168.00,100.61
3167.00,100.60
3166.00,100.60
3165.00,100.59
3164.00,100.59
3163.00,100.59
3162.00,100.58
3161.00,100.59
3160.00,100.60
3159.00,100.63
3158.00,100.66
3157.00,100.67
3156.00,100.66
3155.00,100.65
3154.00,100.64
3153.00,100.62
3152.00,100.62
3151.00,100.61
3150.00,100.61
3149.00,100.63
3148.00,100.65
3147.00,100.66
3146.00,100.66
3145.00,100.63
3144.00,100.61
3143.00,100.60
3142.00,100.61
3141.00,100.61
3140.00,100.61
3139.00,100.61
3138.00,100.61
3137.00,100.62
3136.00,100.63
3135.00,100.64
3134.00,100.64
3133.00,100.64
3132.00,100.64
3131.00,100.65
3130.00,100.66
3129.00,100.67
3128.00,100.67
3127.00,100.67
3126.00,100.67
3125.00,100.67
3124.00,100.69
3123.00,100.70
3122.00,100.69
3121.00,100.68
3120.00,100.65
3119.00,100.64
3118.00,100.64
3117.00,100.65
3116.00,100.66
3115.00,100.67
3114.00,100.69
3113.00,100.69
3112.00,100.70
3111.00,100.70
3110.00,100.69
3109.00,100.68
3108.00,100.68
3107.00,100.67
3106.00,100.67
3105.00,100.66
3104.00,100.65
3103.00,100.64
3102.00,100.65
3101.00,100.67
3100.00,100.69
3099.00,100.69
3098.00,100.69
3097.00,100.69
3096.00,100.69
3095.00,100.70
3094.00,100.70
3093.00,100.71
3092.00,100.71
3091.00,100.72
3090.00,100.71
3089.00,100.70
3088.00,100.69
3087.00,100.68
3086.00,100.67
3085.00,100.67
3084.00,100.68
3083.00,100.69
3082.00,100.70
3081.00,100.70
3080.00,100.69
3079.00,100.68
3078.00,100.68
3077.00,100.68
3076.00,100.69
3075.00,100.69
3074.00,100.68
3073.00,100.68
3072.00,100.68
3071.00,100.68
3070.00,100.67
3069.00,100.67
3068.00,100.68
3067.00,100.68
3066.00,100.68
3065.00,100.68
3064.00,100.68
3063.00,100.69
3062.00,100.69
3061.00,100.69
3060.00,100.69
3059.00,100.68
3058.00,100.67
3057.00,100.66
3056.00,100.65
3055.00,100.65
3054.00,100.65
3053.00,100.65
3052.00,100.65
3051.00,100.65
3050.00,100.64
3049.00,100.63
3048.00,100.63
3047.00,100.64
3046.00,100.64
3045.00,100.64
3044.00,100.64
3043.00,100.64
3042.00,100.65
3041.00,100.65
3040.00,100.65
3039.00,100.64
3038.00,100.63
3037.00,100.63
3036.00,100.64
3035.00,100.65
3034.00,100.65
3033.00,100.64
3032.00,100.63
3031.00,100.61
3030.00,100.60
3029.00,100.59
3028.00,100.56
3027.00,100.54
3026.00,100.52
3025.00,100.52
3024.00,100.53
3023.00,100.54
3022.00,100.53
3021.00,100.52
3020.00,100.51
3019.00,100.50
3018.00,100.49
3017.00,100.49
3016.00,100.47
3015.00,100.46
3014.00,100.45
3013.00,100.44
3012.00,100.42
3011.00,100.40
3010.00,100.37
3009.00,100.34
3008.00,100.33
3007.00,100.31
3006.00,100.29
3005.00,100.26
3004.00,100.23
3003.00,100.20
3002.00,100.18
3001.00,100.16
3000.00,100.15
2999.00,100.13
2998.00,100.10
2997.00,100.06
2996.00,100.00
2995.00,99.94
2994.00,99.88
2993.00,99.81
2992.00,99.75
2991.00,99.68
2990.00,99.62
2989.00,99.54
2988.00,99.44
2987.00,99.33
2986.00,99.20
2985.00,99.06
2984.00,98.91
2983.00,98.75
2982.00,98.56
2981.00,98.35
2980.00,98.12
2979.00,97.87
2978.00,97.59
2977.00,97.27
2976.00,96.91
2975.00,96.51
2974.00,96.04
2973.00,95.51
2972.00,94.91
2971.00,94.25
2970.00,93.54
2969.00,92.80
2968.00,92.01
2967.00,91.18
2966.00,90.33
2965.00,89.47
2964.00,88.66
2963.00,87.93
2962.00,87.29
2961.00,86.74
2960.00,86.27
2959.00,85.83
2958.00,85.39
2957.00,84.89
2956.00,84.29
2955.00,83.59
2954.00,82.82
2953.00,82.06
2952.00,81.42
2951.00,81.00
2950.00,80.90
2949.00,81.17
2948.00,81.81
2947.00,82.76
2946.00,83.93
2945.00,85.20
2944.00,86.46
2943.00,87.61
2942.00,88.56
2941.00,89.27
2940.00,89.73
2939.00,89.94
2938.00,89.94
2937.00,89.75
2936.00,89.40
2935.00,88.89
2934.00,88.23
2933.00,87.45
2932.00,86.58
2931.00,85.64
2930.00,84.66
2929.00,83.66
2928.00,82.68
2927.00,81.74
2926.00,80.84
2925.00,79.99
2924.00,79.17
2923.00,78.36
2922.00,77.57
2921.00,76.82
2920.00,76.17
2919.00,75.70
2918.00,75.49
2917.00,75.56
2916.00,75.91
2915.00,76.49
2914.00,77.19
2913.00,77.96
2912.00,78.73
2911.00,79.45
2910.00,80.11
2909.00,80.73
2908.00,81.32
2907.00,81.92
2906.00,82.54
2905.00,83.17
2904.00,83.81
2903.00,84.44
2902.00,85.07
2901.00,85.69
2900.00,86.28
2899.00,86.85
2898.00,87.38
2897.00,87.87
2896.00,88.30
2895.00,88.66
2894.00,88.94
2893.00,89.15
2892.00,89.30
2891.00,89.41
2890.00,89.46
2889.00,89.47
2888.00,89.44
2887.00,89.35
2886.00,89.23
2885.00,89.07
2884.00,88.88
2883.00,88.65
2882.00,88.38
2881.00,88.08
2880.00,87.80
2879.00,87.57
2878.00,87.40
2877.00,87.31
2876.00,87.29
2875.00,87.30
2874.00,87.32
2873.00,87.31
2872.00,87.24
2871.00,87.10
2870.00,86.93
2869.00,86.77
2868.00,86.69
2867.00,86.77
2866.00,87.08
2865.00,87.68
2864.00,88.54
2863.00,89.57
2862.00,90.66
2861.00,91.70
2860.00,92.61
2859.00,93.37
2858.00,93.97
2857.00,94.43
2856.00,94.75
2855.00,94.94
2854.00,95.02
2853.00,95.00
2852.00,94.89
2851.00,94.71
2850.00,94.44
2849.00,94.08
2848.00,93.62
2847.00,93.05
2846.00,92.40
2845.00,91.70
2844.00,90.97
2843.00,90.23
2842.00,89.53
2841.00,88.90
2840.00,88.39
2839.00,88.09
2838.00,88.04
2837.00,88.28
2836.00,88.82
2835.00,89.61
2834.00,90.56
2833.00,91.60
2832.00,92.63
2831.00,93.58
2830.00,94.43
2829.00,95.14
2828.00,95.73
2827.00,96.19
2826.00,96.57
2825.00,96.88
2824.00,97.14
2823.00,97.36
2822.00,97.55
2821.00,97.72
2820.00,97.86
2819.00,97.99
2818.00,98.09
2817.00,98.18
2816.00,98.27
2815.00,98.36
2814.00,98.44
2813.00,98.51
2812.00,98.57
2811.00,98.61
2810.00,98.66
2809.00,98.71
2808.00,98.79
2807.00,98.87
2806.00,98.95
2805.00,99.03
2804.00,99.10
2803.00,99.17
2802.00,99.24
2801.00,99.30
2800.00,99.36
2799.00,99.40
2798.00,99.43
2797.00,99.44
2796.00,99.46
2795.00,99.47
2794.00,99.50
2793.00,99.54
2792.00,99.58
2791.00,99.62
2790.00,99.67
2789.00,99.71
2788.00,99.76
2787.00,99.80
2786.00,99.83
2785.00,99.86
2784.00,99.88
2783.00,99.89
2782.00,99.91
2781.00,99.94
2780.00,99.98
2779.00,100.01
2778.00,100.03
2777.00,100.05
2776.00,100.06
2775.00,100.06
2774.00,100.07
2773.00,100.07
2772.00,100.08
2771.00,100.09
2770.00,100.10
2769.00,100.11
2768.00,100.12
2767.00,100.12
2766.00,100.14
2765.00,100.15
2764.00,100.17
2763.00,100.17
2762.00,100.17
2761.00,100.17
2760.00,100.18
2759.00,100.19
2758.00,100.21
2757.00,100.22
2756.00,100.23
2755.00,100.23
2754.00,100.24
2753.00,100.25
2752.00,100.26
2751.00,100.27
2750.00,100.27
2749.00,100.25
2748.00,100.23
2747.00,100.21
2746.00,100.20
2745.00,100.19
2744.00,100.18
2743.00,100.17
2742.00,100.16
2741.00,100.14
2740.00,100.12
2739.00,100.09
2738.00,100.06
2737.00,100.04
2736.00,100.03
2735.00,100.02
2734.00,100.00
2733.00,99.98
2732.00,99.95
2731.00,99.92
2730.00,99.89
2729.00,99.86
2728.00,99.82
2727.00,99.79
2726.00,99.76
2725.00,99.73
2724.00,99.71
2723.00,99.69
2722.00,99.69
2721.00,99.70
2720.00,99.73
2719.00,99.78
2718.00,99.83
2717.00,99.88
2716.00,99.92
2715.00,99.97
2714.00,100.02
2713.00,100.05
2712.00,100.08
2711.00,100.12
2710.00,100.15
2709.00,100.18
2708.00,100.19
2707.00,100.19
2706.00,100.19
2705.00,100.20
2704.00,100.22
2703.00,100.24
2702.00,100.25
2701.00,100.26
2700.00,100.27
2699.00,100.28
2698.00,100.29
2697.00,100.30
2696.00,100.30
2695.00,100.30
2694.00,100.30
2693.00,100.29
2692.00,100.29
2691.00,100.29
2690.00,100.29
2689.00,100.30
2688.00,100.30
2687.00,100.30
2686.00,100.30
2685.00,100.30
2684.00,100.30
2683.00,100.30
2682.00,100.30
2681.00,100.31
2680.00,100.31
2679.00,100.31
2678.00,100.30
2677.00,100.30
2676.00,100.30
2675.00,100.30
2674.00,100.30
2673.00,100.30
2672.00,100.30
2671.00,100.30
2670.00,100.30
2669.00,100.29
2668.00,100.29
2667.00,100.29
2666.00,100.29
2665.00,100.29
2664.00,100.29
2663.00,100.29
2662.00,100.27
2661.00,100.26
2660.00,100.25
2659.00,100.24
2658.00,100.23
2657.00,100.21
2656.00,100.20
2655.00,100.20
2654.00,100.21
2653.00,100.21
2652.00,100.22
2651.00,100.22
2650.00,100.23
2649.00,100.23
2648.00,100.23
2647.00,100.22
2646.00,100.22
2645.00,100.22
2644.00,100.22
2643.00,100.21
2642.00,100.19
2641.00,100.18
2640.00,100.18
2639.00,100.18
2638.00,100.18
2637.00,100.19
2636.00,100.19
2635.00,100.19
2634.00,100.18
2633.00,100.17
2632.00,100.15
2631.00,100.13
2630.00,100.10
2629.00,100.08
2628.00,100.07
2627.00,100.06
2626.00,100.04
2625.00,100.03
2624.00,100.02
2623.00,100.03
2622.00,100.03
2621.00,100.03
2620.00,100.03
2619.00,100.02
2618.00,100.01
2617.00,100.01
2616.00,100.00
2615.00,100.00
2614.00,100.00
2613.00,100.00
2612.00,100.00
2611.00,99.99
2610.00,99.97
2609.00,99.96
2608.00,99.97
2607.00,99.99
2606.00,100.01
2605.00,100.02
2604.00,100.01
2603.00,100.00
2602.00,99.99
2601.00,100.00
2600.00,100.02
2599.00,100.02
2598.00,100.01
2597.00,99.98
2596.00,99.95
2595.00,99.93
2594.00,99.93
2593.00,99.94
2592.00,99.93
2591.00,99.91
2590.00,99.88
2589.00,99.86
2588.00,99.83
2587.00,99.80
2586.00,99.77
2585.00,99.74
2584.00,99.73
2583.00,99.74
2582.00,99.76
2581.00,99.77
2580.00,99.78
2579.00,99.80
2578.00,99.82
2577.00,99.84
2576.00,99.84
2575.00,99.83
2574.00,99.82
2573.00,99.81
2572.00,99.82
2571.00,99.84
2570.00,99.85
2569.00,99.87
2568.00,99.89
2567.00,99.91
2566.00,99.91
2565.00,99.90
2564.00,99.88
2563.00,99.88
2562.00,99.90
2561.00,99.94
2560.00,99.97
2559.00,99.99
2558.00,99.98
2557.00,99.95
2556.00,99.93
2555.00,99.93
2554.00,99.94
2553.00,99.95
2552.00,99.96
2551.00,99.95
2550.00,99.94
2549.00,99.94
2548.00,99.94
2547.00,99.95
2546.00,99.96
2545.00,99.97
2544.00,99.96
2543.00,99.94
2542.00,99.91
2541.00,99.90
2540.00,99.91
2539.00,99.94
2538.00,99.96
2537.00,99.97
2536.00,99.96
2535.00,99.95
2534.00,99.94
2533.00,99.93
2532.00,99.92
2531.00,99.92
2530.00,99.93
2529.00,99.95
2528.00,99.96
2527.00,99.97
2526.00,99.98
2525.00,99.99
2524.00,99.99
2523.00,99.98
2522.00,99.97
2521.00,99.96
2520.00,99.96
2519.00,99.96
2518.00,99.96
2517.00,99.97
2516.00,99.99
2515.00,100.01
2514.00,100.03
2513.00,100.04
2512.00,100.03
2511.00,100.01
2510.00,99.99
2509.00,99.98
2508.00,99.99
2507.00,100.01
2506.00,100.03
2505.00,100.03
2504.00,100.02
2503.00,100.02
2502.00,100.02
2501.00,100.02
2500.00,100.00
2499.00,99.98
2498.00,99.97
2497.00,99.98
2496.00,100.01
2495.00,100.04
2494.00,100.06
2493.00,100.07
2492.00,100.07
2491.00,100.05
2490.00,100.02
2489.00,100.01
2488.00,99.99
2487.00,99.98
2486.00,99.97
2485.00,99.99
2484.00,100.02
2483.00,100.06
2482.00,100.07
2481.00,100.06
2480.00,100.04
2479.00,100.03
2478.00,100.02
2477.00,100.02
2476.00,100.02
2475.00,100.03
2474.00,100.04
2473.00,100.05
2472.00,100.06
2471.00,100.06
2470.00,100.06
2469.00,100.06
2468.00,100.06
2467.00,100.05
2466.00,100.04
2465.00,100.03
2464.00,100.02
2463.00,100.01
2462.00,100.00
2461.00,99.98
2460.00,99.96
2459.00,99.94
2458.00,99.95
2457.00,99.96
2456.00,99.98
2455.00,100.00
2454.00,100.00
2453.00,100.00
2452.00,99.99
2451.00,99.98
2450.00,99.97
2449.00,99.95
2448.00,99.94
2447.00,99.94
2446.00,99.95
2445.00,99.96
2444.00,99.98
2443.00,100.01
2442.00,100.04
2441.00,100.06
2440.00,100.05
2439.00,100.03
2438.00,100.02
2437.00,100.02
2436.00,100.02
2435.00,100.02
2434.00,100.01
2433.00,100.00
2432.00,100.00
2431.00,100.00
2430.00,100.00
2429.00,99.99
2428.00,99.99
2427.00,99.99
2426.00,100.00
2425.00,100.01
2424.00,100.03
2423.00,100.04
2422.00,100.05
2421.00,100.04
2420.00,100.02
2419.00,100.02
2418.00,100.02
2417.00,100.02
2416.00,100.03
2415.00,100.05
2414.00,100.07
2413.00,100.08
2412.00,100.07
2411.00,100.05
2410.00,100.04
2409.00,100.04
2408.00,100.06
2407.00,100.09
2406.00,100.11
2405.00,100.11
2404.00,100.10
2403.00,100.09
2402.00,100.09
2401.00,100.11
2400.00,100.14
2399.00,100.16
2398.00,100.16
2397.00,100.15
2396.00,100.16
2395.00,100.16
2394.00,100.17
2393.00,100.17
2392.00,100.18
2391.00,100.19
2390.00,100.19
2389.00,100.20
2388.00,100.20
2387.00,100.21
2386.00,100.23
2385.00,100.24
2384.00,100.26
2383.00,100.27
2382.00,100.27
2381.00,100.27
2380.00,100.27
2379.00,100.27
2378.00,100.29
2377.00,100.31
2376.00,100.33
2375.00,100.34
2374.00,100.34
2373.00,100.35
2372.00,100.37
2371.00,100.39
2370.00,100.40
2369.00,100.37
2368.00,100.32
2367.00,100.29
2366.00,100.31
2365.00,100.35
2364.00,100.38
2363.00,100.40
2362.00,100.42
2361.00,100.46
2360.00,100.48
2359.00,100.44
2358.00,100.36
2357.00,100.29
2356.00,100.27
2355.00,100.31
2354.00,100.36
2353.00,100.41
2352.00,100.44
2351.00,100.45
2350.00,100.44
2349.00,100.43
2348.00,100.44
2347.00,100.48
2346.00,100.55
2345.00,100.62
2344.00,100.68
2343.00,100.68
2342.00,100.62
2341.00,100.52
2340.00,100.42
2339.00,100.36
2338.00,100.32
2337.00,100.30
2336.00,100.30
2335.00,100.33
2334.00,100.38
2333.00,100.43
2332.00,100.46
2331.00,100.47
2330.00,100.47
2329.00,100.45
2328.00,100.41
2327.00,100.33
2326.00,100.24
2325.00,100.17
2324.00,100.14
2323.00,100.13
2322.00,100.12
2321.00,100.09
2320.00,100.05
2319.00,100.05
2318.00,100.08
2317.00,100.13
2316.00,100.16
2315.00,100.17
2314.00,100.15
2313.00,100.12
2312.00,100.09
2311.00,100.06
2310.00,100.05
2309.00,100.04
2308.00,100.02
2307.00,100.00
2306.00,99.99
2305.00,99.99
2304.00,100.00
2303.00,100.02
2302.00,100.01
2301.00,99.99
2300.00,99.95
2299.00,99.91
2298.00,99.89
2297.00,99.87
2296.00,99.86
2295.00,99.87
2294.00,99.87
2293.00,99.86
2292.00,99.83
2291.00,99.79
2290.00,99.76
2289.00,99.73
2288.00,99.70
2287.00,99.66
2286.00,99.63
2285.00,99.61
2284.00,99.60
2283.00,99.58
2282.00,99.57
2281.00,99.55
2280.00,99.53
2279.00,99.51
2278.00,99.50
2277.00,99.49
2276.00,99.49
2275.00,99.48
2274.00,99.47
2273.00,99.44
2272.00,99.41
2271.00,99.38
2270.00,99.35
2269.00,99.32
2268.00,99.30
2267.00,99.30
2266.00,99.31
2265.00,99.32
2264.00,99.32
2263.00,99.30
2262.00,99.29
2261.00,99.29
2260.00,99.28
2259.00,99.26
2258.00,99.24
2257.00,99.21
2256.00,99.18
2255.00,99.18
2254.00,99.19
2253.00,99.21
2252.00,99.20
2251.00,99.17
2250.00,99.14
2249.00,99.10
2248.00,99.07
2247.00,99.04
2246.00,99.01
2245.00,99.00
2244.00,98.99
2243.00,98.97
2242.00,98.95
2241.00,98.95
2240.00,98.98
2239.00,99.03
2238.00,99.06
2237.00,99.06
2236.00,99.04
2235.00,98.99
2234.00,98.93
2233.00,98.88
2232.00,98.85
2231.00,98.82
2230.00,98.81
2229.00,98.80
2228.00,98.79
2227.00,98.78
2226.00,98.79
2225.00,98.81
2224.00,98.83
2223.00,98.85
2222.00,98.83
2221.00,98.79
2220.00,98.73
2219.00,98.67
2218.00,98.63
2217.00,98.60
2216.00,98.58
2215.00,98.58
2214.00,98.59
2213.00,98.60
2212.00,98.59
2211.00,98.58
2210.00,98.56
2209.00,98.54
2208.00,98.51
2207.00,98.51
2206.00,98.52
2205.00,98.50
2204.00,98.45
2203.00,98.38
2202.00,98.34
2201.00,98.34
2200.00,98.36
2199.00,98.38
2198.00,98.38
2197.00,98.37
2196.00,98.36
2195.00,98.33
2194.00,98.28
2193.00,98.22
2192.00,98.16
2191.00,98.11
2190.00,98.08
2189.00,98.06
2188.00,98.06
2187.00,98.05
2186.00,98.07
2185.00,98.08
2184.00,98.07
2183.00,98.02
2182.00,97.97
2181.00,97.96
2180.00,97.99
2179.00,98.03
2178.00,98.06
2177.00,98.06
2176.00,98.05
2175.00,98.04
2174.00,98.02
2173.00,97.99
2172.00,97.95
2171.00,97.88
2170.00,97.79
2169.00,97.70
2168.00,97.63
2167.00,97.59
2166.00,97.55
2165.00,97.49
2164.00,97.42
2163.00,97.32
2162.00,97.21
2161.00,97.13
2160.00,97.13
2159.00,97.27
2158.00,97.49
2157.00,97.70
2156.00,97.86
2155.00,97.96
2154.00,98.03
2153.00,98.08
2152.00,98.10
2151.00,98.09
2150.00,98.08
2149.00,98.10
2148.00,98.16
2147.00,98.25
2146.00,98.34
2145.00,98.41
2144.00,98.47
2143.00,98.55
2142.00,98.64
2141.00,98.72
2140.00,98.79
2139.00,98.86
2138.00,98.92
2137.00,98.96
2136.00,98.98
2135.00,99.00
2134.00,99.04
2133.00,99.10
2132.00,99.16
2131.00,99.21
2130.00,99.22
2129.00,99.21
2128.00,99.19
2127.00,99.18
2126.00,99.20
2125.00,99.24
2124.00,99.28
2123.00,99.31
2122.00,99.32
2121.00,99.31
2120.00,99.31
2119.00,99.30
2118.00,99.30
2117.00,99.30
2116.00,99.29
2115.00,99.28
2114.00,99.27
2113.00,99.26
2112.00,99.26
2111.00,99.25
2110.00,99.24
2109.00,99.23
2108.00,99.23
2107.00,99.24
2106.00,99.23
2105.00,99.20
2104.00,99.18
2103.00,99.15
2102.00,99.14
2101.00,99.16
2100.00,99.20
2099.00,99.24
2098.00,99.26
2097.00,99.25
2096.00,99.22
2095.00,99.21
2094.00,99.22
2093.00,99.25
2092.00,99.26
2091.00,99.27
2090.00,99.28
2089.00,99.29
2088.00,99.30
2087.00,99.29
2086.00,99.27
2085.00,99.26
2084.00,99.25
2083.00,99.25
2082.00,99.23
2081.00,99.18
2080.00,99.11
2079.00,99.03
2078.00,98.98
2077.00,98.99
2076.00,99.05
2075.00,99.10
2074.00,99.12
2073.00,99.08
2072.00,99.00
2071.00,98.90
2070.00,98.82
2069.00,98.80
2068.00,98.83
2067.00,98.90
2066.00,98.95
2065.00,98.97
2064.00,98.98
2063.00,99.00
2062.00,99.00
2061.00,99.00
2060.00,98.98
2059.00,98.95
2058.00,98.90
2057.00,98.83
2056.00,98.77
2055.00,98.76
2054.00,98.77
2053.00,98.77
2052.00,98.73
2051.00,98.64
2050.00,98.53
2049.00,98.43
2048.00,98.37
2047.00,98.34
2046.00,98.34
2045.00,98.32
2044.00,98.29
2043.00,98.24
2042.00,98.19
2041.00,98.13
2040.00,98.05
2039.00,97.98
2038.00,97.93
2037.00,97.93
2036.00,97.98
2035.00,98.04
2034.00,98.09
2033.00,98.09
2032.00,98.05
2031.00,97.97
2030.00,97.91
2029.00,97.87
2028.00,97.87
2027.00,97.89
2026.00,97.91
2025.00,97.93
2024.00,97.95
2023.00,97.98
2022.00,98.01
2021.00,98.04
2020.00,98.05
2019.00,98.06
2018.00,98.05
2017.00,98.02
2016.00,97.99
2015.00,97.97
2014.00,97.97
2013.00,98.01
2012.00,98.08
2011.00,98.12
2010.00,98.11
2009.00,98.05
2008.00,98.02
2007.00,98.04
2006.00,98.11
2005.00,98.18
2004.00,98.22
2003.00,98.24
2002.00,98.28
2001.00,98.34
2000.00,98.39
1999.00,98.42
1998.00,98.41
1997.00,98.40
1996.00,98.39
1995.00,98.39
1994.00,98.39
1993.00,98.40
1992.00,98.39
1991.00,98.36
1990.00,98.35
1989.00,98.35
1988.00,98.36
1987.00,98.35
1986.00,98.32
1985.00,98.27
1984.00,98.21
1983.00,98.15
1982.00,98.06
1981.00,97.96
1980.00,97.87
1979.00,97.82
1978.00,97.82
1977.00,97.87
1976.00,97.95
1975.00,98.03
1974.00,98.10
1973.00,98.14
1972.00,98.14
1971.00,98.15
1970.00,98.18
1969.00,98.24
1968.00,98.33
1967.00,98.41
1966.00,98.48
1965.00,98.53
1964.00,98.56
1963.00,98.57
1962.00,98.60
1961.00,98.65
1960.00,98.70
1959.00,98.73
1958.00,98.73
1957.00,98.72
1956.00,98.74
1955.00,98.80
1954.00,98.88
1953.00,98.94
1952.00,98.97
1951.00,98.95
1950.00,98.94
1949.00,98.92
1948.00,98.92
1947.00,98.94
1946.00,99.00
1945.00,99.07
1944.00,99.11
1943.00,99.13
1942.00,99.12
1941.00,99.12
1940.00,99.14
1939.00,99.19
1938.00,99.26
1937.00,99.32
1936.00,99.35
1935.00,99.34
1934.00,99.33
1933.00,99.32
1932.00,99.31
1931.00,99.30
1930.00,99.30
1929.00,99.34
1928.00,99.39
1927.00,99.44
1926.00,99.48
1925.00,99.52
1924.00,99.57
1923.00,99.60
1922.00,99.60
1921.00,99.57
1920.00,99.53
1919.00,99.49
1918.00,99.47
1917.00,99.46
1916.00,99.45
1915.00,99.47
1914.00,99.51
1913.00,99.56
1912.00,99.60
1911.00,99.61
1910.00,99.60
1909.00,99.59
1908.00,99.57
1907.00,99.56
1906.00,99.57
1905.00,99.61
1904.00,99.66
1903.00,99.70
1902.00,99.71
1901.00,99.71
1900.00,99.70
1899.00,99.68
1898.00,99.68
1897.00,99.69
1896.00,99.69
1895.00,99.67
1894.00,99.65
1893.00,99.66
1892.00,99.69
1891.00,99.74
1890.00,99.76
1889.00,99.76
1888.00,99.75
1887.00,99.73
1886.00,99.73
1885.00,99.74
1884.00,99.75
1883.00,99.75
1882.00,99.75
1881.00,99.76
1880.00,99.78
1879.00,99.81
1878.00,99.82
1877.00,99.82
1876.00,99.83
1875.00,99.83
1874.00,99.83
1873.00,99.82
1872.00,99.82
1871.00,99.82
1870.00,99.85
1869.00,99.89
1868.00,99.93
1867.00,99.95
1866.00,99.95
1865.00,99.95
1864.00,99.94
1863.00,99.93
1862.00,99.92
1861.00,99.90
1860.00,99.89
1859.00,99.90
1858.00,99.91
1857.00,99.91
1856.00,99.91
1855.00,99.91
1854.00,99.93
1853.00,99.96
1852.00,99.99
1851.00,100.00
1850.00,100.00
1849.00,100.00
1848.00,100.02
1847.00,100.04
1846.00,100.04
1845.00,100.01
1844.00,99.97
1843.00,99.96
1842.00,99.96
1841.00,99.97
1840.00,99.96
1839.00,99.95
1838.00,99.94
1837.00,99.95
1836.00,99.95
1835.00,99.96
1834.00,99.96
1833.00,99.98
1832.00,100.00
1831.00,100.03
1830.00,100.04
1829.00,100.03
1828.00,100.02
1827.00,100.02
1826.00,100.03
1825.00,100.03
1824.00,100.04
1823.00,100.04
1822.00,100.04
1821.00,100.05
1820.00,100.08
1819.00,100.11
1818.00,100.14
1817.00,100.16
1816.00,100.17
1815.00,100.16
1814.00,100.16
1813.00,100.15
1812.00,100.15
1811.00,100.15
1810.00,100.15
1809.00,100.14
1808.00,100.13
1807.00,100.13
1806.00,100.14
1805.00,100.15
1804.00,100.16
1803.00,100.16
1802.00,100.15
1801.00,100.14
1800.00,100.15
1799.00,100.17
1798.00,100.20
1797.00,100.22
1796.00,100.22
1795.00,100.20
1794.00,100.18
1793.00,100.15
1792.00,100.14
1791.00,100.15
1790.00,100.15
1789.00,100.16
1788.00,100.16
1787.00,100.17
1786.00,100.18
1785.00,100.18
1784.00,100.18
1783.00,100.17
1782.00,100.17
1781.00,100.16
1780.00,100.16
1779.00,100.18
1778.00,100.20
1777.00,100.21
1776.00,100.21
1775.00,100.20
1774.00,100.18
1773.00,100.15
1772.00,100.13
1771.00,100.12
1770.00,100.13
1769.00,100.13
1768.00,100.13
1767.00,100.12
1766.00,100.11
1765.00,100.10
1764.00,100.09
1763.00,100.08
1762.00,100.08
1761.00,100.08
1760.00,100.08
1759.00,100.08
1758.00,100.07
1757.00,100.05
1756.00,100.04
1755.00,100.03
1754.00,100.02
1753.00,100.00
1752.00,99.97
1751.00,99.94
1750.00,99.93
1749.00,99.93
1748.00,99.95
1747.00,99.95
1746.00,99.95
1745.00,99.94
1744.00,99.93
1743.00,99.92
1742.00,99.92
1741.00,99.91
1740.00,99.90
1739.00,99.88
1738.00,99.87
1737.00,99.85
1736.00,99.84
1735.00,99.84
1734.00,99.84
1733.00,99.86
1732.00,99.88
1731.00,99.90
1730.00,99.90
1729.00,99.90
1728.00,99.90
1727.00,99.92
1726.00,99.94
1725.00,99.95
1724.00,99.95
1723.00,99.95
1722.00,99.96
1721.00,99.98
1720.00,99.99
1719.00,100.00
1718.00,99.98
1717.00,99.96
1716.00,99.95
1715.00,99.95
1714.00,99.95
1713.00,99.95
1712.00,99.95
1711.00,99.95
1710.00,99.96
1709.00,99.96
1708.00,99.98
1707.00,99.99
1706.00,100.00
1705.00,99.99
1704.00,99.98
1703.00,99.97
1702.00,99.96
1701.00,99.96
1700.00,99.97
1699.00,99.98
1698.00,99.99
1697.00,99.99
1696.00,99.97
1695.00,99.96
1694.00,99.95
1693.00,99.96
1692.00,99.97
1691.00,99.97
1690.00,99.97
1689.00,99.96
1688.00,99.95
1687.00,99.95
1686.00,99.95
1685.00,99.94
1684.00,99.93
1683.00,99.93
1682.00,99.94
1681.00,99.94
1680.00,99.95
1679.00,99.94
1678.00,99.93
1677.00,99.93
1676.00,99.93
1675.00,99.94
1674.00,99.95
1673.00,99.96
1672.00,99.95
1671.00,99.94
1670.00,99.92
1669.00,99.92
1668.00,99.92
1667.00,99.93
1666.00,99.93
1665.00,99.92
1664.00,99.91
1663.00,99.91
1662.00,99.92
1661.00,99.94
1660.00,99.94
1659.00,99.94
1658.00,99.93
1657.00,99.93
1656.00,99.94
1655.00,99.96
1654.00,99.97
1653.00,99.96
1652.00,99.96
1651.00,99.96
1650.00,99.95
1649.00,99.95
1648.00,99.96
1647.00,99.96
1646.00,99.97
1645.00,99.97
1644.00,99.96
1643.00,99.95
1642.00,99.95
1641.00,99.95
1640.00,99.95
1639.00,99.95
1638.00,99.95
1637.00,99.95
1636.00,99.97
1635.00,99.98
1634.00,99.99
1633.00,99.98
1632.00,99.97
1631.00,99.96
1630.00,99.97
1629.00,99.99
1628.00,100.01
1627.00,100.02
1626.00,100.02
1625.00,100.01
1624.00,99.99
1623.00,99.99
1622.00,100.00
1621.00,100.00
1620.00,100.01
1619.00,100.02
1618.00,100.02
1617.00,100.02
1616.00,100.01
1615.00,100.00
1614.00,100.00
1613.00,100.01
1612.00,100.02
1611.00,100.02
1610.00,100.02
1609.00,100.02
1608.00,100.02
1607.00,100.02
1606.00,100.02
1605.00,100.02
1604.00,100.02
1603.00,100.01
1602.00,100.00
1601.00,99.99
1600.00,100.00
1599.00,100.02
1598.00,100.03
1597.00,100.02
1596.00,100.02
1595.00,100.02
1594.00,100.02
1593.00,100.02
1592.00,100.02
1591.00,100.03
1590.00,100.03
1589.00,100.02
1588.00,100.01
1587.00,100.02
1586.00,100.03
1585.00,100.05
1584.00,100.05
1583.00,100.06
1582.00,100.05
1581.00,100.05
1580.00,100.06
1579.00,100.08
1578.00,100.10
1577.00,100.11
1576.00,100.10
1575.00,100.08
1574.00,100.06
1573.00,100.06
1572.00,100.06
1571.00,100.07
1570.00,100.08
1569.00,100.08
1568.00,100.08
1567.00,100.07
1566.00,100.07
1565.00,100.08
1564.00,100.08
1563.00,100.08
1562.00,100.09
1561.00,100.09
1560.00,100.09
1559.00,100.09
1558.00,100.09
1557.00,100.08
1556.00,100.06
1555.00,100.05
1554.00,100.06
1553.00,100.07
1552.00,100.07
1551.00,100.07
1550.00,100.06
1549.00,100.04
1548.00,100.04
1547.00,100.05
1546.00,100.05
1545.00,100.05
1544.00,100.04
1543.00,100.03
1542.00,100.03
1541.00,100.03
1540.00,100.02
1539.00,100.03
1538.00,100.03
1537.00,100.03
1536.00,100.03
1535.00,100.02
1534.00,100.01
1533.00,100.00
1532.00,100.00
1531.00,100.00
1530.00,100.00
1529.00,100.00
1528.00,100.01
1527.00,100.02
1526.00,100.03
1525.00,100.03
1524.00,100.03
1523.00,100.03
1522.00,100.04
1521.00,100.02
1520.00,99.99
1519.00,99.97
1518.00,99.96
1517.00,99.96
1516.00,99.96
1515.00,99.97
1514.00,99.96
1513.00,99.96
1512.00,99.95
1511.00,99.95
1510.00,99.95
1509.00,99.94
1508.00,99.92
1507.00,99.89
1506.00,99.87
1505.00,99.86
1504.00,99.84
1503.00,99.82
1502.00,99.81
1501.00,99.78
1500.00,99.75
1499.00,99.72
1498.00,99.70
1497.00,99.67
1496.00,99.64
1495.00,99.62
1494.00,99.60
1493.00,99.56
1492.00,99.52
1491.00,99.48
1490.00,99.44
1489.00,99.38
1488.00,99.31
1487.00,99.25
1486.00,99.18
1485.00,99.10
1484.00,99.02
1483.00,98.94
1482.00,98.85
1481.00,98.74
1480.00,98.61
1479.00,98.48
1478.00,98.31
1477.00,98.09
1476.00,97.82
1475.00,97.52
1474.00,97.13
1473.00,96.58
1472.00,95.90
1471.00,95.20
1470.00,94.49
1469.00,93.74
1468.00,92.95
1467.00,92.08
1466.00,91.14
1465.00,90.17
1464.00,89.30
1463.00,88.64
1462.00,88.17
1461.00,87.82
1460.00,87.58
1459.00,87.42
1458.00,87.32
1457.00,87.26
1456.00,87.26
1455.00,87.29
1454.00,87.36
1453.00,87.48
1452.00,87.68
1451.00,87.99
1450.00,88.46
1449.00,89.14
1448.00,90.05
1447.00,91.09
1446.00,92.07
1445.00,92.94
1444.00,93.67
1443.00,94.28
1442.00,94.74
1441.00,95.05
1440.00,95.23
1439.00,95.28
1438.00,95.23
1437.00,95.16
1436.00,95.21
1435.00,95.44
1434.00,95.85
1433.00,96.38
1432.00,96.95
1431.00,97.46
1430.00,97.86
1429.00,98.16
1428.00,98.35
1427.00,98.48
1426.00,98.56
1425.00,98.64
1424.00,98.71
1423.00,98.76
1422.00,98.79
1421.00,98.83
1420.00,98.88
1419.00,98.92
1418.00,98.95
1417.00,98.98
1416.00,99.01
1415.00,99.03
1414.00,99.04
1413.00,99.07
1412.00,99.09
1411.00,99.10
1410.00,99.09
1409.00,99.09
1408.00,99.10
1407.00,99.10
1406.00,99.10
1405.00,99.11
1404.00,99.12
1403.00,99.11
1402.00,99.10
1401.00,99.09
1400.00,99.07
1399.00,99.03
1398.00,98.99
1397.00,98.95
1396.00,98.93
1395.00,98.90
1394.00,98.86
1393.00,98.81
1392.00,98.75
1391.00,98.66
1390.00,98.53
1389.00,98.35
1388.00,98.09
1387.00,97.71
1386.00,97.19
1385.00,96.50
1384.00,95.55
1383.00,94.25
1382.00,92.55
1381.00,90.43
1380.00,87.89
1379.00,85.08
1378.00,82.39
1377.00,80.36
1376.00,79.47
1375.00,79.98
1374.00,81.77
1373.00,84.28
1372.00,86.91
1371.00,89.32
1370.00,91.39
1369.00,93.04
1368.00,94.22
1367.00,94.97
1366.00,95.37
1365.00,95.53
1364.00,95.51
1363.00,95.35
1362.00,95.08
1361.00,94.77
1360.00,94.52
1359.00,94.42
1358.00,94.52
1357.00,94.82
1356.00,95.26
1355.00,95.76
1354.00,96.26
1353.00,96.68
1352.00,97.03
1351.00,97.31
1350.00,97.56
1349.00,97.76
1348.00,97.94
1347.00,98.10
1346.00,98.23
1345.00,98.35
1344.00,98.45
1343.00,98.53
1342.00,98.61
1341.00,98.68
1340.00,98.74
1339.00,98.78
1338.00,98.79
1337.00,98.78
1336.00,98.76
1335.00,98.72
1334.00,98.68
1333.00,98.63
1332.00,98.56
1331.00,98.51
1330.00,98.47
1329.00,98.47
1328.00,98.50
1327.00,98.56
1326.00,98.63
1325.00,98.71
1324.00,98.78
1323.00,98.85
1322.00,98.91
1321.00,98.96
1320.00,99.01
1319.00,99.04
1318.00,99.07
1317.00,99.09
1316.00,99.10
1315.00,99.12
1314.00,99.13
1313.00,99.12
1312.00,99.11
1311.00,99.07
1310.00,99.02
1309.00,98.94
1308.00,98.84
1307.00,98.72
1306.00,98.60
1305.00,98.51
1304.00,98.47
1303.00,98.48
1302.00,98.51
1301.00,98.54
1300.00,98.55
1299.00,98.53
1298.00,98.50
1297.00,98.47
1296.00,98.46
1295.00,98.48
1294.00,98.53
1293.00,98.59
1292.00,98.67
1291.00,98.74
1290.00,98.79
1289.00,98.83
1288.00,98.87
1287.00,98.90
1286.00,98.93
1285.00,98.97
1284.00,99.02
1283.00,99.05
1282.00,99.08
1281.00,99.10
1280.00,99.11
1279.00,99.12
1278.00,99.13
1277.00,99.14
1276.00,99.16
1275.00,99.17
1274.00,99.17
1273.00,99.17
1272.00,99.18
1271.00,99.19
1270.00,99.20
1269.00,99.20
1268.00,99.17
1267.00,99.14
1266.00,99.11
1265.00,99.09
1264.00,99.07
1263.00,99.04
1262.00,98.99
1261.00,98.94
1260.00,98.87
1259.00,98.77
1258.00,98.67
1257.00,98.57
1256.00,98.50
1255.00,98.48
1254.00,98.50
1253.00,98.56
1252.00,98.62
1251.00,98.69
1250.00,98.74
1249.00,98.77
1248.00,98.81
1247.00,98.84
1246.00,98.88
1245.00,98.93
1244.00,98.97
1243.00,99.00
1242.00,99.01
1241.00,99.02
1240.00,99.03
1239.00,99.05
1238.00,99.06
1237.00,99.08
1236.00,99.10
1235.00,99.12
1234.00,99.14
1233.00,99.14
1232.00,99.14
1231.00,99.13
1230.00,99.10
1229.00,99.08
1228.00,99.04
1227.00,99.00
1226.00,98.96
1225.00,98.92
1224.00,98.89
1223.00,98.86
1222.00,98.81
1221.00,98.76
1220.00,98.72
1219.00,98.71
1218.00,98.71
1217.00,98.74
1216.00,98.78
1215.00,98.83
1214.00,98.89
1213.00,98.96
1212.00,99.02
1211.00,99.07
1210.00,99.10
1209.00,99.11
1208.00,99.12
1207.00,99.11
1206.00,99.11
1205.00,99.12
1204.00,99.13
1203.00,99.16
1202.00,99.18
1201.00,99.21
1200.00,99.23
1199.00,99.24
1198.00,99.23
1197.00,99.22
1196.00,99.20
1195.00,99.20
1194.00,99.21
1193.00,99.23
1192.00,99.24
1191.00,99.24
1190.00,99.23
1189.00,99.22
1188.00,99.22
1187.00,99.21
1186.00,99.19
1185.00,99.17
1184.00,99.15
1183.00,99.14
1182.00,99.11
1181.00,99.08
1180.00,99.03
1179.00,98.96
1178.00,98.87
1177.00,98.76
1176.00,98.63
1175.00,98.47
1174.00,98.27
1173.00,98.02
1172.00,97.71
1171.00,97.38
1170.00,97.07
1169.00,96.83
1168.00,96.67
1167.00,96.59
1166.00,96.60
1165.00,96.69
1164.00,96.81
1163.00,96.94
1162.00,97.03
1161.00,97.09
1160.00,97.12
1159.00,97.15
1158.00,97.16
1157.00,97.16
1156.00,97.12
1155.00,97.07
1154.00,97.00
1153.00,96.95
1152.00,96.95
1151.00,96.98
1150.00,97.05
1149.00,97.12
1148.00,97.18
1147.00,97.23
1146.00,97.30
1145.00,97.38
1144.00,97.47
1143.00,97.53
1142.00,97.56
1141.00,97.58
1140.00,97.60
1139.00,97.65
1138.00,97.71
1137.00,97.75
1136.00,97.78
1135.00,97.78
1134.00,97.77
1133.00,97.78
1132.00,97.78
1131.00,97.78
1130.00,97.77
1129.00,97.77
1128.00,97.75
1127.00,97.74
1126.00,97.73
1125.00,97.72
1124.00,97.70
1123.00,97.67
1122.00,97.61
1121.00,97.55
1120.00,97.50
1119.00,97.47
1118.00,97.44
1117.00,97.42
1116.00,97.40
1115.00,97.39
1114.00,97.38
1113.00,97.36
1112.00,97.34
1111.00,97.31
1110.00,97.28
1109.00,97.24
1108.00,97.17
1107.00,97.09
1106.00,97.02
1105.00,96.95
1104.00,96.89
1103.00,96.85
1102.00,96.85
1101.00,96.89
1100.00,96.98
1099.00,97.08
1098.00,97.16
1097.00,97.23
1096.00,97.31
1095.00,97.41
1094.00,97.52
1093.00,97.63
1092.00,97.72
1091.00,97.80
1090.00,97.88
1089.00,97.95
1088.00,97.99
1087.00,98.00
1086.00,98.01
1085.00,98.04
1084.00,98.06
1083.00,98.07
1082.00,98.06
1081.00,98.05
1080.00,98.06
1079.00,98.10
1078.00,98.15
1077.00,98.21
1076.00,98.27
1075.00,98.30
1074.00,98.31
1073.00,98.31
1072.00,98.30
1071.00,98.28
1070.00,98.25
1069.00,98.24
1068.00,98.26
1067.00,98.30
1066.00,98.34
1065.00,98.38
1064.00,98.41
1063.00,98.44
1062.00,98.47
1061.00,98.49
1060.00,98.48
1059.00,98.48
1058.00,98.49
1057.00,98.53
1056.00,98.58
1055.00,98.62
1054.00,98.64
1053.00,98.64
1052.00,98.64
1051.00,98.62
1050.00,98.60
1049.00,98.59
1048.00,98.57
1047.00,98.55
1046.00,98.54
1045.00,98.53
1044.00,98.54
1043.00,98.55
1042.00,98.57
1041.00,98.60
1040.00,98.62
1039.00,98.65
1038.00,98.66
1037.00,98.66
1036.00,98.65
1035.00,98.67
1034.00,98.70
1033.00,98.76
1032.00,98.82
1031.00,98.88
1030.00,98.91
1029.00,98.94
1028.00,98.97
1027.00,98.99
1026.00,99.01
1025.00,99.03
1024.00,99.04
1023.00,99.05
1022.00,99.04
1021.00,99.04
1020.00,99.03
1019.00,99.01
1018.00,98.99
1017.00,98.97
1016.00,98.98
1015.00,98.99
1014.00,98.98
1013.00,98.95
1012.00,98.91
1011.00,98.87
1010.00,98.83
1009.00,98.80
1008.00,98.78
1007.00,98.74
1006.00,98.65
1005.00,98.50
1004.00,98.29
1003.00,98.01
1002.00,97.67
1001.00,97.26
1000.00,96.85
999.00,96.52
998.00,96.38
997.00,96.47
996.00,96.75
995.00,97.13
994.00,97.53
993.00,97.88
992.00,98.16
991.00,98.37
990.00,98.54
989.00,98.65
988.00,98.73
987.00,98.78
986.00,98.80
985.00,98.79
984.00,98.73
983.00,98.62
982.00,98.47
981.00,98.28
980.00,98.02
979.00,97.69
978.00,97.28
977.00,96.80
976.00,96.30
975.00,95.85
974.00,95.54
973.00,95.44
972.00,95.60
971.00,95.97
970.00,96.46
969.00,96.99
968.00,97.45
967.00,97.81
966.00,98.07
965.00,98.25
964.00,98.36
963.00,98.42
962.00,98.48
961.00,98.53
960.00,98.59
959.00,98.63
958.00,98.65
957.00,98.67
956.00,98.70
955.00,98.73
954.00,98.75
953.00,98.76
952.00,98.74
951.00,98.72
950.00,98.71
949.00,98.72
948.00,98.75
947.00,98.76
946.00,98.75
945.00,98.72
944.00,98.66
943.00,98.60
942.00,98.52
941.00,98.48
940.00,98.48
939.00,98.54
938.00,98.65
937.00,98.76
936.00,98.86
935.00,98.93
934.00,98.98
933.00,99.03
932.00,99.08
931.00,99.11
930.00,99.12
929.00,99.11
928.00,99.08
927.00,99.06
926.00,99.05
925.00,99.07
924.00,99.11
923.00,99.14
922.00,99.16
921.00,99.17
920.00,99.16
919.00,99.15
918.00,99.14
917.00,99.14
916.00,99.15
915.00,99.17
914.00,99.19
913.00,99.20
912.00,99.20
911.00,99.17
910.00,99.13
909.00,99.08
908.00,99.01
907.00,98.91
906.00,98.77
905.00,98.58
904.00,98.35
903.00,98.09
902.00,97.80
901.00,97.54
900.00,97.36
899.00,97.31
898.00,97.41
897.00,97.63
896.00,97.91
895.00,98.19
894.00,98.43
893.00,98.61
892.00,98.74
891.00,98.83
890.00,98.89
889.00,98.94
888.00,98.97
887.00,99.00
886.00,99.02
885.00,99.05
884.00,99.06
883.00,99.07
882.00,99.07
881.00,99.05
880.00,99.03
879.00,99.02
878.00,99.03
877.00,99.05
876.00,99.08
875.00,99.09
874.00,99.09
873.00,99.09
872.00,99.08
871.00,99.07
870.00,99.06
869.00,99.05
868.00,99.06
867.00,99.06
866.00,99.05
865.00,99.03
864.00,99.01
863.00,99.00
862.00,99.01
861.00,99.03
860.00,99.03
859.00,99.00
858.00,98.93
857.00,98.86
856.00,98.82
855.00,98.81
854.00,98.80
853.00,98.78
852.00,98.74
851.00,98.68
850.00,98.63
849.00,98.56
848.00,98.47
847.00,98.35
846.00,98.16
845.00,97.88
844.00,97.47
843.00,96.97
842.00,96.52
841.00,96.30
840.00,96.41
839.00,96.82
838.00,97.35
837.00,97.81
836.00,98.13
835.00,98.33
834.00,98.48
833.00,98.59
832.00,98.68
831.00,98.73
830.00,98.76
829.00,98.77
828.00,98.77
827.00,98.76
826.00,98.76
825.00,98.78
824.00,98.81
823.00,98.84
822.00,98.84
821.00,98.83
820.00,98.79
819.00,98.72
818.00,98.63
817.00,98.52
816.00,98.42
815.00,98.28
814.00,98.09
813.00,97.83
812.00,97.51
811.00,97.21
810.00,96.98
809.00,96.89
808.00,96.95
807.00,97.16
806.00,97.47
805.00,97.79
804.00,98.05
803.00,98.23
802.00,98.34
801.00,98.42
800.00,98.49
799.00,98.56
798.00,98.61
797.00,98.66
796.00,98.70
795.00,98.75
794.00,98.80
793.00,98.84
792.00,98.88
791.00,98.91
790.00,98.93
789.00,98.96
788.00,98.99
787.00,99.02
786.00,99.06
785.00,99.10
784.00,99.14
783.00,99.16
782.00,99.16
781.00,99.15
780.00,99.13
779.00,99.12
778.00,99.15
777.00,99.20
776.00,99.27
775.00,99.31
774.00,99.31
773.00,99.27
772.00,99.23
771.00,99.19
770.00,99.17
769.00,99.17
768.00,99.19
767.00,99.24
766.00,99.27
765.00,99.29
764.00,99.27
763.00,99.25
762.00,99.26
761.00,99.29
760.00,99.31
759.00,99.29
758.00,99.25
757.00,99.22
756.00,99.21
755.00,99.22
754.00,99.20
753.00,99.15
752.00,99.09
751.00,99.06
750.00,99.07
749.00,99.11
748.00,99.14
747.00,99.15
746.00,99.14
745.00,99.13
744.00,99.12
743.00,99.12
742.00,99.13
741.00,99.15
740.00,99.18
739.00,99.20
738.00,99.17
737.00,99.11
736.00,99.05
735.00,99.01
734.00,99.02
733.00,99.04
732.00,99.04
731.00,99.02
730.00,98.99
729.00,98.97
728.00,98.95
727.00,98.94
726.00,98.92
725.00,98.87
724.00,98.83
723.00,98.82
722.00,98.85
721.00,98.90
720.00,98.93
719.00,98.93
718.00,98.91
717.00,98.89
716.00,98.87
715.00,98.84
714.00,98.83
713.00,98.82
712.00,98.83
711.00,98.83
710.00,98.83
709.00,98.82
708.00,98.81
707.00,98.81
706.00,98.81
705.00,98.82
704.00,98.81
703.00,98.80
702.00,98.77
701.00,98.73
700.00,98.70
699.00,98.69
698.00,98.68
697.00,98.70
696.00,98.70
695.00,98.69
694.00,98.67
693.00,98.66
692.00,98.65
691.00,98.64
690.00,98.62
689.00,98.63
688.00,98.66
687.00,98.69
686.00,98.67
685.00,98.63
684.00,98.60
683.00,98.61
682.00,98.64
681.00,98.64
680.00,98.64
679.00,98.63
678.00,98.62
677.00,98.60
676.00,98.59
675.00,98.59
674.00,98.64
673.00,98.70
672.00,98.73
671.00,98.69
670.00,98.61
669.00,98.54
668.00,98.54
667.00,98.54
666.00,98.50
665.00,98.48
664.00,98.49
663.00,98.53
662.00,98.61
661.00,98.70
660.00,98.76
659.00,98.76
658.00,98.72
657.00,98.73
656.00,98.81
655.00,98.91
654.00,98.94
653.00,98.88
652.00,98.76
651.00,98.60
650.00,98.46
649.00,98.41
648.00,98.45
647.00,98.53
646.00,98.59
645.00,98.60
644.00,98.57
643.00,98.52
642.00,98.47
641.00,98.46
640.00,98.48
639.00,98.54
638.00,98.65
637.00,98.82
636.00,98.99
635.00,99.05
634.00,98.91
633.00,98.67
632.00,98.48
631.00,98.38
630.00,98.31
629.00,98.25
628.00,98.22
627.00,98.27
626.00,98.34
625.00,98.33
624.00,98.20
623.00,98.05
622.00,97.98
621.00,98.01
620.00,98.14
619.00,98.34
618.00,98.56
617.00,98.69
616.00,98.67
615.00,98.57
614.00,98.53
613.00,98.61
612.00,98.66
611.00,98.57
610.00,98.38
609.00,98.28
608.00,98.38
607.00,98.65
606.00,98.94
605.00,99.11
604.00,99.01
603.00,98.56
602.00,97.89
601.00,97.35
600.00,97.24
599.00,97.59
598.00,98.14
597.00,98.62
596.00,98.91
595.00,99.01
594.00,98.94
593.00,98.77
592.00,98.59
591.00,98.49
590.00,98.45
589.00,98.34
588.00,98.10
587.00,97.79
586.00,97.58
585.00,97.59
584.00,97.82
583.00,98.07
582.00,98.11
581.00,97.87
580.00,97.45
579.00,97.03
578.00,96.67
577.00,96.35
576.00,96.19
575.00,96.40
574.00,96.93
573.00,97.39
572.00,97.45
571.00,97.17
570.00,96.92
569.00,96.94
568.00,97.23
567.00,97.52
566.00,97.51
565.00,97.03
564.00,96.33
563.00,96.00
562.00,96.52
561.00,97.70
560.00,98.78
559.00,99.21
558.00,99.14
557.00,99.18
556.00,99.49
555.00,99.71
554.00,99.54
553.00,99.15
552.00,98.85
551.00,98.64
550.00,98.39
