Created as New Dataset,135 Bayer
cm-1,%T
4000.00,101.92
3999.00,101.92
3998.00,101.92
3997.00,101.92
3996.00,101.93
3995.00,101.93
3994.00,101.94
3993.00,101.95
3992.00,101.96
3991.00,101.97
3990.00,101.98
3989.00,101.99
3988.00,102.00
3987.00,101.99
3986.00,101.98
3985.00,101.95
3984.00,101.94
3983.00,101.93
3982.00,101.92
3981.00,101.93
3980.00,101.93
3979.00,101.93
3978.00,101.93
3977.00,101.93
3976.00,101.92
3975.00,101.93
3974.00,101.94
3973.00,101.95
3972.00,101.95
3971.00,101.93
3970.00,101.91
3969.00,101.90
3968.00,101.89
3967.00,101.90
3966.00,101.90
3965.00,101.91
3964.00,101.91
3963.00,101.92
3962.00,101.93
3961.00,101.94
3960.00,101.95
3959.00,101.95
3958.00,101.95
3957.00,101.95
3956.00,101.94
3955.00,101.93
3954.00,101.90
3953.00,101.87
3952.00,101.86
3951.00,101.86
3950.00,101.88
3949.00,101.90
3948.00,101.91
3947.00,101.90
3946.00,101.87
3945.00,101.86
3944.00,101.86
3943.00,101.87
3942.00,101.89
3941.00,101.91
3940.00,101.91
3939.00,101.90
3938.00,101.89
3937.00,101.88
3936.00,101.87
3935.00,101.86
3934.00,101.86
3933.00,101.87
3932.00,101.87
3931.00,101.87
3930.00,101.86
3929.00,101.85
3928.00,101.84
3927.00,101.84
3926.00,101.85
3925.00,101.86
3924.00,101.85
3923.00,101.84
3922.00,101.81
3921.00,101.79
3920.00,101.78
3919.00,101.78
3918.00,101.79
3917.00,101.80
3916.00,101.82
3915.00,101.85
3914.00,101.87
3913.00,101.89
3912.00,101.88
3911.00,101.86
3910.00,101.83
3909.00,101.81
3908.00,101.79
3907.00,101.78
3906.00,101.78
3905.00,101.79
3904.00,101.80
3903.00,101.78
3902.00,101.75
3901.00,101.72
3900.00,101.72
3899.00,101.74
3898.00,101.79
3897.00,101.84
3896.00,101.88
3895.00,101.88
3894.00,101.86
3893.00,101.83
3892.00,101.81
3891.00,101.81
3890.00,101.82
3889.00,101.82
3888.00,101.82
3887.00,101.82
3886.00,101.83
3885.00,101.83
3884.00,101.82
3883.00,101.81
3882.00,101.82
3881.00,101.82
3880.00,101.83
3879.00,101.83
3878.00,101.82
3877.00,101.82
3876.00,101.81
3875.00,101.81
3874.00,101.79
3873.00,101.75
3872.00,101.72
3871.00,101.70
3870.00,101.70
3869.00,101.69
3868.00,101.69
3867.00,101.69
3866.00,101.71
3865.00,101.74
3864.00,101.78
3863.00,101.81
3862.00,101.84
3861.00,101.85
3860.00,101.83
3859.00,101.81
3858.00,101.76
3857.00,101.72
3856.00,101.68
3855.00,101.68
3854.00,101.68
3853.00,101.68
3852.00,101.67
3851.00,101.68
3850.00,101.70
3849.00,101.73
3848.00,101.74
3847.00,101.75
3846.00,101.75
3845.00,101.74
3844.00,101.74
3843.00,101.73
3842.00,101.70
3841.00,101.67
3840.00,101.65
3839.00,101.64
3838.00,101.64
3837.00,101.65
3836.00,101.66
3835.00,101.69
3834.00,101.72
3833.00,101.75
3832.00,101.77
3831.00,101.79
3830.00,101.79
3829.00,101.78
3828.00,101.77
3827.00,101.75
3826.00,101.71
3825.00,101.67
3824.00,101.63
3823.00,101.62
3822.00,101.63
3821.00,101.64
3820.00,101.65
3819.00,101.65
3818.00,101.67
3817.00,101.70
3816.00,101.72
3815.00,101.71
3814.00,101.69
3813.00,101.67
3812.00,101.67
3811.00,101.66
3810.00,101.65
3809.00,101.64
3808.00,101.65
3807.00,101.66
3806.00,101.65
3805.00,101.62
3804.00,101.59
3803.00,101.57
3802.00,101.57
3801.00,101.58
3800.00,101.61
3799.00,101.63
3798.00,101.66
3797.00,101.68
3796.00,101.69
3795.00,101.69
3794.00,101.70
3793.00,101.73
3792.00,101.74
3791.00,101.74
3790.00,101.73
3789.00,101.72
3788.00,101.72
3787.00,101.72
3786.00,101.73
3785.00,101.72
3784.00,101.72
3783.00,101.70
3782.00,101.69
3781.00,101.68
3780.00,101.67
3779.00,101.67
3778.00,101.68
3777.00,101.68
3776.00,101.70
3775.00,101.71
3774.00,101.71
3773.00,101.72
3772.00,101.72
3771.00,101.72
3770.00,101.71
3769.00,101.68
3768.00,101.64
3767.00,101.61
3766.00,101.59
3765.00,101.58
3764.00,101.58
3763.00,101.57
3762.00,101.57
3761.00,101.57
3760.00,101.57
3759.00,101.57
3758.00,101.56
3757.00,101.55
3756.00,101.54
3755.00,101.55
3754.00,101.56
3753.00,101.57
3752.00,101.55
3751.00,101.51
3750.00,101.48
3749.00,101.46
3748.00,101.45
3747.00,101.44
3746.00,101.44
3745.00,101.43
3744.00,101.42
3743.00,101.42
3742.00,101.45
3741.00,101.49
3740.00,101.53
3739.00,101.55
3738.00,101.55
3737.00,101.54
3736.00,101.55
3735.00,101.54
3734.00,101.53
3733.00,101.52
3732.00,101.50
3731.00,101.48
3730.00,101.47
3729.00,101.47
3728.00,101.48
3727.00,101.48
3726.00,101.49
3725.00,101.49
3724.00,101.49
3723.00,101.50
3722.00,101.50
3721.00,101.50
3720.00,101.51
3719.00,101.52
3718.00,101.53
3717.00,101.53
3716.00,101.54
3715.00,101.54
3714.00,101.55
3713.00,101.56
3712.00,101.58
3711.00,101.59
3710.00,101.60
3709.00,101.60
3708.00,101.60
3707.00,101.60
3706.00,101.60
3705.00,101.60
3704.00,101.61
3703.00,101.60
3702.00,101.58
3701.00,101.55
3700.00,101.53
3699.00,101.53
3698.00,101.54
3697.00,101.56
3696.00,101.57
3695.00,101.56
3694.00,101.55
3693.00,101.53
3692.00,101.51
3691.00,101.50
3690.00,101.50
3689.00,101.50
3688.00,101.50
3687.00,101.51
3686.00,101.51
3685.00,101.52
3684.00,101.52
3683.00,101.52
3682.00,101.52
3681.00,101.51
3680.00,101.49
3679.00,101.46
3678.00,101.42
3677.00,101.39
3676.00,101.38
3675.00,101.37
3674.00,101.36
3673.00,101.34
3672.00,101.35
3671.00,101.37
3670.00,101.40
3669.00,101.41
3668.00,101.42
3667.00,101.43
3666.00,101.44
3665.00,101.46
3664.00,101.47
3663.00,101.47
3662.00,101.46
3661.00,101.45
3660.00,101.44
3659.00,101.44
3658.00,101.45
3657.00,101.47
3656.00,101.48
3655.00,101.46
3654.00,101.44
3653.00,101.41
3652.00,101.39
3651.00,101.38
3650.00,101.37
3649.00,101.36
3648.00,101.35
3647.00,101.34
3646.00,101.34
3645.00,101.36
3644.00,101.38
3643.00,101.39
3642.00,101.41
3641.00,101.41
3640.00,101.41
3639.00,101.42
3638.00,101.43
3637.00,101.44
3636.00,101.44
3635.00,101.44
3634.00,101.43
3633.00,101.40
3632.00,101.35
3631.00,101.31
3630.00,101.29
3629.00,101.28
3628.00,101.29
3627.00,101.30
3626.00,101.33
3625.00,101.35
3624.00,101.36
3623.00,101.34
3622.00,101.32
3621.00,101.29
3620.00,101.29
3619.00,101.29
3618.00,101.29
3617.00,101.29
3616.00,101.29
3615.00,101.31
3614.00,101.32
3613.00,101.34
3612.00,101.35
3611.00,101.35
3610.00,101.36
3609.00,101.38
3608.00,101.39
3607.00,101.40
3606.00,101.42
3605.00,101.43
3604.00,101.43
3603.00,101.41
3602.00,101.38
3601.00,101.37
3600.00,101.38
3599.00,101.39
3598.00,101.40
3597.00,101.39
3596.00,101.37
3595.00,101.36
3594.00,101.34
3593.00,101.33
3592.00,101.32
3591.00,101.32
3590.00,101.33
3589.00,101.34
3588.00,101.35
3587.00,101.34
3586.00,101.34
3585.00,101.34
3584.00,101.34
3583.00,101.34
3582.00,101.34
3581.00,101.34
3580.00,101.34
3579.00,101.34
3578.00,101.35
3577.00,101.35
3576.00,101.35
3575.00,101.35
3574.00,101.35
3573.00,101.33
3572.00,101.36
3571.00,101.36
3570.00,101.38
3569.00,101.22
3568.00,101.18
3567.00,101.21
3566.00,101.22
3565.00,101.24
3564.00,101.23
3563.00,101.23
3562.00,101.23
3561.00,101.24
3560.00,101.25
3559.00,101.26
3558.00,101.26
3557.00,101.26
3556.00,101.25
3555.00,101.24
3554.00,101.23
3553.00,101.22
3552.00,101.20
3551.00,101.20
3550.00,101.20
3549.00,101.20
3548.00,101.20
3547.00,101.19
3546.00,101.19
3545.00,101.20
3544.00,101.22
3543.00,101.26
3542.00,101.29
3541.00,101.32
3540.00,101.32
3539.00,101.30
3538.00,101.28
3537.00,101.26
3536.00,101.26
3535.00,101.27
3534.00,101.28
3533.00,101.29
3532.00,101.28
3531.00,101.27
3530.00,101.26
3529.00,101.26
3528.00,101.27
3527.00,101.28
3526.00,101.27
3525.00,101.25
3524.00,101.22
3523.00,101.18
3522.00,101.15
3521.00,101.14
3520.00,101.16
3519.00,101.19
3518.00,101.22
3517.00,101.24
3516.00,101.24
3515.00,101.23
3514.00,101.22
3513.00,101.22
3512.00,101.22
3511.00,101.24
3510.00,101.27
3509.00,101.29
3508.00,101.31
3507.00,101.30
3506.00,101.29
3505.00,101.28
3504.00,101.27
3503.00,101.27
3502.00,101.27
3501.00,101.26
3500.00,101.24
3499.00,101.22
3498.00,101.21
3497.00,101.21
3496.00,101.22
3495.00,101.25
3494.00,101.28
3493.00,101.30
3492.00,101.28
3491.00,101.26
3490.00,101.24
3489.00,101.23
3488.00,101.23
3487.00,101.23
3486.00,101.25
3485.00,101.26
3484.00,101.27
3483.00,101.26
3482.00,101.24
3481.00,101.21
3480.00,101.20
3479.00,101.22
3478.00,101.24
3477.00,101.26
3476.00,101.27
3475.00,101.26
3474.00,101.26
3473.00,101.27
3472.00,101.29
3471.00,101.31
3470.00,101.31
3469.00,101.28
3468.00,101.24
3467.00,101.21
3466.00,101.18
3465.00,101.18
3464.00,101.18
3463.00,101.20
3462.00,101.22
3461.00,101.23
3460.00,101.23
3459.00,101.22
3458.00,101.21
3457.00,101.21
3456.00,101.21
3455.00,101.20
3454.00,101.20
3453.00,101.18
3452.00,101.17
3451.00,101.15
3450.00,101.14
3449.00,101.12
3448.00,101.10
3447.00,101.07
3446.00,101.05
3445.00,101.04
3444.00,101.05
3443.00,101.06
3442.00,101.07
3441.00,101.08
3440.00,101.08
3439.00,101.08
3438.00,101.07
3437.00,101.06
3436.00,101.04
3435.00,101.03
3434.00,101.04
3433.00,101.04
3432.00,101.05
3431.00,101.04
3430.00,101.02
3429.00,101.01
3428.00,101.00
3427.00,101.00
3426.00,101.00
3425.00,101.00
3424.00,100.99
3423.00,100.98
3422.00,100.96
3421.00,100.95
3420.00,100.94
3419.00,100.94
3418.00,100.95
3417.00,100.96
3416.00,100.96
3415.00,100.96
3414.00,100.95
3413.00,100.95
3412.00,100.95
3411.00,100.97
3410.00,100.98
3409.00,100.99
3408.00,100.99
3407.00,100.99
3406.00,100.99
3405.00,101.00
3404.00,101.02
3403.00,101.06
3402.00,101.10
3401.00,101.13
3400.00,101.13
3399.00,101.11
3398.00,101.09
3397.00,101.07
3396.00,101.06
3395.00,101.06
3394.00,101.07
3393.00,101.08
3392.00,101.10
3391.00,101.12
3390.00,101.13
3389.00,101.13
3388.00,101.11
3387.00,101.09
3386.00,101.07
3385.00,101.05
3384.00,101.05
3383.00,101.06
3382.00,101.07
3381.00,101.07
3380.00,101.07
3379.00,101.08
3378.00,101.11
3377.00,101.13
3376.00,101.15
3375.00,101.16
3374.00,101.16
3373.00,101.16
3372.00,101.16
3371.00,101.16
3370.00,101.16
3369.00,101.15
3368.00,101.14
3367.00,101.11
3366.00,101.08
3365.00,101.06
3364.00,101.05
3363.00,101.05
3362.00,101.07
3361.00,101.09
3360.00,101.11
3359.00,101.13
3358.00,101.15
3357.00,101.15
3356.00,101.13
3355.00,101.12
3354.00,101.11
3353.00,101.10
3352.00,101.10
3351.00,101.10
3350.00,101.12
3349.00,101.14
3348.00,101.15
3347.00,101.15
3346.00,101.14
3345.00,101.13
3344.00,101.13
3343.00,101.13
3342.00,101.13
3341.00,101.13
3340.00,101.12
3339.00,101.11
3338.00,101.09
3337.00,101.08
3336.00,101.08
3335.00,101.09
3334.00,101.10
3333.00,101.10
3332.00,101.09
3331.00,101.07
3330.00,101.06
3329.00,101.05
3328.00,101.05
3327.00,101.05
3326.00,101.06
3325.00,101.08
3324.00,101.09
3323.00,101.10
3322.00,101.09
3321.00,101.08
3320.00,101.08
3319.00,101.08
3318.00,101.08
3317.00,101.07
3316.00,101.07
3315.00,101.07
3314.00,101.08
3313.00,101.08
3312.00,101.09
3311.00,101.08
3310.00,101.08
3309.00,101.07
3308.00,101.07
3307.00,101.08
3306.00,101.10
3305.00,101.11
3304.00,101.11
3303.00,101.11
3302.00,101.09
3301.00,101.08
3300.00,101.07
3299.00,101.07
3298.00,101.07
3297.00,101.07
3296.00,101.07
3295.00,101.06
3294.00,101.04
3293.00,101.02
3292.00,101.00
3291.00,100.99
3290.00,100.99
3289.00,101.00
3288.00,101.02
3287.00,101.04
3286.00,101.04
3285.00,101.05
3284.00,101.05
3283.00,101.05
3282.00,101.05
3281.00,101.05
3280.00,101.05
3279.00,101.05
3278.00,101.04
3277.00,101.03
3276.00,101.01
3275.00,100.99
3274.00,100.99
3273.00,100.99
3272.00,101.00
3271.00,101.02
3270.00,101.04
3269.00,101.05
3268.00,101.06
3267.00,101.06
3266.00,101.07
3265.00,101.06
3264.00,101.05
3263.00,101.03
3262.00,101.01
3261.00,100.99
3260.00,100.99
3259.00,101.01
3258.00,101.03
3257.00,101.04
3256.00,101.04
3255.00,101.03
3254.00,101.03
3253.00,101.03
3252.00,101.04
3251.00,101.05
3250.00,101.07
3249.00,101.09
3248.00,101.10
3247.00,101.10
3246.00,101.09
3245.00,101.07
3244.00,101.06
3243.00,101.06
3242.00,101.05
3241.00,101.04
3240.00,101.01
3239.00,100.99
3238.00,100.97
3237.00,100.97
3236.00,100.97
3235.00,100.98
3234.00,101.00
3233.00,101.02
3232.00,101.04
3231.00,101.06
3230.00,101.06
3229.00,101.06
3228.00,101.04
3227.00,101.03
3226.00,101.03
3225.00,101.03
3224.00,101.03
3223.00,101.02
3222.00,101.01
3221.00,101.00
3220.00,100.99
3219.00,100.97
3218.00,100.96
3217.00,100.97
3216.00,100.98
3215.00,100.99
3214.00,101.00
3213.00,101.01
3212.00,101.03
3211.00,101.04
3210.00,101.04
3209.00,101.03
3208.00,101.03
3207.00,101.04
3206.00,101.04
3205.00,101.04
3204.00,101.02
3203.00,101.00
3202.00,100.99
3201.00,101.00
3200.00,101.01
3199.00,101.02
3198.00,101.03
3197.00,101.03
3196.00,101.03
3195.00,101.04
3194.00,101.06
3193.00,101.08
3192.00,101.08
3191.00,101.07
3190.00,101.05
3189.00,101.03
3188.00,101.03
3187.00,101.03
3186.00,101.03
3185.00,101.01
3184.00,100.99
3183.00,100.96
3182.00,100.95
3181.00,100.96
3180.00,100.98
3179.00,100.98
3178.00,100.98
3177.00,100.97
3176.00,100.97
3175.00,100.98
3174.00,100.99
3173.00,100.99
3172.00,100.99
3171.00,100.98
3170.00,100.97
3169.00,100.97
3168.00,100.97
3167.00,100.98
3166.00,100.97
3165.00,100.96
3164.00,100.95
3163.00,100.96
3162.00,100.96
3161.00,100.96
3160.00,100.96
3159.00,100.95
3158.00,100.96
3157.00,100.97
3156.00,100.99
3155.00,101.00
3154.00,100.99
3153.00,100.97
3152.00,100.96
3151.00,100.95
3150.00,100.96
3149.00,100.97
3148.00,100.97
3147.00,100.95
3146.00,100.94
3145.00,100.95
3144.00,100.96
3143.00,100.97
3142.00,100.99
3141.00,100.99
3140.00,100.99
3139.00,100.98
3138.00,100.97
3137.00,100.96
3136.00,100.94
3135.00,100.93
3134.00,100.94
3133.00,100.95
3132.00,100.96
3131.00,100.94
3130.00,100.91
3129.00,100.87
3128.00,100.85
3127.00,100.85
3126.00,100.87
3125.00,100.89
3124.00,100.91
3123.00,100.91
3122.00,100.91
3121.00,100.90
3120.00,100.90
3119.00,100.92
3118.00,100.93
3117.00,100.92
3116.00,100.91
3115.00,100.90
3114.00,100.90
3113.00,100.90
3112.00,100.91
3111.00,100.91
3110.00,100.91
3109.00,100.92
3108.00,100.92
3107.00,100.93
3106.00,100.92
3105.00,100.91
3104.00,100.90
3103.00,100.89
3102.00,100.89
3101.00,100.90
3100.00,100.90
3099.00,100.90
3098.00,100.90
3097.00,100.90
3096.00,100.91
3095.00,100.92
3094.00,100.92
3093.00,100.91
3092.00,100.90
3091.00,100.88
3090.00,100.87
3089.00,100.85
3088.00,100.83
3087.00,100.81
3086.00,100.80
3085.00,100.80
3084.00,100.80
3083.00,100.81
3082.00,100.81
3081.00,100.82
3080.00,100.82
3079.00,100.81
3078.00,100.80
3077.00,100.79
3076.00,100.78
3075.00,100.78
3074.00,100.79
3073.00,100.80
3072.00,100.80
3071.00,100.80
3070.00,100.80
3069.00,100.80
3068.00,100.79
3067.00,100.76
3066.00,100.75
3065.00,100.74
3064.00,100.75
3063.00,100.76
3062.00,100.77
3061.00,100.77
3060.00,100.78
3059.00,100.79
3058.00,100.79
3057.00,100.80
3056.00,100.81
3055.00,100.80
3054.00,100.79
3053.00,100.78
3052.00,100.78
3051.00,100.80
3050.00,100.82
3049.00,100.85
3048.00,100.87
3047.00,100.87
3046.00,100.86
3045.00,100.86
3044.00,100.86
3043.00,100.89
3042.00,100.92
3041.00,100.96
3040.00,100.98
3039.00,100.99
3038.00,100.98
3037.00,100.96
3036.00,100.94
3035.00,100.93
3034.00,100.93
3033.00,100.94
3032.00,100.95
3031.00,100.96
3030.00,100.97
3029.00,100.97
3028.00,100.97
3027.00,100.96
3026.00,100.95
3025.00,100.94
3024.00,100.94
3023.00,100.94
3022.00,100.94
3021.00,100.92
3020.00,100.90
3019.00,100.88
3018.00,100.86
3017.00,100.85
3016.00,100.84
3015.00,100.84
3014.00,100.84
3013.00,100.84
3012.00,100.84
3011.00,100.84
3010.00,100.83
3009.00,100.82
3008.00,100.81
3007.00,100.80
3006.00,100.79
3005.00,100.77
3004.00,100.75
3003.00,100.73
3002.00,100.72
3001.00,100.72
3000.00,100.72
2999.00,100.72
2998.00,100.70
2997.00,100.67
2996.00,100.64
2995.00,100.60
2994.00,100.58
2993.00,100.57
2992.00,100.56
2991.00,100.54
2990.00,100.52
2989.00,100.48
2988.00,100.44
2987.00,100.40
2986.00,100.37
2985.00,100.34
2984.00,100.32
2983.00,100.28
2982.00,100.23
2981.00,100.17
2980.00,100.11
2979.00,100.05
2978.00,99.99
2977.00,99.92
2976.00,99.85
2975.00,99.78
2974.00,99.70
2973.00,99.62
2972.00,99.54
2971.00,99.46
2970.00,99.37
2969.00,99.27
2968.00,99.15
2967.00,99.02
2966.00,98.89
2965.00,98.78
2964.00,98.68
2963.00,98.58
2962.00,98.47
2961.00,98.35
2960.00,98.23
2959.00,98.10
2958.00,97.97
2957.00,97.84
2956.00,97.69
2955.00,97.53
2954.00,97.35
2953.00,97.14
2952.00,96.90
2951.00,96.65
2950.00,96.37
2949.00,96.09
2948.00,95.80
2947.00,95.50
2946.00,95.23
2945.00,94.99
2944.00,94.81
2943.00,94.67
2942.00,94.57
2941.00,94.50
2940.00,94.44
2939.00,94.40
2938.00,94.37
2937.00,94.33
2936.00,94.28
2935.00,94.21
2934.00,94.14
2933.00,94.08
2932.00,94.01
2931.00,93.93
2930.00,93.85
2929.00,93.77
2928.00,93.70
2927.00,93.65
2926.00,93.60
2925.00,93.59
2924.00,93.59
2923.00,93.62
2922.00,93.65
2921.00,93.67
2920.00,93.69
2919.00,93.75
2918.00,93.84
2917.00,93.99
2916.00,94.17
2915.00,94.37
2914.00,94.57
2913.00,94.75
2912.00,94.92
2911.00,95.07
2910.00,95.21
2909.00,95.35
2908.00,95.49
2907.00,95.61
2906.00,95.72
2905.00,95.81
2904.00,95.90
2903.00,95.99
2902.00,96.06
2901.00,96.11
2900.00,96.15
2899.00,96.19
2898.00,96.21
2897.00,96.24
2896.00,96.25
2895.00,96.26
2894.00,96.28
2893.00,96.31
2892.00,96.35
2891.00,96.39
2890.00,96.44
2889.00,96.49
2888.00,96.56
2887.00,96.66
2886.00,96.79
2885.00,96.93
2884.00,97.08
2883.00,97.23
2882.00,97.37
2881.00,97.50
2880.00,97.61
2879.00,97.71
2878.00,97.78
2877.00,97.83
2876.00,97.85
2875.00,97.86
2874.00,97.84
2873.00,97.80
2872.00,97.74
2871.00,97.65
2870.00,97.56
2869.00,97.46
2868.00,97.37
2867.00,97.27
2866.00,97.18
2865.00,97.08
2864.00,96.97
2863.00,96.84
2862.00,96.71
2861.00,96.57
2860.00,96.44
2859.00,96.32
2858.00,96.22
2857.00,96.13
2856.00,96.04
2855.00,95.96
2854.00,95.90
2853.00,95.85
2852.00,95.82
2851.00,95.80
2850.00,95.79
2849.00,95.81
2848.00,95.87
2847.00,95.99
2846.00,96.17
2845.00,96.42
2844.00,96.72
2843.00,97.05
2842.00,97.38
2841.00,97.69
2840.00,97.97
2839.00,98.22
2838.00,98.42
2837.00,98.59
2836.00,98.74
2835.00,98.87
2834.00,98.97
2833.00,99.06
2832.00,99.14
2831.00,99.22
2830.00,99.29
2829.00,99.36
2828.00,99.42
2827.00,99.46
2826.00,99.50
2825.00,99.55
2824.00,99.60
2823.00,99.65
2822.00,99.68
2821.00,99.71
2820.00,99.72
2819.00,99.73
2818.00,99.73
2817.00,99.73
2816.00,99.73
2815.00,99.74
2814.00,99.76
2813.00,99.79
2812.00,99.82
2811.00,99.85
2810.00,99.88
2809.00,99.89
2808.00,99.90
2807.00,99.90
2806.00,99.91
2805.00,99.91
2804.00,99.93
2803.00,99.95
2802.00,99.97
2801.00,99.99
2800.00,99.99
2799.00,99.99
2798.00,99.99
2797.00,100.00
2796.00,100.02
2795.00,100.03
2794.00,100.04
2793.00,100.06
2792.00,100.07
2791.00,100.07
2790.00,100.08
2789.00,100.08
2788.00,100.09
2787.00,100.10
2786.00,100.11
2785.00,100.12
2784.00,100.11
2783.00,100.11
2782.00,100.12
2781.00,100.13
2780.00,100.16
2779.00,100.19
2778.00,100.21
2777.00,100.22
2776.00,100.22
2775.00,100.20
2774.00,100.19
2773.00,100.19
2772.00,100.20
2771.00,100.22
2770.00,100.22
2769.00,100.22
2768.00,100.21
2767.00,100.20
2766.00,100.19
2765.00,100.19
2764.00,100.19
2763.00,100.19
2762.00,100.19
2761.00,100.19
2760.00,100.20
2759.00,100.20
2758.00,100.20
2757.00,100.19
2756.00,100.18
2755.00,100.17
2754.00,100.16
2753.00,100.15
2752.00,100.16
2751.00,100.18
2750.00,100.20
2749.00,100.21
2748.00,100.22
2747.00,100.22
2746.00,100.22
2745.00,100.23
2744.00,100.24
2743.00,100.24
2742.00,100.24
2741.00,100.25
2740.00,100.26
2739.00,100.28
2738.00,100.29
2737.00,100.29
2736.00,100.29
2735.00,100.28
2734.00,100.26
2733.00,100.24
2732.00,100.22
2731.00,100.21
2730.00,100.21
2729.00,100.22
2728.00,100.24
2727.00,100.25
2726.00,100.26
2725.00,100.26
2724.00,100.26
2723.00,100.26
2722.00,100.26
2721.00,100.26
2720.00,100.26
2719.00,100.27
2718.00,100.28
2717.00,100.30
2716.00,100.31
2715.00,100.31
2714.00,100.31
2713.00,100.30
2712.00,100.28
2711.00,100.27
2710.00,100.26
2709.00,100.25
2708.00,100.25
2707.00,100.26
2706.00,100.27
2705.00,100.29
2704.00,100.31
2703.00,100.31
2702.00,100.31
2701.00,100.30
2700.00,100.30
2699.00,100.30
2698.00,100.30
2697.00,100.29
2696.00,100.28
2695.00,100.28
2694.00,100.28
2693.00,100.28
2692.00,100.28
2691.00,100.28
2690.00,100.28
2689.00,100.27
2688.00,100.26
2687.00,100.25
2686.00,100.24
2685.00,100.24
2684.00,100.24
2683.00,100.24
2682.00,100.24
2681.00,100.24
2680.00,100.24
2679.00,100.23
2678.00,100.22
2677.00,100.20
2676.00,100.19
2675.00,100.17
2674.00,100.17
2673.00,100.18
2672.00,100.19
2671.00,100.20
2670.00,100.21
2669.00,100.21
2668.00,100.20
2667.00,100.20
2666.00,100.20
2665.00,100.20
2664.00,100.19
2663.00,100.20
2662.00,100.20
2661.00,100.20
2660.00,100.19
2659.00,100.18
2658.00,100.18
2657.00,100.18
2656.00,100.18
2655.00,100.19
2654.00,100.19
2653.00,100.19
2652.00,100.18
2651.00,100.17
2650.00,100.16
2649.00,100.16
2648.00,100.16
2647.00,100.15
2646.00,100.15
2645.00,100.15
2644.00,100.14
2643.00,100.14
2642.00,100.15
2641.00,100.16
2640.00,100.17
2639.00,100.17
2638.00,100.17
2637.00,100.15
2636.00,100.12
2635.00,100.10
2634.00,100.08
2633.00,100.07
2632.00,100.07
2631.00,100.06
2630.00,100.05
2629.00,100.05
2628.00,100.04
2627.00,100.05
2626.00,100.05
2625.00,100.06
2624.00,100.06
2623.00,100.04
2622.00,100.03
2621.00,100.02
2620.00,100.03
2619.00,100.04
2618.00,100.05
2617.00,100.06
2616.00,100.05
2615.00,100.03
2614.00,100.02
2613.00,100.01
2612.00,100.00
2611.00,100.01
2610.00,100.03
2609.00,100.05
2608.00,100.07
2607.00,100.06
2606.00,100.05
2605.00,100.04
2604.00,100.04
2603.00,100.05
2602.00,100.05
2601.00,100.04
2600.00,100.03
2599.00,100.03
2598.00,100.02
2597.00,100.01
2596.00,100.01
2595.00,100.00
2594.00,99.99
2593.00,100.00
2592.00,100.00
2591.00,100.00
2590.00,99.99
2589.00,99.96
2588.00,99.92
2587.00,99.88
2586.00,99.86
2585.00,99.86
2584.00,99.86
2583.00,99.88
2582.00,99.89
2581.00,99.91
2580.00,99.93
2579.00,99.95
2578.00,99.98
2577.00,99.99
2576.00,99.97
2575.00,99.94
2574.00,99.92
2573.00,99.91
2572.00,99.91
2571.00,99.91
2570.00,99.90
2569.00,99.87
2568.00,99.85
2567.00,99.85
2566.00,99.86
2565.00,99.88
2564.00,99.90
2563.00,99.92
2562.00,99.93
2561.00,99.95
2560.00,99.96
2559.00,99.97
2558.00,99.98
2557.00,99.99
2556.00,100.00
2555.00,99.99
2554.00,99.99
2553.00,99.99
2552.00,99.99
2551.00,99.98
2550.00,99.97
2549.00,99.94
2548.00,99.91
2547.00,99.90
2546.00,99.88
2545.00,99.87
2544.00,99.84
2543.00,99.82
2542.00,99.81
2541.00,99.82
2540.00,99.83
2539.00,99.85
2538.00,99.86
2537.00,99.86
2536.00,99.86
2535.00,99.85
2534.00,99.85
2533.00,99.85
2532.00,99.84
2531.00,99.84
2530.00,99.83
2529.00,99.83
2528.00,99.84
2527.00,99.85
2526.00,99.87
2525.00,99.87
2524.00,99.88
2523.00,99.88
2522.00,99.88
2521.00,99.87
2520.00,99.85
2519.00,99.84
2518.00,99.85
2517.00,99.87
2516.00,99.90
2515.00,99.92
2514.00,99.93
2513.00,99.93
2512.00,99.93
2511.00,99.93
2510.00,99.93
2509.00,99.93
2508.00,99.92
2507.00,99.91
2506.00,99.92
2505.00,99.93
2504.00,99.95
2503.00,99.97
2502.00,99.97
2501.00,99.97
2500.00,99.97
2499.00,99.97
2498.00,99.96
2497.00,99.95
2496.00,99.95
2495.00,99.94
2494.00,99.92
2493.00,99.90
2492.00,99.89
2491.00,99.89
2490.00,99.89
2489.00,99.90
2488.00,99.90
2487.00,99.89
2486.00,99.87
2485.00,99.87
2484.00,99.88
2483.00,99.89
2482.00,99.90
2481.00,99.91
2480.00,99.92
2479.00,99.93
2478.00,99.94
2477.00,99.94
2476.00,99.93
2475.00,99.92
2474.00,99.91
2473.00,99.91
2472.00,99.91
2471.00,99.93
2470.00,99.94
2469.00,99.95
2468.00,99.94
2467.00,99.91
2466.00,99.88
2465.00,99.86
2464.00,99.85
2463.00,99.83
2462.00,99.83
2461.00,99.83
2460.00,99.85
2459.00,99.86
2458.00,99.87
2457.00,99.86
2456.00,99.86
2455.00,99.86
2454.00,99.87
2453.00,99.88
2452.00,99.89
2451.00,99.90
2450.00,99.91
2449.00,99.91
2448.00,99.90
2447.00,99.90
2446.00,99.90
2445.00,99.89
2444.00,99.88
2443.00,99.88
2442.00,99.89
2441.00,99.91
2440.00,99.92
2439.00,99.92
2438.00,99.92
2437.00,99.92
2436.00,99.91
2435.00,99.89
2434.00,99.86
2433.00,99.85
2432.00,99.85
2431.00,99.87
2430.00,99.89
2429.00,99.90
2428.00,99.90
2427.00,99.89
2426.00,99.88
2425.00,99.86
2424.00,99.84
2423.00,99.83
2422.00,99.84
2421.00,99.85
2420.00,99.86
2419.00,99.86
2418.00,99.85
2417.00,99.85
2416.00,99.86
2415.00,99.87
2414.00,99.88
2413.00,99.88
2412.00,99.87
2411.00,99.87
2410.00,99.87
2409.00,99.88
2408.00,99.89
2407.00,99.90
2406.00,99.90
2405.00,99.89
2404.00,99.88
2403.00,99.87
2402.00,99.87
2401.00,99.86
2400.00,99.87
2399.00,99.88
2398.00,99.89
2397.00,99.89
2396.00,99.89
2395.00,99.88
2394.00,99.87
2393.00,99.88
2392.00,99.89
2391.00,99.90
2390.00,99.90
2389.00,99.91
2388.00,99.92
2387.00,99.93
2386.00,99.96
2385.00,99.98
2384.00,100.00
2383.00,100.01
2382.00,100.03
2381.00,100.06
2380.00,100.09
2379.00,100.12
2378.00,100.12
2377.00,100.10
2376.00,100.08
2375.00,100.06
2374.00,100.06
2373.00,100.07
2372.00,100.09
2371.00,100.13
2370.00,100.19
2369.00,100.24
2368.00,100.25
2367.00,100.21
2366.00,100.13
2365.00,100.09
2364.00,100.11
2363.00,100.15
2362.00,100.16
2361.00,100.13
2360.00,100.10
2359.00,100.11
2358.00,100.14
2357.00,100.16
2356.00,100.15
2355.00,100.13
2354.00,100.12
2353.00,100.12
2352.00,100.15
2351.00,100.20
2350.00,100.25
2349.00,100.28
2348.00,100.29
2347.00,100.30
2346.00,100.28
2345.00,100.23
2344.00,100.16
2343.00,100.10
2342.00,100.08
2341.00,100.09
2340.00,100.12
2339.00,100.15
2338.00,100.17
2337.00,100.16
2336.00,100.12
2335.00,100.06
2334.00,100.01
2333.00,99.99
2332.00,100.00
2331.00,100.01
2330.00,100.03
2329.00,100.03
2328.00,100.01
2327.00,99.98
2326.00,99.92
2325.00,99.85
2324.00,99.81
2323.00,99.79
2322.00,99.80
2321.00,99.82
2320.00,99.85
2319.00,99.87
2318.00,99.87
2317.00,99.87
2316.00,99.86
2315.00,99.84
2314.00,99.83
2313.00,99.82
2312.00,99.83
2311.00,99.84
2310.00,99.85
2309.00,99.84
2308.00,99.83
2307.00,99.82
2306.00,99.81
2305.00,99.80
2304.00,99.78
2303.00,99.74
2302.00,99.71
2301.00,99.68
2300.00,99.67
2299.00,99.67
2298.00,99.67
2297.00,99.66
2296.00,99.66
2295.00,99.65
2294.00,99.64
2293.00,99.63
2292.00,99.60
2291.00,99.57
2290.00,99.54
2289.00,99.52
2288.00,99.50
2287.00,99.48
2286.00,99.46
2285.00,99.44
2284.00,99.43
2283.00,99.44
2282.00,99.46
2281.00,99.46
2280.00,99.45
2279.00,99.45
2278.00,99.46
2277.00,99.47
2276.00,99.48
2275.00,99.48
2274.00,99.46
2273.00,99.42
2272.00,99.39
2271.00,99.36
2270.00,99.34
2269.00,99.34
2268.00,99.36
2267.00,99.38
2266.00,99.39
2265.00,99.39
2264.00,99.37
2263.00,99.37
2262.00,99.38
2261.00,99.39
2260.00,99.40
2259.00,99.39
2258.00,99.37
2257.00,99.35
2256.00,99.36
2255.00,99.37
2254.00,99.36
2253.00,99.33
2252.00,99.28
2251.00,99.25
2250.00,99.24
2249.00,99.26
2248.00,99.27
2247.00,99.26
2246.00,99.23
2245.00,99.23
2244.00,99.25
2243.00,99.29
2242.00,99.31
2241.00,99.29
2240.00,99.25
2239.00,99.22
2238.00,99.21
2237.00,99.22
2236.00,99.23
2235.00,99.21
2234.00,99.17
2233.00,99.16
2232.00,99.18
2231.00,99.22
2230.00,99.26
2229.00,99.28
2228.00,99.28
2227.00,99.25
2226.00,99.21
2225.00,99.16
2224.00,99.14
2223.00,99.15
2222.00,99.15
2221.00,99.14
2220.00,99.10
2219.00,99.07
2218.00,99.06
2217.00,99.06
2216.00,99.06
2215.00,99.06
2214.00,99.05
2213.00,99.05
2212.00,99.06
2211.00,99.09
2210.00,99.11
2209.00,99.12
2208.00,99.11
2207.00,99.09
2206.00,99.06
2205.00,99.03
2204.00,99.00
2203.00,98.97
2202.00,98.94
2201.00,98.91
2200.00,98.91
2199.00,98.92
2198.00,98.94
2197.00,98.96
2196.00,98.97
2195.00,98.97
2194.00,98.96
2193.00,98.95
2192.00,98.95
2191.00,98.96
2190.00,98.98
2189.00,98.98
2188.00,98.99
2187.00,98.98
2186.00,98.97
2185.00,98.94
2184.00,98.92
2183.00,98.93
2182.00,98.97
2181.00,99.00
2180.00,99.02
2179.00,99.02
2178.00,99.00
2177.00,98.97
2176.00,98.95
2175.00,98.95
2174.00,98.94
2173.00,98.92
2172.00,98.88
2171.00,98.83
2170.00,98.80
2169.00,98.80
2168.00,98.82
2167.00,98.85
2166.00,98.87
2165.00,98.84
2164.00,98.74
2163.00,98.63
2162.00,98.56
2161.00,98.59
2160.00,98.71
2159.00,98.88
2158.00,99.03
2157.00,99.14
2156.00,99.19
2155.00,99.20
2154.00,99.21
2153.00,99.23
2152.00,99.23
2151.00,99.22
2150.00,99.18
2149.00,99.14
2148.00,99.13
2147.00,99.13
2146.00,99.12
2145.00,99.10
2144.00,99.10
2143.00,99.14
2142.00,99.17
2141.00,99.17
2140.00,99.14
2139.00,99.14
2138.00,99.20
2137.00,99.29
2136.00,99.36
2135.00,99.40
2134.00,99.43
2133.00,99.43
2132.00,99.44
2131.00,99.45
2130.00,99.48
2129.00,99.50
2128.00,99.51
2127.00,99.52
2126.00,99.52
2125.00,99.51
2124.00,99.48
2123.00,99.44
2122.00,99.40
2121.00,99.38
2120.00,99.36
2119.00,99.35
2118.00,99.34
2117.00,99.34
2116.00,99.33
2115.00,99.30
2114.00,99.27
2113.00,99.23
2112.00,99.22
2111.00,99.23
2110.00,99.26
2109.00,99.29
2108.00,99.32
2107.00,99.34
2106.00,99.34
2105.00,99.32
2104.00,99.28
2103.00,99.25
2102.00,99.23
2101.00,99.21
2100.00,99.20
2099.00,99.19
2098.00,99.21
2097.00,99.26
2096.00,99.31
2095.00,99.33
2094.00,99.33
2093.00,99.31
2092.00,99.28
2091.00,99.27
2090.00,99.27
2089.00,99.28
2088.00,99.29
2087.00,99.30
2086.00,99.28
2085.00,99.25
2084.00,99.23
2083.00,99.22
2082.00,99.20
2081.00,99.18
2080.00,99.15
2079.00,99.13
2078.00,99.14
2077.00,99.17
2076.00,99.18
2075.00,99.17
2074.00,99.15
2073.00,99.13
2072.00,99.13
2071.00,99.14
2070.00,99.14
2069.00,99.13
2068.00,99.13
2067.00,99.14
2066.00,99.15
2065.00,99.14
2064.00,99.12
2063.00,99.09
2062.00,99.08
2061.00,99.07
2060.00,99.06
2059.00,99.06
2058.00,99.08
2057.00,99.11
2056.00,99.12
2055.00,99.11
2054.00,99.08
2053.00,99.02
2052.00,98.96
2051.00,98.93
2050.00,98.91
2049.00,98.90
2048.00,98.87
2047.00,98.87
2046.00,98.90
2045.00,98.93
2044.00,98.92
2043.00,98.87
2042.00,98.84
2041.00,98.84
2040.00,98.89
2039.00,98.94
2038.00,98.96
2037.00,98.94
2036.00,98.90
2035.00,98.88
2034.00,98.89
2033.00,98.90
2032.00,98.91
2031.00,98.92
2030.00,98.94
2029.00,98.94
2028.00,98.90
2027.00,98.84
2026.00,98.80
2025.00,98.82
2024.00,98.86
2023.00,98.91
2022.00,98.96
2021.00,99.01
2020.00,99.03
2019.00,99.02
2018.00,98.97
2017.00,98.93
2016.00,98.88
2015.00,98.86
2014.00,98.86
2013.00,98.92
2012.00,99.00
2011.00,99.07
2010.00,99.11
2009.00,99.15
2008.00,99.18
2007.00,99.18
2006.00,99.12
2005.00,99.01
2004.00,98.91
2003.00,98.83
2002.00,98.80
2001.00,98.84
2000.00,98.92
1999.00,99.02
1998.00,99.10
1997.00,99.14
1996.00,99.15
1995.00,99.11
1994.00,99.01
1993.00,98.90
1992.00,98.85
1991.00,98.89
1990.00,98.99
1989.00,99.07
1988.00,99.10
1987.00,99.09
1986.00,99.04
1985.00,98.97
1984.00,98.88
1983.00,98.82
1982.00,98.78
1981.00,98.78
1980.00,98.78
1979.00,98.79
1978.00,98.82
1977.00,98.87
1976.00,98.91
1975.00,98.96
1974.00,99.00
1973.00,99.05
1972.00,99.11
1971.00,99.16
1970.00,99.18
1969.00,99.13
1968.00,99.03
1967.00,98.92
1966.00,98.84
1965.00,98.81
1964.00,98.82
1963.00,98.85
1962.00,98.90
1961.00,98.96
1960.00,99.02
1959.00,99.06
1958.00,99.08
1957.00,99.07
1956.00,99.06
1955.00,99.05
1954.00,99.05
1953.00,99.07
1952.00,99.08
1951.00,99.08
1950.00,99.08
1949.00,99.11
1948.00,99.14
1947.00,99.16
1946.00,99.14
1945.00,99.10
1944.00,99.06
1943.00,99.05
1942.00,99.08
1941.00,99.11
1940.00,99.14
1939.00,99.14
1938.00,99.14
1937.00,99.15
1936.00,99.18
1935.00,99.21
1934.00,99.22
1933.00,99.23
1932.00,99.25
1931.00,99.27
1930.00,99.29
1929.00,99.29
1928.00,99.29
1927.00,99.28
1926.00,99.27
1925.00,99.26
1924.00,99.26
1923.00,99.28
1922.00,99.31
1921.00,99.32
1920.00,99.33
1919.00,99.35
1918.00,99.37
1917.00,99.36
1916.00,99.35
1915.00,99.33
1914.00,99.32
1913.00,99.32
1912.00,99.33
1911.00,99.34
1910.00,99.35
1909.00,99.35
1908.00,99.35
1907.00,99.35
1906.00,99.36
1905.00,99.38
1904.00,99.41
1903.00,99.43
1902.00,99.45
1901.00,99.47
1900.00,99.49
1899.00,99.52
1898.00,99.53
1897.00,99.53
1896.00,99.53
1895.00,99.53
1894.00,99.54
1893.00,99.54
1892.00,99.53
1891.00,99.51
1890.00,99.51
1889.00,99.51
1888.00,99.51
1887.00,99.50
1886.00,99.48
1885.00,99.46
1884.00,99.46
1883.00,99.48
1882.00,99.51
1881.00,99.55
1880.00,99.58
1879.00,99.58
1878.00,99.58
1877.00,99.56
1876.00,99.54
1875.00,99.52
1874.00,99.51
1873.00,99.51
1872.00,99.53
1871.00,99.54
1870.00,99.55
1869.00,99.56
1868.00,99.57
1867.00,99.57
1866.00,99.58
1865.00,99.58
1864.00,99.60
1863.00,99.61
1862.00,99.62
1861.00,99.61
1860.00,99.60
1859.00,99.59
1858.00,99.59
1857.00,99.61
1856.00,99.62
1855.00,99.63
1854.00,99.63
1853.00,99.61
1852.00,99.59
1851.00,99.58
1850.00,99.57
1849.00,99.55
1848.00,99.55
1847.00,99.56
1846.00,99.59
1845.00,99.60
1844.00,99.60
1843.00,99.57
1842.00,99.54
1841.00,99.53
1840.00,99.52
1839.00,99.51
1838.00,99.50
1837.00,99.50
1836.00,99.50
1835.00,99.48
1834.00,99.46
1833.00,99.43
1832.00,99.42
1831.00,99.41
1830.00,99.40
1829.00,99.38
1828.00,99.37
1827.00,99.37
1826.00,99.38
1825.00,99.38
1824.00,99.38
1823.00,99.38
1822.00,99.38
1821.00,99.40
1820.00,99.42
1819.00,99.46
1818.00,99.49
1817.00,99.50
1816.00,99.51
1815.00,99.51
1814.00,99.50
1813.00,99.50
1812.00,99.51
1811.00,99.52
1810.00,99.53
1809.00,99.55
1808.00,99.55
1807.00,99.54
1806.00,99.52
1805.00,99.51
1804.00,99.50
1803.00,99.51
1802.00,99.53
1801.00,99.54
1800.00,99.55
1799.00,99.56
1798.00,99.56
1797.00,99.56
1796.00,99.55
1795.00,99.55
1794.00,99.54
1793.00,99.54
1792.00,99.54
1791.00,99.53
1790.00,99.53
1789.00,99.53
1788.00,99.52
1787.00,99.52
1786.00,99.51
1785.00,99.50
1784.00,99.48
1783.00,99.46
1782.00,99.44
1781.00,99.44
1780.00,99.44
1779.00,99.46
1778.00,99.47
1777.00,99.48
1776.00,99.47
1775.00,99.47
1774.00,99.47
1773.00,99.47
1772.00,99.47
1771.00,99.47
1770.00,99.46
1769.00,99.47
1768.00,99.47
1767.00,99.46
1766.00,99.45
1765.00,99.43
1764.00,99.42
1763.00,99.41
1762.00,99.40
1761.00,99.39
1760.00,99.37
1759.00,99.35
1758.00,99.34
1757.00,99.31
1756.00,99.28
1755.00,99.25
1754.00,99.21
1753.00,99.16
1752.00,99.10
1751.00,99.02
1750.00,98.94
1749.00,98.87
1748.00,98.80
1747.00,98.71
1746.00,98.60
1745.00,98.47
1744.00,98.31
1743.00,98.10
1742.00,97.82
1741.00,97.47
1740.00,97.01
1739.00,96.48
1738.00,95.96
1737.00,95.46
1736.00,94.84
1735.00,93.94
1734.00,92.78
1733.00,91.67
1732.00,90.71
1731.00,89.76
1730.00,88.74
1729.00,87.67
1728.00,86.60
1727.00,85.53
1726.00,84.42
1725.00,83.27
1724.00,82.07
1723.00,80.84
1722.00,79.64
1721.00,78.52
1720.00,77.40
1719.00,76.11
1718.00,74.63
1717.00,73.25
1716.00,72.16
1715.00,71.27
1714.00,70.56
1713.00,70.12
1712.00,69.96
1711.00,70.02
1710.00,70.31
1709.00,70.88
1708.00,71.78
1707.00,72.99
1706.00,74.48
1705.00,76.09
1704.00,77.51
1703.00,78.68
1702.00,79.84
1701.00,81.37
1700.00,83.09
1699.00,84.40
1698.00,85.28
1697.00,86.10
1696.00,87.05
1695.00,87.94
1694.00,88.61
1693.00,89.10
1692.00,89.55
1691.00,89.99
1690.00,90.43
1689.00,90.83
1688.00,91.17
1687.00,91.46
1686.00,91.71
1685.00,91.96
1684.00,92.21
1683.00,92.39
1682.00,92.52
1681.00,92.63
1680.00,92.70
1679.00,92.74
1678.00,92.76
1677.00,92.80
1676.00,92.88
1675.00,93.00
1674.00,93.13
1673.00,93.28
1672.00,93.46
1671.00,93.68
1670.00,93.95
1669.00,94.23
1668.00,94.48
1667.00,94.68
1666.00,94.86
1665.00,95.03
1664.00,95.20
1663.00,95.39
1662.00,95.55
1661.00,95.70
1660.00,95.82
1659.00,95.93
1658.00,96.00
1657.00,96.08
1656.00,96.16
1655.00,96.24
1654.00,96.34
1653.00,96.44
1652.00,96.51
1651.00,96.53
1650.00,96.54
1649.00,96.58
1648.00,96.65
1647.00,96.74
1646.00,96.81
1645.00,96.86
1644.00,96.90
1643.00,96.95
1642.00,97.00
1641.00,97.03
1640.00,97.05
1639.00,97.06
1638.00,97.07
1637.00,97.08
1636.00,97.09
1635.00,97.12
1634.00,97.18
1633.00,97.24
1632.00,97.29
1631.00,97.33
1630.00,97.35
1629.00,97.36
1628.00,97.37
1627.00,97.39
1626.00,97.41
1625.00,97.43
1624.00,97.46
1623.00,97.49
1622.00,97.52
1621.00,97.55
1620.00,97.58
1619.00,97.60
1618.00,97.60
1617.00,97.56
1616.00,97.51
1615.00,97.48
1614.00,97.48
1613.00,97.50
1612.00,97.51
1611.00,97.52
1610.00,97.52
1609.00,97.54
1608.00,97.58
1607.00,97.63
1606.00,97.70
1605.00,97.76
1604.00,97.80
1603.00,97.84
1602.00,97.88
1601.00,97.91
1600.00,97.93
1599.00,97.95
1598.00,97.97
1597.00,97.99
1596.00,98.01
1595.00,98.02
1594.00,98.04
1593.00,98.06
1592.00,98.08
1591.00,98.10
1590.00,98.11
1589.00,98.11
1588.00,98.10
1587.00,98.09
1586.00,98.07
1585.00,98.02
1584.00,97.95
1583.00,97.85
1582.00,97.73
1581.00,97.60
1580.00,97.49
1579.00,97.43
1578.00,97.41
1577.00,97.44
1576.00,97.52
1575.00,97.60
1574.00,97.68
1573.00,97.76
1572.00,97.83
1571.00,97.91
1570.00,97.98
1569.00,98.05
1568.00,98.10
1567.00,98.14
1566.00,98.18
1565.00,98.21
1564.00,98.24
1563.00,98.26
1562.00,98.27
1561.00,98.26
1560.00,98.27
1559.00,98.30
1558.00,98.31
1557.00,98.32
1556.00,98.35
1555.00,98.37
1554.00,98.39
1553.00,98.39
1552.00,98.39
1551.00,98.39
1550.00,98.39
1549.00,98.40
1548.00,98.41
1547.00,98.42
1546.00,98.43
1545.00,98.44
1544.00,98.45
1543.00,98.46
1542.00,98.46
1541.00,98.46
1540.00,98.47
1539.00,98.47
1538.00,98.46
1537.00,98.42
1536.00,98.38
1535.00,98.33
1534.00,98.28
1533.00,98.23
1532.00,98.20
1531.00,98.19
1530.00,98.18
1529.00,98.18
1528.00,98.19
1527.00,98.21
1526.00,98.25
1525.00,98.29
1524.00,98.33
1523.00,98.37
1522.00,98.40
1521.00,98.41
1520.00,98.41
1519.00,98.42
1518.00,98.43
1517.00,98.43
1516.00,98.42
1515.00,98.40
1514.00,98.38
1513.00,98.35
1512.00,98.27
1511.00,98.16
1510.00,98.01
1509.00,97.80
1508.00,97.47
1507.00,96.94
1506.00,96.38
1505.00,96.01
1504.00,95.87
1503.00,95.94
1502.00,96.17
1501.00,96.54
1500.00,96.97
1499.00,97.40
1498.00,97.76
1497.00,98.03
1496.00,98.21
1495.00,98.33
1494.00,98.42
1493.00,98.46
1492.00,98.48
1491.00,98.49
1490.00,98.50
1489.00,98.51
1488.00,98.53
1487.00,98.56
1486.00,98.58
1485.00,98.58
1484.00,98.56
1483.00,98.54
1482.00,98.50
1481.00,98.43
1480.00,98.34
1479.00,98.24
1478.00,98.12
1477.00,97.98
1476.00,97.82
1475.00,97.65
1474.00,97.43
1473.00,97.16
1472.00,96.86
1471.00,96.60
1470.00,96.37
1469.00,96.16
1468.00,95.95
1467.00,95.74
1466.00,95.54
1465.00,95.36
1464.00,95.21
1463.00,95.08
1462.00,94.96
1461.00,94.83
1460.00,94.69
1459.00,94.55
1458.00,94.38
1457.00,94.13
1456.00,93.81
1455.00,93.42
1454.00,92.97
1453.00,92.49
1452.00,92.06
1451.00,91.80
1450.00,91.77
1449.00,91.99
1448.00,92.42
1447.00,92.95
1446.00,93.49
1445.00,94.01
1444.00,94.49
1443.00,94.92
1442.00,95.28
1441.00,95.56
1440.00,95.79
1439.00,96.00
1438.00,96.24
1437.00,96.54
1436.00,96.87
1435.00,97.14
1434.00,97.34
1433.00,97.49
1432.00,97.62
1431.00,97.71
1430.00,97.77
1429.00,97.82
1428.00,97.86
1427.00,97.89
1426.00,97.90
1425.00,97.90
1424.00,97.88
1423.00,97.86
1422.00,97.82
1421.00,97.75
1420.00,97.62
1419.00,97.42
1418.00,97.18
1417.00,96.92
1416.00,96.63
1415.00,96.25
1414.00,95.75
1413.00,95.09
1412.00,94.27
1411.00,93.35
1410.00,92.42
1409.00,91.57
1408.00,90.91
1407.00,90.55
1406.00,90.57
1405.00,90.97
1404.00,91.64
1403.00,92.39
1402.00,93.08
1401.00,93.65
1400.00,94.11
1399.00,94.44
1398.00,94.66
1397.00,94.77
1396.00,94.79
1395.00,94.73
1394.00,94.61
1393.00,94.46
1392.00,94.29
1391.00,94.12
1390.00,93.98
1389.00,93.89
1388.00,93.88
1387.00,93.96
1386.00,94.11
1385.00,94.28
1384.00,94.44
1383.00,94.57
1382.00,94.64
1381.00,94.64
1380.00,94.58
1379.00,94.50
1378.00,94.43
1377.00,94.40
1376.00,94.45
1375.00,94.59
1374.00,94.82
1373.00,95.10
1372.00,95.36
1371.00,95.60
1370.00,95.82
1369.00,96.01
1368.00,96.20
1367.00,96.38
1366.00,96.55
1365.00,96.72
1364.00,96.87
1363.00,97.02
1362.00,97.14
1361.00,97.23
1360.00,97.30
1359.00,97.35
1358.00,97.39
1357.00,97.43
1356.00,97.46
1355.00,97.49
1354.00,97.51
1353.00,97.55
1352.00,97.59
1351.00,97.64
1350.00,97.70
1349.00,97.77
1348.00,97.84
1347.00,97.89
1346.00,97.93
1345.00,97.95
1344.00,97.97
1343.00,97.97
1342.00,97.95
1341.00,97.91
1340.00,97.86
1339.00,97.80
1338.00,97.75
1337.00,97.72
1336.00,97.70
1335.00,97.68
1334.00,97.66
1333.00,97.62
1332.00,97.55
1331.00,97.45
1330.00,97.31
1329.00,97.12
1328.00,96.90
1327.00,96.66
1326.00,96.38
1325.00,96.09
1324.00,95.79
1323.00,95.48
1322.00,95.18
1321.00,94.91
1320.00,94.68
1319.00,94.52
1318.00,94.44
1317.00,94.43
1316.00,94.45
1315.00,94.51
1314.00,94.58
1313.00,94.63
1312.00,94.64
1311.00,94.57
1310.00,94.42
1309.00,94.19
1308.00,93.89
1307.00,93.53
1306.00,93.11
1305.00,92.65
1304.00,92.17
1303.00,91.69
1302.00,91.21
1301.00,90.73
1300.00,90.26
1299.00,89.81
1298.00,89.39
1297.00,89.04
1296.00,88.76
1295.00,88.58
1294.00,88.51
1293.00,88.49
1292.00,88.48
1291.00,88.41
1290.00,88.25
1289.00,87.96
1288.00,87.51
1287.00,86.93
1286.00,86.24
1285.00,85.47
1284.00,84.64
1283.00,83.78
1282.00,82.89
1281.00,81.97
1280.00,81.04
1279.00,80.11
1278.00,79.17
1277.00,78.23
1276.00,77.31
1275.00,76.43
1274.00,75.59
1273.00,74.77
1272.00,74.00
1271.00,73.29
1270.00,72.65
1269.00,72.06
1268.00,71.52
1267.00,71.04
1266.00,70.64
1265.00,70.35
1264.00,70.21
1263.00,70.24
1262.00,70.43
1261.00,70.73
1260.00,71.07
1259.00,71.40
1258.00,71.67
1257.00,71.80
1256.00,71.80
1255.00,71.65
1254.00,71.41
1253.00,71.09
1252.00,70.74
1251.00,70.43
1250.00,70.19
1249.00,70.02
1248.00,69.94
1247.00,69.96
1246.00,70.09
1245.00,70.34
1244.00,70.71
1243.00,71.21
1242.00,71.83
1241.00,72.54
1240.00,73.34
1239.00,74.22
1238.00,75.15
1237.00,76.11
1236.00,77.05
1235.00,77.96
1234.00,78.84
1233.00,79.66
1232.00,80.44
1231.00,81.16
1230.00,81.81
1229.00,82.33
1228.00,82.71
1227.00,82.93
1226.00,83.03
1225.00,83.05
1224.00,83.06
1223.00,83.11
1222.00,83.22
1221.00,83.40
1220.00,83.66
1219.00,84.01
1218.00,84.44
1217.00,84.90
1216.00,85.37
1215.00,85.83
1214.00,86.27
1213.00,86.70
1212.00,87.12
1211.00,87.54
1210.00,87.94
1209.00,88.32
1208.00,88.66
1207.00,88.99
1206.00,89.29
1205.00,89.57
1204.00,89.83
1203.00,90.08
1202.00,90.32
1201.00,90.57
1200.00,90.82
1199.00,91.06
1198.00,91.29
1197.00,91.50
1196.00,91.68
1195.00,91.84
1194.00,92.00
1193.00,92.17
1192.00,92.36
1191.00,92.56
1190.00,92.76
1189.00,92.94
1188.00,93.12
1187.00,93.28
1186.00,93.41
1185.00,93.52
1184.00,93.60
1183.00,93.67
1182.00,93.72
1181.00,93.74
1180.00,93.74
1179.00,93.72
1178.00,93.68
1177.00,93.61
1176.00,93.51
1175.00,93.37
1174.00,93.25
1173.00,93.16
1172.00,93.12
1171.00,93.14
1170.00,93.19
1169.00,93.28
1168.00,93.40
1167.00,93.52
1166.00,93.63
1165.00,93.74
1164.00,93.83
1163.00,93.90
1162.00,93.97
1161.00,94.01
1160.00,94.04
1159.00,94.05
1158.00,94.02
1157.00,93.98
1156.00,93.92
1155.00,93.87
1154.00,93.84
1153.00,93.84
1152.00,93.86
1151.00,93.92
1150.00,94.00
1149.00,94.07
1148.00,94.13
1147.00,94.16
1146.00,94.13
1145.00,94.05
1144.00,93.88
1143.00,93.58
1142.00,93.14
1141.00,92.54
1140.00,91.79
1139.00,90.92
1138.00,90.01
1137.00,89.14
1136.00,88.39
1135.00,87.79
1134.00,87.34
1133.00,87.00
1132.00,86.73
1131.00,86.46
1130.00,86.15
1129.00,85.77
1128.00,85.30
1127.00,84.72
1126.00,84.02
1125.00,83.22
1124.00,82.34
1123.00,81.41
1122.00,80.45
1121.00,79.47
1120.00,78.53
1119.00,77.72
1118.00,77.12
1117.00,76.77
1116.00,76.68
1115.00,76.86
1114.00,77.26
1113.00,77.77
1112.00,78.23
1111.00,78.44
1110.00,78.29
1109.00,77.73
1108.00,76.88
1107.00,75.90
1106.00,74.95
1105.00,74.07
1104.00,73.27
1103.00,72.57
1102.00,71.98
1101.00,71.54
1100.00,71.27
1099.00,71.20
1098.00,71.34
1097.00,71.63
1096.00,72.05
1095.00,72.58
1094.00,73.19
1093.00,73.82
1092.00,74.44
1091.00,75.03
1090.00,75.59
1089.00,76.10
1088.00,76.55
1087.00,76.95
1086.00,77.33
1085.00,77.75
1084.00,78.21
1083.00,78.76
1082.00,79.39
1081.00,80.10
1080.00,80.84
1079.00,81.59
1078.00,82.30
1077.00,82.95
1076.00,83.54
1075.00,84.09
1074.00,84.61
1073.00,85.09
1072.00,85.53
1071.00,85.93
1070.00,86.28
1069.00,86.61
1068.00,86.90
1067.00,87.19
1066.00,87.47
1065.00,87.74
1064.00,88.00
1063.00,88.24
1062.00,88.45
1061.00,88.65
1060.00,88.83
1059.00,89.02
1058.00,89.23
1057.00,89.45
1056.00,89.66
1055.00,89.87
1054.00,90.07
1053.00,90.27
1052.00,90.45
1051.00,90.61
1050.00,90.74
1049.00,90.85
1048.00,90.95
1047.00,91.05
1046.00,91.16
1045.00,91.28
1044.00,91.41
1043.00,91.55
1042.00,91.71
1041.00,91.87
1040.00,92.02
1039.00,92.16
1038.00,92.31
1037.00,92.47
1036.00,92.61
1035.00,92.74
1034.00,92.85
1033.00,92.94
1032.00,93.00
1031.00,93.04
1030.00,93.04
1029.00,92.98
1028.00,92.84
1027.00,92.57
1026.00,92.13
1025.00,91.43
1024.00,90.38
1023.00,88.95
1022.00,87.21
1021.00,85.31
1020.00,83.49
1019.00,82.01
1018.00,81.05
1017.00,80.68
1016.00,80.79
1015.00,81.16
1014.00,81.66
1013.00,82.29
1012.00,83.14
1011.00,84.24
1010.00,85.45
1009.00,86.59
1008.00,87.53
1007.00,88.25
1006.00,88.82
1005.00,89.27
1004.00,89.66
1003.00,90.00
1002.00,90.31
1001.00,90.59
1000.00,90.82
999.00,91.00
998.00,91.14
997.00,91.26
996.00,91.36
995.00,91.42
994.00,91.43
993.00,91.39
992.00,91.33
991.00,91.25
990.00,91.17
989.00,91.09
988.00,91.04
987.00,91.03
986.00,91.06
985.00,91.11
984.00,91.16
983.00,91.19
982.00,91.17
981.00,91.09
980.00,90.93
979.00,90.66
978.00,90.26
977.00,89.71
976.00,89.04
975.00,88.34
974.00,87.69
973.00,87.20
972.00,86.91
971.00,86.80
970.00,86.82
969.00,86.92
968.00,87.04
967.00,87.15
966.00,87.18
965.00,87.08
964.00,86.79
963.00,86.28
962.00,85.55
961.00,84.69
960.00,83.83
959.00,83.13
958.00,82.67
957.00,82.49
956.00,82.54
955.00,82.76
954.00,83.09
953.00,83.46
952.00,83.83
951.00,84.21
950.00,84.59
949.00,84.97
948.00,85.37
947.00,85.79
946.00,86.24
945.00,86.68
944.00,87.10
943.00,87.51
942.00,87.90
941.00,88.25
940.00,88.55
939.00,88.82
938.00,89.06
937.00,89.27
936.00,89.45
935.00,89.61
934.00,89.74
933.00,89.86
932.00,89.98
931.00,90.11
930.00,90.23
929.00,90.34
928.00,90.45
927.00,90.55
926.00,90.63
925.00,90.71
924.00,90.79
923.00,90.88
922.00,90.99
921.00,91.09
920.00,91.19
919.00,91.27
918.00,91.33
917.00,91.40
916.00,91.49
915.00,91.61
914.00,91.75
913.00,91.89
912.00,91.99
911.00,92.05
910.00,92.06
909.00,92.01
908.00,91.93
907.00,91.84
906.00,91.76
905.00,91.69
904.00,91.64
903.00,91.62
902.00,91.61
901.00,91.63
900.00,91.69
899.00,91.77
898.00,91.86
897.00,91.93
896.00,91.98
895.00,92.04
894.00,92.10
893.00,92.14
892.00,92.16
891.00,92.16
890.00,92.17
889.00,92.19
888.00,92.24
887.00,92.30
886.00,92.31
885.00,92.23
884.00,92.05
883.00,91.77
882.00,91.38
881.00,90.88
880.00,90.23
879.00,89.43
878.00,88.47
877.00,87.39
876.00,86.21
875.00,85.10
874.00,84.27
873.00,83.92
872.00,84.13
871.00,84.80
870.00,85.71
869.00,86.62
868.00,87.43
867.00,88.09
866.00,88.63
865.00,89.06
864.00,89.39
863.00,89.59
862.00,89.68
861.00,89.62
860.00,89.46
859.00,89.23
858.00,89.01
857.00,88.86
856.00,88.83
855.00,88.92
854.00,89.10
853.00,89.34
852.00,89.62
851.00,89.89
850.00,90.14
849.00,90.36
848.00,90.54
847.00,90.72
846.00,90.90
845.00,91.07
844.00,91.23
843.00,91.38
842.00,91.51
841.00,91.62
840.00,91.70
839.00,91.75
838.00,91.78
837.00,91.80
836.00,91.82
835.00,91.85
834.00,91.90
833.00,91.97
832.00,92.06
831.00,92.13
830.00,92.17
829.00,92.18
828.00,92.21
827.00,92.26
826.00,92.33
825.00,92.38
824.00,92.39
823.00,92.36
822.00,92.31
821.00,92.23
820.00,92.13
819.00,92.00
818.00,91.85
817.00,91.72
816.00,91.65
815.00,91.66
814.00,91.72
813.00,91.80
812.00,91.89
811.00,91.98
810.00,92.07
809.00,92.16
808.00,92.24
807.00,92.30
806.00,92.33
805.00,92.34
804.00,92.35
803.00,92.37
802.00,92.38
801.00,92.37
800.00,92.30
799.00,92.15
798.00,91.91
797.00,91.58
796.00,91.21
795.00,90.92
794.00,90.78
793.00,90.81
792.00,90.99
791.00,91.27
790.00,91.62
789.00,91.97
788.00,92.27
787.00,92.50
786.00,92.69
785.00,92.85
784.00,92.99
783.00,93.11
782.00,93.21
781.00,93.30
780.00,93.37
779.00,93.43
778.00,93.46
777.00,93.47
776.00,93.47
775.00,93.49
774.00,93.52
773.00,93.57
772.00,93.66
771.00,93.79
770.00,93.94
769.00,94.07
768.00,94.18
767.00,94.27
766.00,94.36
765.00,94.45
764.00,94.54
763.00,94.63
762.00,94.72
761.00,94.79
760.00,94.85
759.00,94.91
758.00,94.98
757.00,95.09
756.00,95.23
755.00,95.36
754.00,95.45
753.00,95.49
752.00,95.50
751.00,95.51
750.00,95.55
749.00,95.61
748.00,95.67
747.00,95.72
746.00,95.69
745.00,95.57
744.00,95.32
743.00,94.96
742.00,94.43
741.00,93.66
740.00,92.55
739.00,91.05
738.00,89.18
737.00,87.02
736.00,84.64
735.00,82.07
734.00,79.28
733.00,76.27
732.00,73.12
731.00,69.97
730.00,67.02
729.00,64.58
728.00,62.97
727.00,62.39
726.00,62.83
725.00,64.11
724.00,65.94
723.00,68.06
722.00,70.31
721.00,72.55
720.00,74.66
719.00,76.53
718.00,78.10
717.00,79.42
716.00,80.52
715.00,81.41
714.00,82.10
713.00,82.63
712.00,83.01
711.00,83.30
710.00,83.51
709.00,83.72
708.00,83.96
707.00,84.23
706.00,84.54
705.00,84.88
704.00,85.26
703.00,85.69
702.00,86.12
701.00,86.53
700.00,86.91
699.00,87.26
698.00,87.56
697.00,87.81
696.00,88.02
695.00,88.20
694.00,88.35
693.00,88.46
692.00,88.56
691.00,88.66
690.00,88.77
689.00,88.85
688.00,88.92
687.00,89.00
686.00,89.11
685.00,89.23
684.00,89.32
683.00,89.35
682.00,89.34
681.00,89.34
680.00,89.38
679.00,89.47
678.00,89.58
677.00,89.67
676.00,89.77
675.00,89.87
674.00,89.97
673.00,90.08
672.00,90.19
671.00,90.29
670.00,90.37
669.00,90.43
668.00,90.41
667.00,90.33
666.00,90.30
665.00,90.30
664.00,90.32
663.00,90.38
662.00,90.47
661.00,90.56
660.00,90.66
659.00,90.76
658.00,90.83
657.00,90.86
656.00,90.84
655.00,90.83
654.00,90.85
653.00,90.86
652.00,90.79
651.00,90.63
650.00,90.47
649.00,90.38
648.00,90.41
647.00,90.56
646.00,90.73
645.00,90.87
644.00,90.95
643.00,91.02
642.00,91.14
641.00,91.27
640.00,91.31
639.00,91.22
638.00,91.09
637.00,91.01
636.00,90.96
635.00,90.85
634.00,90.63
633.00,90.42
632.00,90.36
631.00,90.53
630.00,90.86
629.00,91.18
628.00,91.40
627.00,91.48
626.00,91.54
625.00,91.69
624.00,91.98
623.00,92.29
622.00,92.45
621.00,92.38
620.00,92.21
619.00,92.10
618.00,92.13
617.00,92.21
616.00,92.24
615.00,92.18
614.00,92.12
613.00,92.11
612.00,92.11
611.00,91.99
610.00,91.63
609.00,91.09
608.00,90.55
607.00,90.15
606.00,89.87
605.00,89.55
604.00,89.08
603.00,88.53
602.00,88.07
601.00,87.78
600.00,87.63
599.00,87.58
598.00,87.64
597.00,87.83
596.00,88.14
595.00,88.47
594.00,88.76
593.00,89.05
592.00,89.53
591.00,90.21
590.00,90.83
589.00,91.10
588.00,90.95
587.00,90.66
586.00,90.58
585.00,90.87
584.00,91.40
583.00,91.92
582.00,92.25
581.00,92.34
580.00,92.24
579.00,92.00
578.00,91.76
577.00,91.77
576.00,92.14
575.00,92.59
574.00,92.62
573.00,92.16
572.00,91.63
571.00,91.45
570.00,91.54
569.00,91.50
568.00,91.24
567.00,91.03
566.00,91.22
565.00,91.78
564.00,92.44
563.00,92.82
562.00,92.62
561.00,91.87
560.00,90.95
559.00,90.32
558.00,90.08
557.00,89.89
556.00,89.44
555.00,88.87
554.00,88.40
553.00,88.10
552.00,87.81
551.00,87.65
550.00,87.71
