Created as New Dataset,141 Du Pont
cm-1,%T
4000.00,101.29
3999.00,101.29
3998.00,101.30
3997.00,101.30
3996.00,101.31
3995.00,101.31
3994.00,101.31
3993.00,101.31
3992.00,101.31
3991.00,101.32
3990.00,101.32
3989.00,101.31
3988.00,101.31
3987.00,101.30
3986.00,101.29
3985.00,101.28
3984.00,101.26
3983.00,101.25
3982.00,101.24
3981.00,101.24
3980.00,101.24
3979.00,101.25
3978.00,101.25
3977.00,101.25
3976.00,101.25
3975.00,101.26
3974.00,101.27
3973.00,101.29
3972.00,101.32
3971.00,101.34
3970.00,101.35
3969.00,101.34
3968.00,101.34
3967.00,101.33
3966.00,101.33
3965.00,101.32
3964.00,101.32
3963.00,101.31
3962.00,101.30
3961.00,101.28
3960.00,101.26
3959.00,101.25
3958.00,101.24
3957.00,101.25
3956.00,101.27
3955.00,101.30
3954.00,101.33
3953.00,101.35
3952.00,101.35
3951.00,101.34
3950.00,101.33
3949.00,101.31
3948.00,101.29
3947.00,101.28
3946.00,101.27
3945.00,101.27
3944.00,101.27
3943.00,101.29
3942.00,101.31
3941.00,101.32
3940.00,101.32
3939.00,101.30
3938.00,101.28
3937.00,101.26
3936.00,101.26
3935.00,101.27
3934.00,101.28
3933.00,101.29
3932.00,101.28
3931.00,101.27
3930.00,101.26
3929.00,101.26
3928.00,101.26
3927.00,101.27
3926.00,101.29
3925.00,101.31
3924.00,101.32
3923.00,101.33
3922.00,101.32
3921.00,101.31
3920.00,101.28
3919.00,101.26
3918.00,101.24
3917.00,101.23
3916.00,101.23
3915.00,101.24
3914.00,101.23
3913.00,101.22
3912.00,101.21
3911.00,101.21
3910.00,101.22
3909.00,101.23
3908.00,101.24
3907.00,101.25
3906.00,101.27
3905.00,101.29
3904.00,101.31
3903.00,101.31
3902.00,101.30
3901.00,101.29
3900.00,101.28
3899.00,101.27
3898.00,101.25
3897.00,101.24
3896.00,101.24
3895.00,101.25
3894.00,101.27
3893.00,101.30
3892.00,101.30
3891.00,101.30
3890.00,101.29
3889.00,101.30
3888.00,101.30
3887.00,101.29
3886.00,101.27
3885.00,101.27
3884.00,101.28
3883.00,101.28
3882.00,101.27
3881.00,101.26
3880.00,101.27
3879.00,101.29
3878.00,101.30
3877.00,101.30
3876.00,101.30
3875.00,101.30
3874.00,101.31
3873.00,101.32
3872.00,101.31
3871.00,101.28
3870.00,101.24
3869.00,101.24
3868.00,101.25
3867.00,101.27
3866.00,101.28
3865.00,101.29
3864.00,101.30
3863.00,101.32
3862.00,101.32
3861.00,101.30
3860.00,101.28
3859.00,101.26
3858.00,101.26
3857.00,101.29
3856.00,101.32
3855.00,101.33
3854.00,101.33
3853.00,101.32
3852.00,101.33
3851.00,101.33
3850.00,101.30
3849.00,101.27
3848.00,101.25
3847.00,101.24
3846.00,101.23
3845.00,101.22
3844.00,101.21
3843.00,101.21
3842.00,101.22
3841.00,101.23
3840.00,101.24
3839.00,101.24
3838.00,101.25
3837.00,101.27
3836.00,101.28
3835.00,101.28
3834.00,101.27
3833.00,101.26
3832.00,101.26
3831.00,101.26
3830.00,101.26
3829.00,101.25
3828.00,101.22
3827.00,101.19
3826.00,101.17
3825.00,101.18
3824.00,101.20
3823.00,101.20
3822.00,101.19
3821.00,101.18
3820.00,101.21
3819.00,101.24
3818.00,101.25
3817.00,101.22
3816.00,101.18
3815.00,101.16
3814.00,101.16
3813.00,101.16
3812.00,101.15
3811.00,101.14
3810.00,101.16
3809.00,101.17
3808.00,101.18
3807.00,101.18
3806.00,101.19
3805.00,101.22
3804.00,101.24
3803.00,101.25
3802.00,101.26
3801.00,101.26
3800.00,101.26
3799.00,101.26
3798.00,101.23
3797.00,101.21
3796.00,101.19
3795.00,101.18
3794.00,101.17
3793.00,101.14
3792.00,101.12
3791.00,101.10
3790.00,101.09
3789.00,101.07
3788.00,101.06
3787.00,101.06
3786.00,101.08
3785.00,101.12
3784.00,101.15
3783.00,101.16
3782.00,101.15
3781.00,101.12
3780.00,101.09
3779.00,101.09
3778.00,101.10
3777.00,101.10
3776.00,101.09
3775.00,101.07
3774.00,101.07
3773.00,101.07
3772.00,101.08
3771.00,101.07
3770.00,101.07
3769.00,101.08
3768.00,101.08
3767.00,101.07
3766.00,101.06
3765.00,101.05
3764.00,101.05
3763.00,101.07
3762.00,101.09
3761.00,101.10
3760.00,101.11
3759.00,101.12
3758.00,101.13
3757.00,101.14
3756.00,101.15
3755.00,101.15
3754.00,101.13
3753.00,101.09
3752.00,101.06
3751.00,101.04
3750.00,101.04
3749.00,101.06
3748.00,101.08
3747.00,101.08
3746.00,101.07
3745.00,101.06
3744.00,101.06
3743.00,101.08
3742.00,101.08
3741.00,101.06
3740.00,101.04
3739.00,101.03
3738.00,101.04
3737.00,101.04
3736.00,101.03
3735.00,101.02
3734.00,101.02
3733.00,101.02
3732.00,101.02
3731.00,101.02
3730.00,101.01
3729.00,100.97
3728.00,100.93
3727.00,100.90
3726.00,100.89
3725.00,100.91
3724.00,100.93
3723.00,100.95
3722.00,100.97
3721.00,100.98
3720.00,100.98
3719.00,100.98
3718.00,100.97
3717.00,100.97
3716.00,100.97
3715.00,100.99
3714.00,101.00
3713.00,101.00
3712.00,100.99
3711.00,100.97
3710.00,100.96
3709.00,100.96
3708.00,100.97
3707.00,100.96
3706.00,100.96
3705.00,100.96
3704.00,100.96
3703.00,100.97
3702.00,100.97
3701.00,100.97
3700.00,100.96
3699.00,100.94
3698.00,100.93
3697.00,100.93
3696.00,100.96
3695.00,100.98
3694.00,101.00
3693.00,101.00
3692.00,100.97
3691.00,100.91
3690.00,100.86
3689.00,100.83
3688.00,100.85
3687.00,100.88
3686.00,100.89
3685.00,100.88
3684.00,100.87
3683.00,100.87
3682.00,100.89
3681.00,100.91
3680.00,100.94
3679.00,100.97
3678.00,100.97
3677.00,100.93
3676.00,100.88
3675.00,100.87
3674.00,100.90
3673.00,100.93
3672.00,100.93
3671.00,100.90
3670.00,100.85
3669.00,100.82
3668.00,100.81
3667.00,100.80
3666.00,100.79
3665.00,100.78
3664.00,100.78
3663.00,100.78
3662.00,100.77
3661.00,100.76
3660.00,100.75
3659.00,100.74
3658.00,100.74
3657.00,100.73
3656.00,100.73
3655.00,100.75
3654.00,100.78
3653.00,100.82
3652.00,100.85
3651.00,100.86
3650.00,100.86
3649.00,100.86
3648.00,100.86
3647.00,100.86
3646.00,100.83
3645.00,100.79
3644.00,100.74
3643.00,100.71
3642.00,100.69
3641.00,100.67
3640.00,100.65
3639.00,100.64
3638.00,100.65
3637.00,100.66
3636.00,100.68
3635.00,100.68
3634.00,100.68
3633.00,100.68
3632.00,100.69
3631.00,100.69
3630.00,100.67
3629.00,100.64
3628.00,100.63
3627.00,100.63
3626.00,100.63
3625.00,100.61
3624.00,100.60
3623.00,100.61
3622.00,100.62
3621.00,100.64
3620.00,100.65
3619.00,100.65
3618.00,100.65
3617.00,100.67
3616.00,100.68
3615.00,100.67
3614.00,100.66
3613.00,100.66
3612.00,100.67
3611.00,100.68
3610.00,100.70
3609.00,100.70
3608.00,100.70
3607.00,100.69
3606.00,100.67
3605.00,100.64
3604.00,100.61
3603.00,100.58
3602.00,100.56
3601.00,100.55
3600.00,100.57
3599.00,100.60
3598.00,100.63
3597.00,100.65
3596.00,100.65
3595.00,100.64
3594.00,100.65
3593.00,100.66
3592.00,100.67
3591.00,100.68
3590.00,100.68
3589.00,100.69
3588.00,100.69
3587.00,100.71
3586.00,100.73
3585.00,100.74
3584.00,100.74
3583.00,100.74
3582.00,100.73
3581.00,100.72
3580.00,100.72
3579.00,100.71
3578.00,100.70
3577.00,100.70
3576.00,100.69
3575.00,100.67
3574.00,100.65
3573.00,100.62
3572.00,100.61
3571.00,100.61
3570.00,100.61
3569.00,100.60
3568.00,100.59
3567.00,100.57
3566.00,100.57
3565.00,100.58
3564.00,100.58
3563.00,100.58
3562.00,100.57
3561.00,100.55
3560.00,100.54
3559.00,100.53
3558.00,100.52
3557.00,100.52
3556.00,100.52
3555.00,100.52
3554.00,100.53
3553.00,100.53
3552.00,100.52
3551.00,100.51
3550.00,100.50
3549.00,100.50
3548.00,100.50
3547.00,100.51
3546.00,100.52
3545.00,100.52
3544.00,100.53
3543.00,100.54
3542.00,100.55
3541.00,100.56
3540.00,100.56
3539.00,100.55
3538.00,100.54
3537.00,100.53
3536.00,100.52
3535.00,100.52
3534.00,100.52
3533.00,100.53
3532.00,100.53
3531.00,100.53
3530.00,100.52
3529.00,100.49
3528.00,100.46
3527.00,100.46
3526.00,100.49
3525.00,100.54
3524.00,100.58
3523.00,100.60
3522.00,100.60
3521.00,100.59
3520.00,100.56
3519.00,100.54
3518.00,100.54
3517.00,100.56
3516.00,100.59
3515.00,100.61
3514.00,100.63
3513.00,100.65
3512.00,100.66
3511.00,100.67
3510.00,100.65
3509.00,100.62
3508.00,100.59
3507.00,100.57
3506.00,100.57
3505.00,100.58
3504.00,100.60
3503.00,100.62
3502.00,100.63
3501.00,100.63
3500.00,100.61
3499.00,100.59
3498.00,100.57
3497.00,100.57
3496.00,100.57
3495.00,100.58
3494.00,100.59
3493.00,100.58
3492.00,100.56
3491.00,100.55
3490.00,100.56
3489.00,100.58
3488.00,100.62
3487.00,100.64
3486.00,100.64
3485.00,100.64
3484.00,100.64
3483.00,100.65
3482.00,100.64
3481.00,100.62
3480.00,100.60
3479.00,100.59
3478.00,100.59
3477.00,100.60
3476.00,100.60
3475.00,100.60
3474.00,100.59
3473.00,100.58
3472.00,100.58
3471.00,100.58
3470.00,100.58
3469.00,100.57
3468.00,100.55
3467.00,100.53
3466.00,100.51
3465.00,100.49
3464.00,100.46
3463.00,100.43
3462.00,100.41
3461.00,100.42
3460.00,100.44
3459.00,100.45
3458.00,100.45
3457.00,100.43
3456.00,100.41
3455.00,100.42
3454.00,100.43
3453.00,100.44
3452.00,100.43
3451.00,100.40
3450.00,100.36
3449.00,100.33
3448.00,100.31
3447.00,100.30
3446.00,100.31
3445.00,100.33
3444.00,100.35
3443.00,100.34
3442.00,100.33
3441.00,100.32
3440.00,100.31
3439.00,100.30
3438.00,100.29
3437.00,100.28
3436.00,100.24
3435.00,100.20
3434.00,100.16
3433.00,100.13
3432.00,100.13
3431.00,100.14
3430.00,100.17
3429.00,100.19
3428.00,100.20
3427.00,100.20
3426.00,100.20
3425.00,100.21
3424.00,100.24
3423.00,100.26
3422.00,100.28
3421.00,100.29
3420.00,100.30
3419.00,100.31
3418.00,100.32
3417.00,100.35
3416.00,100.37
3415.00,100.40
3414.00,100.43
3413.00,100.45
3412.00,100.48
3411.00,100.50
3410.00,100.51
3409.00,100.51
3408.00,100.50
3407.00,100.49
3406.00,100.48
3405.00,100.47
3404.00,100.48
3403.00,100.49
3402.00,100.51
3401.00,100.53
3400.00,100.56
3399.00,100.57
3398.00,100.58
3397.00,100.57
3396.00,100.57
3395.00,100.57
3394.00,100.59
3393.00,100.61
3392.00,100.62
3391.00,100.62
3390.00,100.60
3389.00,100.58
3388.00,100.57
3387.00,100.57
3386.00,100.58
3385.00,100.59
3384.00,100.60
3383.00,100.61
3382.00,100.61
3381.00,100.61
3380.00,100.60
3379.00,100.59
3378.00,100.58
3377.00,100.58
3376.00,100.59
3375.00,100.60
3374.00,100.61
3373.00,100.62
3372.00,100.61
3371.00,100.59
3370.00,100.57
3369.00,100.55
3368.00,100.54
3367.00,100.54
3366.00,100.54
3365.00,100.55
3364.00,100.55
3363.00,100.57
3362.00,100.59
3361.00,100.61
3360.00,100.62
3359.00,100.61
3358.00,100.59
3357.00,100.57
3356.00,100.54
3355.00,100.52
3354.00,100.51
3353.00,100.51
3352.00,100.52
3351.00,100.54
3350.00,100.55
3349.00,100.56
3348.00,100.56
3347.00,100.55
3346.00,100.53
3345.00,100.51
3344.00,100.51
3343.00,100.51
3342.00,100.52
3341.00,100.53
3340.00,100.54
3339.00,100.54
3338.00,100.53
3337.00,100.53
3336.00,100.53
3335.00,100.53
3334.00,100.53
3333.00,100.53
3332.00,100.52
3331.00,100.51
3330.00,100.51
3329.00,100.53
3328.00,100.56
3327.00,100.58
3326.00,100.58
3325.00,100.57
3324.00,100.54
3323.00,100.51
3322.00,100.49
3321.00,100.48
3320.00,100.49
3319.00,100.50
3318.00,100.54
3317.00,100.59
3316.00,100.64
3315.00,100.66
3314.00,100.67
3313.00,100.65
3312.00,100.62
3311.00,100.61
3310.00,100.59
3309.00,100.58
3308.00,100.57
3307.00,100.56
3306.00,100.56
3305.00,100.55
3304.00,100.55
3303.00,100.55
3302.00,100.55
3301.00,100.55
3300.00,100.54
3299.00,100.52
3298.00,100.52
3297.00,100.52
3296.00,100.52
3295.00,100.53
3294.00,100.54
3293.00,100.54
3292.00,100.54
3291.00,100.54
3290.00,100.55
3289.00,100.56
3288.00,100.57
3287.00,100.58
3286.00,100.58
3285.00,100.58
3284.00,100.57
3283.00,100.56
3282.00,100.55
3281.00,100.54
3280.00,100.53
3279.00,100.52
3278.00,100.52
3277.00,100.52
3276.00,100.52
3275.00,100.52
3274.00,100.52
3273.00,100.52
3272.00,100.53
3271.00,100.53
3270.00,100.53
3269.00,100.53
3268.00,100.53
3267.00,100.53
3266.00,100.53
3265.00,100.52
3264.00,100.50
3263.00,100.49
3262.00,100.49
3261.00,100.50
3260.00,100.51
3259.00,100.51
3258.00,100.52
3257.00,100.52
3256.00,100.53
3255.00,100.53
3254.00,100.53
3253.00,100.53
3252.00,100.52
3251.00,100.52
3250.00,100.52
3249.00,100.51
3248.00,100.51
3247.00,100.51
3246.00,100.51
3245.00,100.52
3244.00,100.51
3243.00,100.50
3242.00,100.49
3241.00,100.49
3240.00,100.50
3239.00,100.52
3238.00,100.54
3237.00,100.55
3236.00,100.55
3235.00,100.54
3234.00,100.53
3233.00,100.52
3232.00,100.51
3231.00,100.50
3230.00,100.49
3229.00,100.48
3228.00,100.48
3227.00,100.48
3226.00,100.49
3225.00,100.50
3224.00,100.52
3223.00,100.53
3222.00,100.53
3221.00,100.51
3220.00,100.50
3219.00,100.49
3218.00,100.49
3217.00,100.49
3216.00,100.50
3215.00,100.49
3214.00,100.48
3213.00,100.48
3212.00,100.48
3211.00,100.49
3210.00,100.49
3209.00,100.48
3208.00,100.47
3207.00,100.47
3206.00,100.48
3205.00,100.49
3204.00,100.49
3203.00,100.47
3202.00,100.45
3201.00,100.44
3200.00,100.45
3199.00,100.47
3198.00,100.51
3197.00,100.54
3196.00,100.55
3195.00,100.55
3194.00,100.52
3193.00,100.49
3192.00,100.46
3191.00,100.45
3190.00,100.46
3189.00,100.47
3188.00,100.47
3187.00,100.47
3186.00,100.46
3185.00,100.45
3184.00,100.45
3183.00,100.45
3182.00,100.45
3181.00,100.47
3180.00,100.48
3179.00,100.49
3178.00,100.48
3177.00,100.47
3176.00,100.45
3175.00,100.45
3174.00,100.46
3173.00,100.46
3172.00,100.44
3171.00,100.42
3170.00,100.40
3169.00,100.40
3168.00,100.42
3167.00,100.45
3166.00,100.46
3165.00,100.47
3164.00,100.46
3163.00,100.45
3162.00,100.44
3161.00,100.43
3160.00,100.44
3159.00,100.45
3158.00,100.45
3157.00,100.45
3156.00,100.44
3155.00,100.43
3154.00,100.43
3153.00,100.43
3152.00,100.43
3151.00,100.42
3150.00,100.42
3149.00,100.43
3148.00,100.44
3147.00,100.45
3146.00,100.46
3145.00,100.46
3144.00,100.45
3143.00,100.44
3142.00,100.43
3141.00,100.43
3140.00,100.44
3139.00,100.44
3138.00,100.42
3137.00,100.39
3136.00,100.36
3135.00,100.34
3134.00,100.32
3133.00,100.32
3132.00,100.31
3131.00,100.30
3130.00,100.30
3129.00,100.29
3128.00,100.27
3127.00,100.26
3126.00,100.25
3125.00,100.25
3124.00,100.27
3123.00,100.28
3122.00,100.30
3121.00,100.31
3120.00,100.32
3119.00,100.32
3118.00,100.31
3117.00,100.30
3116.00,100.28
3115.00,100.28
3114.00,100.27
3113.00,100.26
3112.00,100.25
3111.00,100.24
3110.00,100.23
3109.00,100.21
3108.00,100.18
3107.00,100.15
3106.00,100.13
3105.00,100.13
3104.00,100.14
3103.00,100.13
3102.00,100.13
3101.00,100.13
3100.00,100.14
3099.00,100.16
3098.00,100.18
3097.00,100.20
3096.00,100.21
3095.00,100.20
3094.00,100.19
3093.00,100.18
3092.00,100.19
3091.00,100.20
3090.00,100.21
3089.00,100.20
3088.00,100.17
3087.00,100.14
3086.00,100.11
3085.00,100.10
3084.00,100.10
3083.00,100.10
3082.00,100.09
3081.00,100.07
3080.00,100.06
3079.00,100.06
3078.00,100.07
3077.00,100.08
3076.00,100.08
3075.00,100.08
3074.00,100.07
3073.00,100.05
3072.00,100.03
3071.00,100.03
3070.00,100.03
3069.00,100.04
3068.00,100.05
3067.00,100.06
3066.00,100.07
3065.00,100.08
3064.00,100.08
3063.00,100.07
3062.00,100.05
3061.00,100.03
3060.00,100.01
3059.00,99.99
3058.00,99.98
3057.00,99.98
3056.00,99.98
3055.00,99.98
3054.00,99.99
3053.00,100.00
3052.00,100.02
3051.00,100.04
3050.00,100.07
3049.00,100.10
3048.00,100.13
3047.00,100.16
3046.00,100.20
3045.00,100.22
3044.00,100.24
3043.00,100.25
3042.00,100.26
3041.00,100.28
3040.00,100.28
3039.00,100.29
3038.00,100.28
3037.00,100.27
3036.00,100.26
3035.00,100.27
3034.00,100.28
3033.00,100.28
3032.00,100.29
3031.00,100.29
3030.00,100.28
3029.00,100.26
3028.00,100.23
3027.00,100.19
3026.00,100.16
3025.00,100.13
3024.00,100.11
3023.00,100.09
3022.00,100.07
3021.00,100.03
3020.00,99.99
3019.00,99.95
3018.00,99.91
3017.00,99.88
3016.00,99.87
3015.00,99.86
3014.00,99.86
3013.00,99.85
3012.00,99.82
3011.00,99.78
3010.00,99.74
3009.00,99.71
3008.00,99.70
3007.00,99.69
3006.00,99.68
3005.00,99.67
3004.00,99.65
3003.00,99.64
3002.00,99.63
3001.00,99.62
3000.00,99.62
2999.00,99.61
2998.00,99.61
2997.00,99.61
2996.00,99.61
2995.00,99.60
2994.00,99.58
2993.00,99.56
2992.00,99.53
2991.00,99.49
2990.00,99.46
2989.00,99.43
2988.00,99.40
2987.00,99.37
2986.00,99.34
2985.00,99.28
2984.00,99.22
2983.00,99.16
2982.00,99.11
2981.00,99.06
2980.00,99.01
2979.00,98.93
2978.00,98.85
2977.00,98.77
2976.00,98.70
2975.00,98.65
2974.00,98.60
2973.00,98.55
2972.00,98.51
2971.00,98.47
2970.00,98.44
2969.00,98.43
2968.00,98.41
2967.00,98.40
2966.00,98.39
2965.00,98.40
2964.00,98.42
2963.00,98.45
2962.00,98.49
2961.00,98.53
2960.00,98.57
2959.00,98.62
2958.00,98.65
2957.00,98.69
2956.00,98.72
2955.00,98.76
2954.00,98.80
2953.00,98.85
2952.00,98.90
2951.00,98.95
2950.00,98.99
2949.00,99.04
2948.00,99.08
2947.00,99.12
2946.00,99.15
2945.00,99.19
2944.00,99.23
2943.00,99.27
2942.00,99.32
2941.00,99.36
2940.00,99.39
2939.00,99.41
2938.00,99.43
2937.00,99.45
2936.00,99.47
2935.00,99.47
2934.00,99.47
2933.00,99.47
2932.00,99.47
2931.00,99.47
2930.00,99.46
2929.00,99.45
2928.00,99.43
2927.00,99.42
2926.00,99.41
2925.00,99.40
2924.00,99.41
2923.00,99.41
2922.00,99.41
2921.00,99.39
2920.00,99.37
2919.00,99.34
2918.00,99.31
2917.00,99.29
2916.00,99.27
2915.00,99.25
2914.00,99.24
2913.00,99.23
2912.00,99.20
2911.00,99.15
2910.00,99.10
2909.00,99.07
2908.00,99.06
2907.00,99.07
2906.00,99.11
2905.00,99.16
2904.00,99.22
2903.00,99.27
2902.00,99.31
2901.00,99.35
2900.00,99.37
2899.00,99.40
2898.00,99.42
2897.00,99.44
2896.00,99.45
2895.00,99.47
2894.00,99.48
2893.00,99.48
2892.00,99.47
2891.00,99.47
2890.00,99.48
2889.00,99.50
2888.00,99.51
2887.00,99.53
2886.00,99.53
2885.00,99.52
2884.00,99.50
2883.00,99.50
2882.00,99.52
2881.00,99.55
2880.00,99.60
2879.00,99.64
2878.00,99.65
2877.00,99.64
2876.00,99.63
2875.00,99.63
2874.00,99.63
2873.00,99.63
2872.00,99.64
2871.00,99.65
2870.00,99.68
2869.00,99.70
2868.00,99.70
2867.00,99.70
2866.00,99.69
2865.00,99.68
2864.00,99.67
2863.00,99.66
2862.00,99.65
2861.00,99.64
2860.00,99.64
2859.00,99.65
2858.00,99.67
2857.00,99.67
2856.00,99.67
2855.00,99.67
2854.00,99.67
2853.00,99.68
2852.00,99.70
2851.00,99.73
2850.00,99.77
2849.00,99.81
2848.00,99.84
2847.00,99.86
2846.00,99.87
2845.00,99.87
2844.00,99.89
2843.00,99.92
2842.00,99.94
2841.00,99.97
2840.00,99.99
2839.00,100.02
2838.00,100.04
2837.00,100.05
2836.00,100.05
2835.00,100.05
2834.00,100.06
2833.00,100.07
2832.00,100.08
2831.00,100.09
2830.00,100.10
2829.00,100.11
2828.00,100.11
2827.00,100.12
2826.00,100.11
2825.00,100.12
2824.00,100.12
2823.00,100.13
2822.00,100.14
2821.00,100.15
2820.00,100.16
2819.00,100.16
2818.00,100.16
2817.00,100.16
2816.00,100.16
2815.00,100.16
2814.00,100.16
2813.00,100.16
2812.00,100.16
2811.00,100.16
2810.00,100.16
2809.00,100.16
2808.00,100.15
2807.00,100.14
2806.00,100.14
2805.00,100.15
2804.00,100.16
2803.00,100.17
2802.00,100.17
2801.00,100.16
2800.00,100.16
2799.00,100.15
2798.00,100.15
2797.00,100.15
2796.00,100.15
2795.00,100.15
2794.00,100.15
2793.00,100.15
2792.00,100.14
2791.00,100.14
2790.00,100.16
2789.00,100.18
2788.00,100.20
2787.00,100.21
2786.00,100.21
2785.00,100.20
2784.00,100.19
2783.00,100.19
2782.00,100.19
2781.00,100.19
2780.00,100.19
2779.00,100.20
2778.00,100.22
2777.00,100.24
2776.00,100.26
2775.00,100.28
2774.00,100.28
2773.00,100.28
2772.00,100.29
2771.00,100.29
2770.00,100.30
2769.00,100.30
2768.00,100.29
2767.00,100.29
2766.00,100.28
2765.00,100.28
2764.00,100.28
2763.00,100.27
2762.00,100.27
2761.00,100.27
2760.00,100.28
2759.00,100.28
2758.00,100.28
2757.00,100.27
2756.00,100.26
2755.00,100.25
2754.00,100.24
2753.00,100.24
2752.00,100.24
2751.00,100.23
2750.00,100.23
2749.00,100.24
2748.00,100.25
2747.00,100.25
2746.00,100.24
2745.00,100.23
2744.00,100.22
2743.00,100.22
2742.00,100.22
2741.00,100.22
2740.00,100.22
2739.00,100.24
2738.00,100.26
2737.00,100.27
2736.00,100.28
2735.00,100.28
2734.00,100.27
2733.00,100.26
2732.00,100.26
2731.00,100.26
2730.00,100.26
2729.00,100.27
2728.00,100.27
2727.00,100.27
2726.00,100.26
2725.00,100.25
2724.00,100.26
2723.00,100.27
2722.00,100.28
2721.00,100.29
2720.00,100.31
2719.00,100.31
2718.00,100.32
2717.00,100.31
2716.00,100.31
2715.00,100.30
2714.00,100.29
2713.00,100.29
2712.00,100.28
2711.00,100.28
2710.00,100.28
2709.00,100.29
2708.00,100.30
2707.00,100.32
2706.00,100.33
2705.00,100.33
2704.00,100.33
2703.00,100.32
2702.00,100.32
2701.00,100.32
2700.00,100.32
2699.00,100.31
2698.00,100.31
2697.00,100.31
2696.00,100.30
2695.00,100.30
2694.00,100.31
2693.00,100.31
2692.00,100.31
2691.00,100.31
2690.00,100.31
2689.00,100.31
2688.00,100.32
2687.00,100.32
2686.00,100.31
2685.00,100.29
2684.00,100.28
2683.00,100.27
2682.00,100.27
2681.00,100.28
2680.00,100.28
2679.00,100.29
2678.00,100.29
2677.00,100.29
2676.00,100.29
2675.00,100.30
2674.00,100.31
2673.00,100.32
2672.00,100.33
2671.00,100.33
2670.00,100.33
2669.00,100.32
2668.00,100.32
2667.00,100.32
2666.00,100.32
2665.00,100.31
2664.00,100.29
2663.00,100.28
2662.00,100.28
2661.00,100.28
2660.00,100.28
2659.00,100.28
2658.00,100.28
2657.00,100.28
2656.00,100.27
2655.00,100.25
2654.00,100.23
2653.00,100.22
2652.00,100.21
2651.00,100.21
2650.00,100.21
2649.00,100.20
2648.00,100.18
2647.00,100.16
2646.00,100.14
2645.00,100.12
2644.00,100.09
2643.00,100.07
2642.00,100.06
2641.00,100.07
2640.00,100.08
2639.00,100.08
2638.00,100.06
2637.00,100.04
2636.00,100.02
2635.00,100.01
2634.00,100.01
2633.00,100.01
2632.00,100.01
2631.00,100.00
2630.00,99.99
2629.00,99.98
2628.00,99.98
2627.00,99.98
2626.00,99.97
2625.00,99.96
2624.00,99.94
2623.00,99.93
2622.00,99.93
2621.00,99.95
2620.00,99.96
2619.00,99.96
2618.00,99.96
2617.00,99.95
2616.00,99.93
2615.00,99.92
2614.00,99.92
2613.00,99.93
2612.00,99.94
2611.00,99.95
2610.00,99.95
2609.00,99.94
2608.00,99.92
2607.00,99.89
2606.00,99.86
2605.00,99.83
2604.00,99.82
2603.00,99.82
2602.00,99.82
2601.00,99.83
2600.00,99.83
2599.00,99.83
2598.00,99.82
2597.00,99.79
2596.00,99.76
2595.00,99.74
2594.00,99.74
2593.00,99.75
2592.00,99.76
2591.00,99.77
2590.00,99.76
2589.00,99.75
2588.00,99.74
2587.00,99.75
2586.00,99.75
2585.00,99.74
2584.00,99.73
2583.00,99.72
2582.00,99.71
2581.00,99.70
2580.00,99.70
2579.00,99.70
2578.00,99.70
2577.00,99.68
2576.00,99.66
2575.00,99.64
2574.00,99.64
2573.00,99.64
2572.00,99.64
2571.00,99.65
2570.00,99.65
2569.00,99.65
2568.00,99.66
2567.00,99.68
2566.00,99.70
2565.00,99.71
2564.00,99.72
2563.00,99.72
2562.00,99.71
2561.00,99.70
2560.00,99.67
2559.00,99.64
2558.00,99.62
2557.00,99.63
2556.00,99.65
2555.00,99.67
2554.00,99.67
2553.00,99.65
2552.00,99.62
2551.00,99.60
2550.00,99.59
2549.00,99.60
2548.00,99.62
2547.00,99.65
2546.00,99.67
2545.00,99.67
2544.00,99.66
2543.00,99.66
2542.00,99.66
2541.00,99.67
2540.00,99.67
2539.00,99.66
2538.00,99.64
2537.00,99.61
2536.00,99.57
2535.00,99.55
2534.00,99.56
2533.00,99.59
2532.00,99.62
2531.00,99.64
2530.00,99.63
2529.00,99.62
2528.00,99.61
2527.00,99.61
2526.00,99.62
2525.00,99.63
2524.00,99.63
2523.00,99.63
2522.00,99.64
2521.00,99.64
2520.00,99.63
2519.00,99.61
2518.00,99.60
2517.00,99.59
2516.00,99.60
2515.00,99.61
2514.00,99.64
2513.00,99.66
2512.00,99.68
2511.00,99.69
2510.00,99.68
2509.00,99.68
2508.00,99.67
2507.00,99.67
2506.00,99.67
2505.00,99.67
2504.00,99.67
2503.00,99.67
2502.00,99.67
2501.00,99.68
2500.00,99.68
2499.00,99.68
2498.00,99.69
2497.00,99.71
2496.00,99.73
2495.00,99.74
2494.00,99.74
2493.00,99.72
2492.00,99.70
2491.00,99.69
2490.00,99.68
2489.00,99.69
2488.00,99.70
2487.00,99.72
2486.00,99.74
2485.00,99.75
2484.00,99.75
2483.00,99.75
2482.00,99.74
2481.00,99.74
2480.00,99.74
2479.00,99.74
2478.00,99.74
2477.00,99.73
2476.00,99.71
2475.00,99.71
2474.00,99.71
2473.00,99.72
2472.00,99.72
2471.00,99.72
2470.00,99.72
2469.00,99.71
2468.00,99.72
2467.00,99.73
2466.00,99.74
2465.00,99.76
2464.00,99.76
2463.00,99.76
2462.00,99.75
2461.00,99.74
2460.00,99.73
2459.00,99.73
2458.00,99.74
2457.00,99.74
2456.00,99.74
2455.00,99.73
2454.00,99.72
2453.00,99.70
2452.00,99.68
2451.00,99.67
2450.00,99.66
2449.00,99.66
2448.00,99.67
2447.00,99.69
2446.00,99.72
2445.00,99.73
2444.00,99.71
2443.00,99.68
2442.00,99.66
2441.00,99.66
2440.00,99.70
2439.00,99.75
2438.00,99.77
2437.00,99.78
2436.00,99.77
2435.00,99.75
2434.00,99.72
2433.00,99.69
2432.00,99.67
2431.00,99.67
2430.00,99.68
2429.00,99.70
2428.00,99.72
2427.00,99.72
2426.00,99.72
2425.00,99.70
2424.00,99.68
2423.00,99.66
2422.00,99.64
2421.00,99.62
2420.00,99.62
2419.00,99.62
2418.00,99.63
2417.00,99.64
2416.00,99.65
2415.00,99.66
2414.00,99.68
2413.00,99.69
2412.00,99.70
2411.00,99.70
2410.00,99.70
2409.00,99.69
2408.00,99.68
2407.00,99.67
2406.00,99.66
2405.00,99.67
2404.00,99.67
2403.00,99.67
2402.00,99.67
2401.00,99.68
2400.00,99.69
2399.00,99.71
2398.00,99.73
2397.00,99.74
2396.00,99.75
2395.00,99.75
2394.00,99.74
2393.00,99.74
2392.00,99.73
2391.00,99.72
2390.00,99.71
2389.00,99.69
2388.00,99.69
2387.00,99.70
2386.00,99.73
2385.00,99.76
2384.00,99.78
2383.00,99.78
2382.00,99.75
2381.00,99.73
2380.00,99.74
2379.00,99.77
2378.00,99.82
2377.00,99.87
2376.00,99.89
2375.00,99.91
2374.00,99.92
2373.00,99.94
2372.00,99.98
2371.00,100.01
2370.00,100.02
2369.00,100.00
2368.00,99.95
2367.00,99.89
2366.00,99.85
2365.00,99.84
2364.00,99.85
2363.00,99.87
2362.00,99.88
2361.00,99.89
2360.00,99.92
2359.00,99.97
2358.00,100.02
2357.00,100.05
2356.00,100.04
2355.00,100.00
2354.00,99.96
2353.00,99.94
2352.00,99.93
2351.00,99.93
2350.00,99.94
2349.00,99.95
2348.00,99.96
2347.00,99.97
2346.00,99.97
2345.00,99.96
2344.00,99.96
2343.00,99.98
2342.00,99.99
2341.00,99.98
2340.00,99.95
2339.00,99.92
2338.00,99.94
2337.00,99.99
2336.00,100.05
2335.00,100.10
2334.00,100.10
2333.00,100.06
2332.00,99.99
2331.00,99.93
2330.00,99.88
2329.00,99.87
2328.00,99.89
2327.00,99.90
2326.00,99.87
2325.00,99.82
2324.00,99.77
2323.00,99.73
2322.00,99.73
2321.00,99.72
2320.00,99.72
2319.00,99.71
2318.00,99.72
2317.00,99.73
2316.00,99.74
2315.00,99.74
2314.00,99.75
2313.00,99.75
2312.00,99.74
2311.00,99.73
2310.00,99.71
2309.00,99.69
2308.00,99.67
2307.00,99.65
2306.00,99.62
2305.00,99.60
2304.00,99.58
2303.00,99.57
2302.00,99.55
2301.00,99.53
2300.00,99.49
2299.00,99.45
2298.00,99.43
2297.00,99.42
2296.00,99.42
2295.00,99.41
2294.00,99.41
2293.00,99.39
2292.00,99.37
2291.00,99.35
2290.00,99.33
2289.00,99.30
2288.00,99.26
2287.00,99.22
2286.00,99.17
2285.00,99.14
2284.00,99.12
2283.00,99.12
2282.00,99.13
2281.00,99.12
2280.00,99.11
2279.00,99.09
2278.00,99.08
2277.00,99.09
2276.00,99.12
2275.00,99.14
2274.00,99.14
2273.00,99.11
2272.00,99.08
2271.00,99.06
2270.00,99.07
2269.00,99.07
2268.00,99.05
2267.00,99.01
2266.00,98.97
2265.00,98.96
2264.00,98.98
2263.00,99.01
2262.00,99.03
2261.00,99.02
2260.00,98.99
2259.00,98.96
2258.00,98.95
2257.00,98.95
2256.00,98.96
2255.00,98.96
2254.00,98.95
2253.00,98.94
2252.00,98.93
2251.00,98.92
2250.00,98.91
2249.00,98.89
2248.00,98.87
2247.00,98.86
2246.00,98.85
2245.00,98.85
2244.00,98.85
2243.00,98.85
2242.00,98.85
2241.00,98.87
2240.00,98.90
2239.00,98.92
2238.00,98.92
2237.00,98.90
2236.00,98.86
2235.00,98.82
2234.00,98.78
2233.00,98.76
2232.00,98.77
2231.00,98.78
2230.00,98.77
2229.00,98.75
2228.00,98.72
2227.00,98.70
2226.00,98.68
2225.00,98.66
2224.00,98.65
2223.00,98.66
2222.00,98.70
2221.00,98.73
2220.00,98.72
2219.00,98.68
2218.00,98.61
2217.00,98.53
2216.00,98.46
2215.00,98.42
2214.00,98.42
2213.00,98.47
2212.00,98.55
2211.00,98.63
2210.00,98.69
2209.00,98.70
2208.00,98.68
2207.00,98.63
2206.00,98.59
2205.00,98.57
2204.00,98.58
2203.00,98.58
2202.00,98.57
2201.00,98.54
2200.00,98.52
2199.00,98.51
2198.00,98.53
2197.00,98.56
2196.00,98.57
2195.00,98.54
2194.00,98.48
2193.00,98.41
2192.00,98.37
2191.00,98.39
2190.00,98.44
2189.00,98.48
2188.00,98.49
2187.00,98.45
2186.00,98.38
2185.00,98.30
2184.00,98.25
2183.00,98.22
2182.00,98.20
2181.00,98.19
2180.00,98.18
2179.00,98.18
2178.00,98.18
2177.00,98.20
2176.00,98.23
2175.00,98.25
2174.00,98.26
2173.00,98.27
2172.00,98.29
2171.00,98.31
2170.00,98.30
2169.00,98.24
2168.00,98.17
2167.00,98.11
2166.00,98.07
2165.00,98.00
2164.00,97.90
2163.00,97.77
2162.00,97.65
2161.00,97.62
2160.00,97.73
2159.00,97.93
2158.00,98.16
2157.00,98.32
2156.00,98.41
2155.00,98.47
2154.00,98.52
2153.00,98.56
2152.00,98.57
2151.00,98.56
2150.00,98.56
2149.00,98.58
2148.00,98.61
2147.00,98.63
2146.00,98.64
2145.00,98.63
2144.00,98.64
2143.00,98.65
2142.00,98.66
2141.00,98.68
2140.00,98.72
2139.00,98.78
2138.00,98.83
2137.00,98.86
2136.00,98.90
2135.00,98.94
2134.00,98.97
2133.00,98.98
2132.00,98.98
2131.00,98.98
2130.00,99.01
2129.00,99.05
2128.00,99.08
2127.00,99.07
2126.00,99.04
2125.00,99.00
2124.00,98.97
2123.00,98.96
2122.00,98.98
2121.00,99.00
2120.00,99.00
2119.00,98.99
2118.00,98.97
2117.00,98.96
2116.00,98.95
2115.00,98.93
2114.00,98.90
2113.00,98.87
2112.00,98.85
2111.00,98.86
2110.00,98.88
2109.00,98.90
2108.00,98.91
2107.00,98.91
2106.00,98.89
2105.00,98.86
2104.00,98.84
2103.00,98.82
2102.00,98.81
2101.00,98.79
2100.00,98.78
2099.00,98.78
2098.00,98.81
2097.00,98.84
2096.00,98.87
2095.00,98.89
2094.00,98.91
2093.00,98.92
2092.00,98.93
2091.00,98.92
2090.00,98.90
2089.00,98.87
2088.00,98.85
2087.00,98.84
2086.00,98.86
2085.00,98.87
2084.00,98.88
2083.00,98.88
2082.00,98.89
2081.00,98.90
2080.00,98.90
2079.00,98.90
2078.00,98.88
2077.00,98.86
2076.00,98.84
2075.00,98.83
2074.00,98.82
2073.00,98.81
2072.00,98.80
2071.00,98.80
2070.00,98.80
2069.00,98.80
2068.00,98.80
2067.00,98.80
2066.00,98.82
2065.00,98.84
2064.00,98.84
2063.00,98.83
2062.00,98.79
2061.00,98.74
2060.00,98.74
2059.00,98.80
2058.00,98.87
2057.00,98.89
2056.00,98.85
2055.00,98.81
2054.00,98.77
2053.00,98.73
2052.00,98.66
2051.00,98.58
2050.00,98.52
2049.00,98.51
2048.00,98.54
2047.00,98.56
2046.00,98.55
2045.00,98.51
2044.00,98.47
2043.00,98.47
2042.00,98.50
2041.00,98.51
2040.00,98.49
2039.00,98.44
2038.00,98.39
2037.00,98.39
2036.00,98.42
2035.00,98.47
2034.00,98.49
2033.00,98.47
2032.00,98.42
2031.00,98.41
2030.00,98.45
2029.00,98.50
2028.00,98.50
2027.00,98.45
2026.00,98.38
2025.00,98.33
2024.00,98.32
2023.00,98.36
2022.00,98.41
2021.00,98.44
2020.00,98.44
2019.00,98.43
2018.00,98.42
2017.00,98.38
2016.00,98.34
2015.00,98.32
2014.00,98.32
2013.00,98.32
2012.00,98.31
2011.00,98.32
2010.00,98.34
2009.00,98.39
2008.00,98.44
2007.00,98.51
2006.00,98.58
2005.00,98.63
2004.00,98.61
2003.00,98.55
2002.00,98.52
2001.00,98.52
2000.00,98.56
1999.00,98.60
1998.00,98.61
1997.00,98.58
1996.00,98.55
1995.00,98.53
1994.00,98.52
1993.00,98.53
1992.00,98.55
1991.00,98.58
1990.00,98.61
1989.00,98.62
1988.00,98.62
1987.00,98.60
1986.00,98.58
1985.00,98.53
1984.00,98.46
1983.00,98.38
1982.00,98.30
1981.00,98.23
1980.00,98.18
1979.00,98.19
1978.00,98.24
1977.00,98.29
1976.00,98.30
1975.00,98.28
1974.00,98.28
1973.00,98.29
1972.00,98.28
1971.00,98.24
1970.00,98.21
1969.00,98.20
1968.00,98.20
1967.00,98.20
1966.00,98.19
1965.00,98.17
1964.00,98.15
1963.00,98.12
1962.00,98.10
1961.00,98.13
1960.00,98.21
1959.00,98.31
1958.00,98.39
1957.00,98.43
1956.00,98.45
1955.00,98.45
1954.00,98.45
1953.00,98.45
1952.00,98.47
1951.00,98.52
1950.00,98.56
1949.00,98.60
1948.00,98.65
1947.00,98.70
1946.00,98.76
1945.00,98.81
1944.00,98.84
1943.00,98.84
1942.00,98.83
1941.00,98.82
1940.00,98.81
1939.00,98.84
1938.00,98.87
1937.00,98.90
1936.00,98.91
1935.00,98.92
1934.00,98.95
1933.00,98.99
1932.00,99.04
1931.00,99.07
1930.00,99.10
1929.00,99.14
1928.00,99.19
1927.00,99.24
1926.00,99.26
1925.00,99.27
1924.00,99.25
1923.00,99.26
1922.00,99.28
1921.00,99.30
1920.00,99.32
1919.00,99.32
1918.00,99.33
1917.00,99.37
1916.00,99.42
1915.00,99.48
1914.00,99.51
1913.00,99.50
1912.00,99.48
1911.00,99.45
1910.00,99.43
1909.00,99.43
1908.00,99.43
1907.00,99.44
1906.00,99.47
1905.00,99.51
1904.00,99.55
1903.00,99.57
1902.00,99.58
1901.00,99.59
1900.00,99.58
1899.00,99.57
1898.00,99.57
1897.00,99.58
1896.00,99.61
1895.00,99.64
1894.00,99.67
1893.00,99.71
1892.00,99.74
1891.00,99.77
1890.00,99.77
1889.00,99.75
1888.00,99.74
1887.00,99.73
1886.00,99.74
1885.00,99.73
1884.00,99.72
1883.00,99.72
1882.00,99.73
1881.00,99.76
1880.00,99.78
1879.00,99.79
1878.00,99.79
1877.00,99.78
1876.00,99.76
1875.00,99.75
1874.00,99.74
1873.00,99.74
1872.00,99.74
1871.00,99.75
1870.00,99.79
1869.00,99.84
1868.00,99.87
1867.00,99.88
1866.00,99.85
1865.00,99.81
1864.00,99.78
1863.00,99.76
1862.00,99.76
1861.00,99.78
1860.00,99.79
1859.00,99.78
1858.00,99.77
1857.00,99.75
1856.00,99.75
1855.00,99.75
1854.00,99.75
1853.00,99.73
1852.00,99.71
1851.00,99.70
1850.00,99.71
1849.00,99.73
1848.00,99.74
1847.00,99.75
1846.00,99.73
1845.00,99.70
1844.00,99.66
1843.00,99.65
1842.00,99.66
1841.00,99.65
1840.00,99.64
1839.00,99.61
1838.00,99.60
1837.00,99.60
1836.00,99.60
1835.00,99.60
1834.00,99.60
1833.00,99.60
1832.00,99.60
1831.00,99.60
1830.00,99.59
1829.00,99.57
1828.00,99.55
1827.00,99.53
1826.00,99.51
1825.00,99.49
1824.00,99.51
1823.00,99.53
1822.00,99.54
1821.00,99.54
1820.00,99.53
1819.00,99.53
1818.00,99.55
1817.00,99.57
1816.00,99.57
1815.00,99.56
1814.00,99.55
1813.00,99.56
1812.00,99.56
1811.00,99.57
1810.00,99.57
1809.00,99.57
1808.00,99.59
1807.00,99.61
1806.00,99.63
1805.00,99.64
1804.00,99.65
1803.00,99.66
1802.00,99.69
1801.00,99.72
1800.00,99.73
1799.00,99.73
1798.00,99.72
1797.00,99.73
1796.00,99.74
1795.00,99.76
1794.00,99.76
1793.00,99.76
1792.00,99.76
1791.00,99.77
1790.00,99.78
1789.00,99.79
1788.00,99.78
1787.00,99.77
1786.00,99.77
1785.00,99.77
1784.00,99.77
1783.00,99.78
1782.00,99.79
1781.00,99.80
1780.00,99.79
1779.00,99.76
1778.00,99.74
1777.00,99.73
1776.00,99.75
1775.00,99.78
1774.00,99.81
1773.00,99.80
1772.00,99.75
1771.00,99.72
1770.00,99.71
1769.00,99.72
1768.00,99.71
1767.00,99.68
1766.00,99.64
1765.00,99.60
1764.00,99.55
1763.00,99.49
1762.00,99.43
1761.00,99.37
1760.00,99.32
1759.00,99.26
1758.00,99.18
1757.00,99.07
1756.00,98.94
1755.00,98.80
1754.00,98.67
1753.00,98.50
1752.00,98.28
1751.00,97.99
1750.00,97.63
1749.00,97.22
1748.00,96.73
1747.00,96.17
1746.00,95.53
1745.00,94.82
1744.00,94.01
1743.00,93.13
1742.00,92.18
1741.00,91.15
1740.00,89.99
1739.00,88.84
1738.00,87.83
1737.00,86.95
1736.00,85.99
1735.00,84.75
1734.00,83.29
1733.00,82.00
1732.00,80.95
1731.00,79.93
1730.00,78.82
1729.00,77.66
1728.00,76.53
1727.00,75.43
1726.00,74.33
1725.00,73.24
1724.00,72.16
1723.00,71.10
1722.00,70.07
1721.00,69.10
1720.00,68.12
1719.00,66.98
1718.00,65.69
1717.00,64.51
1716.00,63.63
1715.00,62.96
1714.00,62.45
1713.00,62.19
1712.00,62.21
1711.00,62.45
1710.00,62.92
1709.00,63.64
1708.00,64.61
1707.00,65.81
1706.00,67.24
1705.00,68.78
1704.00,70.18
1703.00,71.36
1702.00,72.58
1701.00,74.17
1700.00,75.93
1699.00,77.33
1698.00,78.33
1697.00,79.29
1696.00,80.38
1695.00,81.41
1694.00,82.21
1693.00,82.82
1692.00,83.37
1691.00,83.93
1690.00,84.48
1689.00,84.97
1688.00,85.37
1687.00,85.68
1686.00,85.94
1685.00,86.24
1684.00,86.58
1683.00,86.91
1682.00,87.22
1681.00,87.53
1680.00,87.86
1679.00,88.20
1678.00,88.52
1677.00,88.85
1676.00,89.21
1675.00,89.57
1674.00,89.90
1673.00,90.18
1672.00,90.44
1671.00,90.70
1670.00,90.99
1669.00,91.33
1668.00,91.65
1667.00,91.92
1666.00,92.15
1665.00,92.38
1664.00,92.62
1663.00,92.87
1662.00,93.12
1661.00,93.36
1660.00,93.57
1659.00,93.76
1658.00,93.91
1657.00,94.06
1656.00,94.21
1655.00,94.36
1654.00,94.51
1653.00,94.69
1652.00,94.88
1651.00,95.03
1650.00,95.10
1649.00,95.13
1648.00,95.19
1647.00,95.27
1646.00,95.36
1645.00,95.44
1644.00,95.51
1643.00,95.56
1642.00,95.60
1641.00,95.65
1640.00,95.71
1639.00,95.77
1638.00,95.83
1637.00,95.90
1636.00,95.96
1635.00,96.02
1634.00,96.08
1633.00,96.14
1632.00,96.18
1631.00,96.21
1630.00,96.24
1629.00,96.28
1628.00,96.34
1627.00,96.39
1626.00,96.45
1625.00,96.49
1624.00,96.53
1623.00,96.56
1622.00,96.57
1621.00,96.57
1620.00,96.55
1619.00,96.51
1618.00,96.45
1617.00,96.37
1616.00,96.31
1615.00,96.29
1614.00,96.31
1613.00,96.34
1612.00,96.40
1611.00,96.48
1610.00,96.55
1609.00,96.63
1608.00,96.72
1607.00,96.81
1606.00,96.91
1605.00,97.00
1604.00,97.09
1603.00,97.17
1602.00,97.23
1601.00,97.29
1600.00,97.34
1599.00,97.39
1598.00,97.43
1597.00,97.47
1596.00,97.51
1595.00,97.54
1594.00,97.55
1593.00,97.56
1592.00,97.57
1591.00,97.55
1590.00,97.53
1589.00,97.50
1588.00,97.46
1587.00,97.40
1586.00,97.30
1585.00,97.16
1584.00,96.97
1583.00,96.76
1582.00,96.52
1581.00,96.31
1580.00,96.14
1579.00,96.05
1578.00,96.06
1577.00,96.18
1576.00,96.40
1575.00,96.64
1574.00,96.83
1573.00,96.99
1572.00,97.11
1571.00,97.23
1570.00,97.35
1569.00,97.47
1568.00,97.58
1567.00,97.67
1566.00,97.72
1565.00,97.75
1564.00,97.79
1563.00,97.84
1562.00,97.91
1561.00,97.98
1560.00,98.02
1559.00,98.02
1558.00,98.05
1557.00,98.09
1556.00,98.11
1555.00,98.13
1554.00,98.15
1553.00,98.19
1552.00,98.22
1551.00,98.24
1550.00,98.25
1549.00,98.26
1548.00,98.26
1547.00,98.26
1546.00,98.27
1545.00,98.30
1544.00,98.35
1543.00,98.38
1542.00,98.38
1541.00,98.37
1540.00,98.39
1539.00,98.42
1538.00,98.43
1537.00,98.42
1536.00,98.39
1535.00,98.36
1534.00,98.32
1533.00,98.28
1532.00,98.25
1531.00,98.22
1530.00,98.18
1529.00,98.15
1528.00,98.12
1527.00,98.12
1526.00,98.12
1525.00,98.13
1524.00,98.15
1523.00,98.18
1522.00,98.21
1521.00,98.27
1520.00,98.32
1519.00,98.34
1518.00,98.34
1517.00,98.33
1516.00,98.32
1515.00,98.29
1514.00,98.20
1513.00,98.03
1512.00,97.79
1511.00,97.48
1510.00,97.08
1509.00,96.54
1508.00,95.77
1507.00,94.87
1506.00,94.26
1505.00,94.17
1504.00,94.48
1503.00,94.98
1502.00,95.57
1501.00,96.16
1500.00,96.70
1499.00,97.15
1498.00,97.51
1497.00,97.78
1496.00,97.98
1495.00,98.11
1494.00,98.17
1493.00,98.18
1492.00,98.16
1491.00,98.15
1490.00,98.12
1489.00,98.06
1488.00,97.96
1487.00,97.81
1486.00,97.64
1485.00,97.46
1484.00,97.27
1483.00,97.09
1482.00,96.91
1481.00,96.73
1480.00,96.56
1479.00,96.38
1478.00,96.18
1477.00,95.94
1476.00,95.66
1475.00,95.36
1474.00,95.02
1473.00,94.67
1472.00,94.46
1471.00,94.47
1470.00,94.63
1469.00,94.87
1468.00,95.11
1467.00,95.33
1466.00,95.48
1465.00,95.55
1464.00,95.56
1463.00,95.53
1462.00,95.49
1461.00,95.43
1460.00,95.38
1459.00,95.34
1458.00,95.28
1457.00,95.22
1456.00,95.18
1455.00,95.17
1454.00,95.14
1453.00,95.12
1452.00,95.12
1451.00,95.16
1450.00,95.21
1449.00,95.28
1448.00,95.36
1447.00,95.44
1446.00,95.51
1445.00,95.56
1444.00,95.61
1443.00,95.65
1442.00,95.70
1441.00,95.78
1440.00,95.87
1439.00,95.99
1438.00,96.14
1437.00,96.31
1436.00,96.50
1435.00,96.67
1434.00,96.82
1433.00,96.95
1432.00,97.09
1431.00,97.22
1430.00,97.35
1429.00,97.47
1428.00,97.55
1427.00,97.58
1426.00,97.58
1425.00,97.55
1424.00,97.49
1423.00,97.39
1422.00,97.23
1421.00,97.00
1420.00,96.60
1419.00,96.00
1418.00,95.24
1417.00,94.33
1416.00,93.22
1415.00,91.92
1414.00,90.48
1413.00,88.99
1412.00,87.58
1411.00,86.44
1410.00,85.71
1409.00,85.43
1408.00,85.59
1407.00,86.16
1406.00,87.05
1405.00,88.12
1404.00,89.21
1403.00,90.18
1402.00,91.00
1401.00,91.70
1400.00,92.34
1399.00,92.92
1398.00,93.40
1397.00,93.77
1396.00,94.05
1395.00,94.29
1394.00,94.46
1393.00,94.58
1392.00,94.64
1391.00,94.67
1390.00,94.69
1389.00,94.70
1388.00,94.71
1387.00,94.72
1386.00,94.73
1385.00,94.74
1384.00,94.75
1383.00,94.76
1382.00,94.77
1381.00,94.79
1380.00,94.80
1379.00,94.79
1378.00,94.77
1377.00,94.73
1376.00,94.69
1375.00,94.64
1374.00,94.60
1373.00,94.55
1372.00,94.50
1371.00,94.48
1370.00,94.51
1369.00,94.61
1368.00,94.76
1367.00,94.95
1366.00,95.17
1365.00,95.42
1364.00,95.68
1363.00,95.94
1362.00,96.17
1361.00,96.31
1360.00,96.38
1359.00,96.40
1358.00,96.39
1357.00,96.36
1356.00,96.29
1355.00,96.18
1354.00,96.01
1353.00,95.76
1352.00,95.43
1351.00,95.00
1350.00,94.45
1349.00,93.76
1348.00,92.90
1347.00,91.85
1346.00,90.64
1345.00,89.33
1344.00,88.01
1343.00,86.80
1342.00,85.82
1341.00,85.15
1340.00,84.87
1339.00,85.02
1338.00,85.59
1337.00,86.49
1336.00,87.62
1335.00,88.89
1334.00,90.20
1333.00,91.45
1332.00,92.57
1331.00,93.51
1330.00,94.23
1329.00,94.76
1328.00,95.12
1327.00,95.36
1326.00,95.51
1325.00,95.57
1324.00,95.58
1323.00,95.55
1322.00,95.49
1321.00,95.41
1320.00,95.31
1319.00,95.20
1318.00,95.07
1317.00,94.92
1316.00,94.75
1315.00,94.55
1314.00,94.34
1313.00,94.11
1312.00,93.87
1311.00,93.60
1310.00,93.32
1309.00,93.04
1308.00,92.76
1307.00,92.49
1306.00,92.20
1305.00,91.91
1304.00,91.58
1303.00,91.22
1302.00,90.80
1301.00,90.33
1300.00,89.81
1299.00,89.26
1298.00,88.68
1297.00,88.07
1296.00,87.45
1295.00,86.84
1294.00,86.23
1293.00,85.63
1292.00,85.04
1291.00,84.47
1290.00,83.92
1289.00,83.38
1288.00,82.83
1287.00,82.30
1286.00,81.77
1285.00,81.24
1284.00,80.71
1283.00,80.19
1282.00,79.67
1281.00,79.15
1280.00,78.62
1279.00,78.09
1278.00,77.55
1277.00,77.00
1276.00,76.43
1275.00,75.86
1274.00,75.28
1273.00,74.68
1272.00,74.06
1271.00,73.40
1270.00,72.73
1269.00,72.03
1268.00,71.33
1267.00,70.65
1266.00,69.99
1265.00,69.36
1264.00,68.77
1263.00,68.24
1262.00,67.79
1261.00,67.40
1260.00,67.04
1259.00,66.73
1258.00,66.45
1257.00,66.18
1256.00,65.90
1255.00,65.62
1254.00,65.32
1253.00,64.98
1252.00,64.60
1251.00,64.20
1250.00,63.81
1249.00,63.41
1248.00,63.02
1247.00,62.67
1246.00,62.36
1245.00,62.09
1244.00,61.88
1243.00,61.75
1242.00,61.72
1241.00,61.79
1240.00,61.97
1239.00,62.29
1238.00,62.74
1237.00,63.30
1236.00,63.96
1235.00,64.73
1234.00,65.58
1233.00,66.46
1232.00,67.35
1231.00,68.23
1230.00,69.10
1229.00,69.92
1228.00,70.68
1227.00,71.38
1226.00,72.02
1225.00,72.62
1224.00,73.21
1223.00,73.82
1222.00,74.43
1221.00,75.05
1220.00,75.68
1219.00,76.34
1218.00,77.02
1217.00,77.67
1216.00,78.31
1215.00,78.92
1214.00,79.51
1213.00,80.08
1212.00,80.61
1211.00,81.11
1210.00,81.58
1209.00,82.02
1208.00,82.46
1207.00,82.90
1206.00,83.33
1205.00,83.75
1204.00,84.17
1203.00,84.59
1202.00,85.01
1201.00,85.42
1200.00,85.83
1199.00,86.23
1198.00,86.62
1197.00,86.99
1196.00,87.36
1195.00,87.73
1194.00,88.09
1193.00,88.44
1192.00,88.77
1191.00,89.07
1190.00,89.33
1189.00,89.55
1188.00,89.73
1187.00,89.88
1186.00,90.01
1185.00,90.10
1184.00,90.15
1183.00,90.17
1182.00,90.16
1181.00,90.11
1180.00,90.06
1179.00,90.00
1178.00,89.96
1177.00,89.95
1176.00,89.96
1175.00,90.01
1174.00,90.11
1173.00,90.26
1172.00,90.49
1171.00,90.77
1170.00,91.10
1169.00,91.44
1168.00,91.76
1167.00,92.05
1166.00,92.26
1165.00,92.40
1164.00,92.48
1163.00,92.53
1162.00,92.56
1161.00,92.57
1160.00,92.54
1159.00,92.49
1158.00,92.42
1157.00,92.32
1156.00,92.19
1155.00,92.05
1154.00,91.87
1153.00,91.65
1152.00,91.39
1151.00,91.09
1150.00,90.76
1149.00,90.41
1148.00,90.04
1147.00,89.65
1146.00,89.21
1145.00,88.70
1144.00,88.15
1143.00,87.56
1142.00,86.93
1141.00,86.24
1140.00,85.48
1139.00,84.65
1138.00,83.75
1137.00,82.79
1136.00,81.78
1135.00,80.73
1134.00,79.66
1133.00,78.60
1132.00,77.57
1131.00,76.60
1130.00,75.68
1129.00,74.81
1128.00,74.00
1127.00,73.28
1126.00,72.63
1125.00,72.02
1124.00,71.46
1123.00,70.97
1122.00,70.56
1121.00,70.24
1120.00,69.98
1119.00,69.79
1118.00,69.66
1117.00,69.59
1116.00,69.59
1115.00,69.64
1114.00,69.67
1113.00,69.62
1112.00,69.48
1111.00,69.25
1110.00,68.94
1109.00,68.52
1108.00,68.02
1107.00,67.44
1106.00,66.82
1105.00,66.17
1104.00,65.51
1103.00,64.88
1102.00,64.31
1101.00,63.80
1100.00,63.37
1099.00,63.04
1098.00,62.81
1097.00,62.65
1096.00,62.55
1095.00,62.53
1094.00,62.59
1093.00,62.71
1092.00,62.87
1091.00,63.09
1090.00,63.36
1089.00,63.66
1088.00,63.99
1087.00,64.35
1086.00,64.72
1085.00,65.13
1084.00,65.59
1083.00,66.15
1082.00,66.81
1081.00,67.52
1080.00,68.29
1079.00,69.12
1078.00,69.99
1077.00,70.88
1076.00,71.76
1075.00,72.60
1074.00,73.40
1073.00,74.15
1072.00,74.84
1071.00,75.50
1070.00,76.12
1069.00,76.71
1068.00,77.26
1067.00,77.79
1066.00,78.28
1065.00,78.73
1064.00,79.14
1063.00,79.53
1062.00,79.89
1061.00,80.23
1060.00,80.54
1059.00,80.82
1058.00,81.06
1057.00,81.26
1056.00,81.41
1055.00,81.53
1054.00,81.60
1053.00,81.63
1052.00,81.62
1051.00,81.59
1050.00,81.54
1049.00,81.50
1048.00,81.48
1047.00,81.48
1046.00,81.50
1045.00,81.52
1044.00,81.55
1043.00,81.61
1042.00,81.71
1041.00,81.84
1040.00,82.00
1039.00,82.19
1038.00,82.40
1037.00,82.64
1036.00,82.91
1035.00,83.20
1034.00,83.48
1033.00,83.75
1032.00,83.98
1031.00,84.16
1030.00,84.23
1029.00,84.09
1028.00,83.60
1027.00,82.70
1026.00,81.42
1025.00,79.90
1024.00,78.33
1023.00,76.82
1022.00,75.39
1021.00,74.03
1020.00,72.77
1019.00,71.74
1018.00,71.10
1017.00,70.98
1016.00,71.47
1015.00,72.50
1014.00,73.88
1013.00,75.38
1012.00,76.80
1011.00,78.06
1010.00,79.14
1009.00,80.05
1008.00,80.82
1007.00,81.48
1006.00,82.05
1005.00,82.52
1004.00,82.92
1003.00,83.27
1002.00,83.56
1001.00,83.82
1000.00,84.05
999.00,84.28
998.00,84.49
997.00,84.67
996.00,84.83
995.00,84.96
994.00,85.07
993.00,85.14
992.00,85.18
991.00,85.21
990.00,85.23
989.00,85.25
988.00,85.28
987.00,85.31
986.00,85.35
985.00,85.37
984.00,85.36
983.00,85.32
982.00,85.22
981.00,85.08
980.00,84.89
979.00,84.64
978.00,84.33
977.00,83.96
976.00,83.58
975.00,83.20
974.00,82.85
973.00,82.55
972.00,82.32
971.00,82.20
970.00,82.20
969.00,82.30
968.00,82.48
967.00,82.73
966.00,83.04
965.00,83.37
964.00,83.70
963.00,84.03
962.00,84.34
961.00,84.63
960.00,84.91
959.00,85.19
958.00,85.46
957.00,85.70
956.00,85.91
955.00,86.10
954.00,86.27
953.00,86.44
952.00,86.59
951.00,86.74
950.00,86.88
949.00,87.01
948.00,87.13
947.00,87.25
946.00,87.35
945.00,87.46
944.00,87.57
943.00,87.68
942.00,87.79
941.00,87.88
940.00,87.96
939.00,88.02
938.00,88.08
937.00,88.14
936.00,88.21
935.00,88.30
934.00,88.40
933.00,88.49
932.00,88.57
931.00,88.64
930.00,88.71
929.00,88.77
928.00,88.85
927.00,88.93
926.00,89.01
925.00,89.07
924.00,89.11
923.00,89.15
922.00,89.19
921.00,89.23
920.00,89.28
919.00,89.32
918.00,89.36
917.00,89.40
916.00,89.43
915.00,89.44
914.00,89.40
913.00,89.34
912.00,89.27
911.00,89.20
910.00,89.13
909.00,89.04
908.00,88.92
907.00,88.79
906.00,88.63
905.00,88.47
904.00,88.32
903.00,88.20
902.00,88.10
901.00,88.03
900.00,87.96
899.00,87.90
898.00,87.84
897.00,87.81
896.00,87.84
895.00,87.90
894.00,87.97
893.00,88.02
892.00,88.05
891.00,88.05
890.00,88.04
889.00,88.01
888.00,87.95
887.00,87.83
886.00,87.65
885.00,87.39
884.00,87.03
883.00,86.59
882.00,86.08
881.00,85.48
880.00,84.80
879.00,84.03
878.00,83.15
877.00,82.06
876.00,80.70
875.00,79.05
874.00,77.33
873.00,75.95
872.00,75.35
871.00,75.75
870.00,76.93
869.00,78.48
868.00,80.00
867.00,81.27
866.00,82.24
865.00,82.93
864.00,83.39
863.00,83.70
862.00,83.90
861.00,84.01
860.00,84.04
859.00,84.01
858.00,83.93
857.00,83.81
856.00,83.66
855.00,83.51
854.00,83.34
853.00,83.13
852.00,82.84
851.00,82.49
850.00,82.13
849.00,81.79
848.00,81.56
847.00,81.47
846.00,81.54
845.00,81.73
844.00,82.02
843.00,82.38
842.00,82.78
841.00,83.17
840.00,83.52
839.00,83.85
838.00,84.18
837.00,84.52
836.00,84.86
835.00,85.19
834.00,85.49
833.00,85.75
832.00,85.97
831.00,86.16
830.00,86.36
829.00,86.56
828.00,86.76
827.00,86.93
826.00,87.08
825.00,87.21
824.00,87.35
823.00,87.50
822.00,87.64
821.00,87.75
820.00,87.82
819.00,87.86
818.00,87.89
817.00,87.92
816.00,87.96
815.00,88.01
814.00,88.07
813.00,88.12
812.00,88.15
811.00,88.16
810.00,88.16
809.00,88.16
808.00,88.18
807.00,88.22
806.00,88.26
805.00,88.30
804.00,88.34
803.00,88.39
802.00,88.44
801.00,88.49
800.00,88.48
799.00,88.40
798.00,88.18
797.00,87.81
796.00,87.34
795.00,86.85
794.00,86.46
793.00,86.25
792.00,86.23
791.00,86.40
790.00,86.67
789.00,86.99
788.00,87.32
787.00,87.67
786.00,88.02
785.00,88.35
784.00,88.63
783.00,88.87
782.00,89.08
781.00,89.28
780.00,89.46
779.00,89.62
778.00,89.77
777.00,89.93
776.00,90.09
775.00,90.26
774.00,90.42
773.00,90.55
772.00,90.67
771.00,90.80
770.00,90.96
769.00,91.14
768.00,91.33
767.00,91.49
766.00,91.62
765.00,91.73
764.00,91.84
763.00,91.97
762.00,92.11
761.00,92.25
760.00,92.38
759.00,92.51
758.00,92.65
757.00,92.75
756.00,92.84
755.00,92.94
754.00,93.06
753.00,93.18
752.00,93.30
751.00,93.41
750.00,93.53
749.00,93.64
748.00,93.71
747.00,93.71
746.00,93.64
745.00,93.47
744.00,93.19
743.00,92.74
742.00,92.07
741.00,91.10
740.00,89.79
739.00,88.17
738.00,86.28
737.00,84.16
736.00,81.87
735.00,79.45
734.00,76.98
733.00,74.49
732.00,71.98
731.00,69.47
730.00,66.95
729.00,64.41
728.00,61.87
727.00,59.38
726.00,57.08
725.00,55.13
724.00,53.70
723.00,52.90
722.00,52.74
721.00,53.17
720.00,54.09
719.00,55.38
718.00,56.91
717.00,58.61
716.00,60.36
715.00,62.06
714.00,63.61
713.00,64.99
712.00,66.22
711.00,67.32
710.00,68.31
709.00,69.20
708.00,70.02
707.00,70.78
706.00,71.47
705.00,72.09
704.00,72.65
703.00,73.22
702.00,73.84
701.00,74.54
700.00,75.30
699.00,76.02
698.00,76.67
697.00,77.23
696.00,77.73
695.00,78.19
694.00,78.64
693.00,79.07
692.00,79.46
691.00,79.78
690.00,80.05
689.00,80.29
688.00,80.53
687.00,80.77
686.00,80.97
685.00,81.13
684.00,81.23
683.00,81.30
682.00,81.34
681.00,81.39
680.00,81.48
679.00,81.62
678.00,81.79
677.00,81.98
676.00,82.18
675.00,82.40
674.00,82.61
673.00,82.80
672.00,82.97
671.00,83.11
670.00,83.26
669.00,83.42
668.00,83.60
667.00,83.76
666.00,83.87
665.00,83.94
664.00,84.06
663.00,84.23
662.00,84.42
661.00,84.57
660.00,84.63
659.00,84.61
658.00,84.58
657.00,84.61
656.00,84.72
655.00,84.85
654.00,84.92
653.00,84.89
652.00,84.85
651.00,84.88
650.00,84.96
649.00,85.05
648.00,85.13
647.00,85.25
646.00,85.40
645.00,85.52
644.00,85.54
643.00,85.48
642.00,85.43
641.00,85.47
640.00,85.59
639.00,85.74
638.00,85.83
637.00,85.82
636.00,85.72
635.00,85.57
634.00,85.39
633.00,85.19
632.00,85.07
631.00,85.12
630.00,85.33
629.00,85.58
628.00,85.74
627.00,85.80
626.00,85.85
625.00,85.90
624.00,85.90
623.00,85.83
622.00,85.74
621.00,85.70
620.00,85.71
619.00,85.69
618.00,85.65
617.00,85.64
616.00,85.73
615.00,85.92
614.00,86.11
613.00,86.18
612.00,86.13
611.00,86.05
610.00,86.03
609.00,86.12
608.00,86.29
607.00,86.54
606.00,86.81
605.00,86.99
604.00,87.08
603.00,87.21
602.00,87.49
601.00,87.81
600.00,87.90
599.00,87.67
598.00,87.29
597.00,86.98
596.00,86.81
595.00,86.74
594.00,86.78
593.00,86.94
592.00,87.17
591.00,87.35
590.00,87.46
589.00,87.59
588.00,87.75
587.00,87.82
586.00,87.67
585.00,87.38
584.00,87.24
583.00,87.47
582.00,87.90
581.00,88.14
580.00,87.96
579.00,87.63
578.00,87.54
577.00,87.65
576.00,87.58
575.00,87.16
574.00,86.67
573.00,86.39
572.00,86.25
571.00,86.16
570.00,86.28
569.00,86.72
568.00,87.19
567.00,87.29
566.00,87.01
565.00,86.79
564.00,86.88
563.00,87.10
562.00,87.18
561.00,87.07
560.00,86.86
559.00,86.54
558.00,86.09
557.00,85.64
556.00,85.38
555.00,85.41
554.00,85.68
553.00,86.12
552.00,86.73
551.00,87.33
550.00,87.74
