Created as New Dataset,141. Du Pont
cm-1,%T
4000.00,99.37
3999.00,99.36
3998.00,99.36
3997.00,99.36
3996.00,99.38
3995.00,99.40
3994.00,99.42
3993.00,99.42
3992.00,99.42
3991.00,99.40
3990.00,99.37
3989.00,99.35
3988.00,99.34
3987.00,99.35
3986.00,99.37
3985.00,99.39
3984.00,99.39
3983.00,99.39
3982.00,99.38
3981.00,99.37
3980.00,99.36
3979.00,99.34
3978.00,99.32
3977.00,99.30
3976.00,99.29
3975.00,99.29
3974.00,99.29
3973.00,99.30
3972.00,99.32
3971.00,99.34
3970.00,99.36
3969.00,99.37
3968.00,99.38
3967.00,99.38
3966.00,99.38
3965.00,99.39
3964.00,99.41
3963.00,99.42
3962.00,99.41
3961.00,99.39
3960.00,99.38
3959.00,99.36
3958.00,99.36
3957.00,99.36
3956.00,99.37
3955.00,99.37
3954.00,99.38
3953.00,99.39
3952.00,99.39
3951.00,99.38
3950.00,99.36
3949.00,99.35
3948.00,99.34
3947.00,99.35
3946.00,99.36
3945.00,99.38
3944.00,99.38
3943.00,99.37
3942.00,99.34
3941.00,99.32
3940.00,99.30
3939.00,99.31
3938.00,99.34
3937.00,99.38
3936.00,99.41
3935.00,99.41
3934.00,99.39
3933.00,99.36
3932.00,99.33
3931.00,99.31
3930.00,99.31
3929.00,99.32
3928.00,99.33
3927.00,99.35
3926.00,99.36
3925.00,99.37
3924.00,99.37
3923.00,99.36
3922.00,99.35
3921.00,99.33
3920.00,99.32
3919.00,99.30
3918.00,99.29
3917.00,99.29
3916.00,99.30
3915.00,99.31
3914.00,99.31
3913.00,99.32
3912.00,99.33
3911.00,99.33
3910.00,99.34
3909.00,99.35
3908.00,99.35
3907.00,99.36
3906.00,99.37
3905.00,99.38
3904.00,99.40
3903.00,99.41
3902.00,99.41
3901.00,99.40
3900.00,99.39
3899.00,99.38
3898.00,99.37
3897.00,99.36
3896.00,99.35
3895.00,99.35
3894.00,99.34
3893.00,99.33
3892.00,99.33
3891.00,99.33
3890.00,99.34
3889.00,99.33
3888.00,99.32
3887.00,99.32
3886.00,99.33
3885.00,99.34
3884.00,99.33
3883.00,99.32
3882.00,99.31
3881.00,99.32
3880.00,99.34
3879.00,99.36
3878.00,99.36
3877.00,99.34
3876.00,99.33
3875.00,99.32
3874.00,99.31
3873.00,99.29
3872.00,99.26
3871.00,99.26
3870.00,99.27
3869.00,99.28
3868.00,99.27
3867.00,99.25
3866.00,99.25
3865.00,99.27
3864.00,99.29
3863.00,99.32
3862.00,99.34
3861.00,99.34
3860.00,99.34
3859.00,99.34
3858.00,99.32
3857.00,99.30
3856.00,99.27
3855.00,99.27
3854.00,99.29
3853.00,99.32
3852.00,99.33
3851.00,99.34
3850.00,99.36
3849.00,99.37
3848.00,99.37
3847.00,99.35
3846.00,99.32
3845.00,99.29
3844.00,99.28
3843.00,99.28
3842.00,99.28
3841.00,99.27
3840.00,99.26
3839.00,99.24
3838.00,99.24
3837.00,99.25
3836.00,99.26
3835.00,99.26
3834.00,99.26
3833.00,99.25
3832.00,99.26
3831.00,99.26
3830.00,99.26
3829.00,99.26
3828.00,99.26
3827.00,99.27
3826.00,99.28
3825.00,99.28
3824.00,99.25
3823.00,99.23
3822.00,99.23
3821.00,99.24
3820.00,99.25
3819.00,99.25
3818.00,99.24
3817.00,99.26
3816.00,99.27
3815.00,99.26
3814.00,99.23
3813.00,99.21
3812.00,99.21
3811.00,99.21
3810.00,99.21
3809.00,99.21
3808.00,99.22
3807.00,99.23
3806.00,99.22
3805.00,99.19
3804.00,99.17
3803.00,99.18
3802.00,99.22
3801.00,99.24
3800.00,99.25
3799.00,99.23
3798.00,99.22
3797.00,99.22
3796.00,99.23
3795.00,99.23
3794.00,99.22
3793.00,99.22
3792.00,99.22
3791.00,99.21
3790.00,99.19
3789.00,99.18
3788.00,99.17
3787.00,99.16
3786.00,99.17
3785.00,99.19
3784.00,99.19
3783.00,99.18
3782.00,99.16
3781.00,99.15
3780.00,99.17
3779.00,99.19
3778.00,99.20
3777.00,99.20
3776.00,99.20
3775.00,99.19
3774.00,99.17
3773.00,99.15
3772.00,99.14
3771.00,99.13
3770.00,99.12
3769.00,99.11
3768.00,99.08
3767.00,99.07
3766.00,99.07
3765.00,99.07
3764.00,99.07
3763.00,99.06
3762.00,99.06
3761.00,99.07
3760.00,99.08
3759.00,99.09
3758.00,99.09
3757.00,99.10
3756.00,99.10
3755.00,99.10
3754.00,99.11
3753.00,99.12
3752.00,99.11
3751.00,99.09
3750.00,99.06
3749.00,99.04
3748.00,99.03
3747.00,99.01
3746.00,99.00
3745.00,99.01
3744.00,99.01
3743.00,99.01
3742.00,99.01
3741.00,99.03
3740.00,99.05
3739.00,99.06
3738.00,99.06
3737.00,99.06
3736.00,99.07
3735.00,99.07
3734.00,99.04
3733.00,99.01
3732.00,98.99
3731.00,98.99
3730.00,99.00
3729.00,99.02
3728.00,99.05
3727.00,99.08
3726.00,99.09
3725.00,99.08
3724.00,99.06
3723.00,99.06
3722.00,99.06
3721.00,99.05
3720.00,99.03
3719.00,99.01
3718.00,98.99
3717.00,98.98
3716.00,98.95
3715.00,98.93
3714.00,98.94
3713.00,98.97
3712.00,99.00
3711.00,99.02
3710.00,99.02
3709.00,99.02
3708.00,99.04
3707.00,99.07
3706.00,99.08
3705.00,99.08
3704.00,99.07
3703.00,99.06
3702.00,99.05
3701.00,99.04
3700.00,99.02
3699.00,99.01
3698.00,99.00
3697.00,99.00
3696.00,99.01
3695.00,99.00
3694.00,99.00
3693.00,99.00
3692.00,99.00
3691.00,98.99
3690.00,98.97
3689.00,98.94
3688.00,98.92
3687.00,98.89
3686.00,98.87
3685.00,98.85
3684.00,98.85
3683.00,98.85
3682.00,98.86
3681.00,98.87
3680.00,98.88
3679.00,98.88
3678.00,98.86
3677.00,98.84
3676.00,98.85
3675.00,98.85
3674.00,98.83
3673.00,98.79
3672.00,98.76
3671.00,98.74
3670.00,98.74
3669.00,98.74
3668.00,98.74
3667.00,98.76
3666.00,98.79
3665.00,98.81
3664.00,98.82
3663.00,98.81
3662.00,98.79
3661.00,98.77
3660.00,98.74
3659.00,98.71
3658.00,98.68
3657.00,98.68
3656.00,98.70
3655.00,98.72
3654.00,98.71
3653.00,98.69
3652.00,98.67
3651.00,98.67
3650.00,98.66
3649.00,98.64
3648.00,98.61
3647.00,98.60
3646.00,98.59
3645.00,98.58
3644.00,98.58
3643.00,98.58
3642.00,98.59
3641.00,98.59
3640.00,98.60
3639.00,98.62
3638.00,98.64
3637.00,98.66
3636.00,98.66
3635.00,98.67
3634.00,98.68
3633.00,98.68
3632.00,98.66
3631.00,98.63
3630.00,98.61
3629.00,98.59
3628.00,98.57
3627.00,98.56
3626.00,98.55
3625.00,98.56
3624.00,98.59
3623.00,98.61
3622.00,98.61
3621.00,98.59
3620.00,98.57
3619.00,98.55
3618.00,98.54
3617.00,98.53
3616.00,98.52
3615.00,98.53
3614.00,98.56
3613.00,98.58
3612.00,98.60
3611.00,98.59
3610.00,98.58
3609.00,98.58
3608.00,98.58
3607.00,98.58
3606.00,98.59
3605.00,98.61
3604.00,98.63
3603.00,98.64
3602.00,98.63
3601.00,98.62
3600.00,98.62
3599.00,98.63
3598.00,98.64
3597.00,98.65
3596.00,98.66
3595.00,98.67
3594.00,98.67
3593.00,98.66
3592.00,98.62
3591.00,98.58
3590.00,98.54
3589.00,98.54
3588.00,98.55
3587.00,98.58
3586.00,98.59
3585.00,98.58
3584.00,98.58
3583.00,98.59
3582.00,98.60
3581.00,98.60
3580.00,98.59
3579.00,98.57
3578.00,98.55
3577.00,98.54
3576.00,98.54
3575.00,98.54
3574.00,98.55
3573.00,98.56
3572.00,98.58
3571.00,98.58
3570.00,98.57
3569.00,98.55
3568.00,98.53
3567.00,98.51
3566.00,98.50
3565.00,98.49
3564.00,98.47
3563.00,98.45
3562.00,98.44
3561.00,98.44
3560.00,98.46
3559.00,98.48
3558.00,98.50
3557.00,98.50
3556.00,98.50
3555.00,98.49
3554.00,98.48
3553.00,98.47
3552.00,98.47
3551.00,98.48
3550.00,98.50
3549.00,98.51
3548.00,98.52
3547.00,98.51
3546.00,98.49
3545.00,98.47
3544.00,98.44
3543.00,98.42
3542.00,98.42
3541.00,98.43
3540.00,98.44
3539.00,98.46
3538.00,98.48
3537.00,98.50
3536.00,98.51
3535.00,98.52
3534.00,98.52
3533.00,98.53
3532.00,98.55
3531.00,98.56
3530.00,98.57
3529.00,98.55
3528.00,98.52
3527.00,98.49
3526.00,98.47
3525.00,98.47
3524.00,98.49
3523.00,98.51
3522.00,98.52
3521.00,98.54
3520.00,98.54
3519.00,98.54
3518.00,98.53
3517.00,98.52
3516.00,98.51
3515.00,98.52
3514.00,98.54
3513.00,98.56
3512.00,98.58
3511.00,98.57
3510.00,98.54
3509.00,98.52
3508.00,98.51
3507.00,98.52
3506.00,98.53
3505.00,98.53
3504.00,98.53
3503.00,98.53
3502.00,98.53
3501.00,98.55
3500.00,98.56
3499.00,98.57
3498.00,98.57
3497.00,98.57
3496.00,98.57
3495.00,98.57
3494.00,98.57
3493.00,98.56
3492.00,98.55
3491.00,98.55
3490.00,98.55
3489.00,98.57
3488.00,98.57
3487.00,98.57
3486.00,98.57
3485.00,98.56
3484.00,98.56
3483.00,98.55
3482.00,98.55
3481.00,98.54
3480.00,98.53
3479.00,98.52
3478.00,98.53
3477.00,98.54
3476.00,98.55
3475.00,98.55
3474.00,98.54
3473.00,98.52
3472.00,98.50
3471.00,98.48
3470.00,98.47
3469.00,98.47
3468.00,98.48
3467.00,98.49
3466.00,98.51
3465.00,98.51
3464.00,98.51
3463.00,98.50
3462.00,98.50
3461.00,98.50
3460.00,98.49
3459.00,98.48
3458.00,98.45
3457.00,98.43
3456.00,98.41
3455.00,98.41
3454.00,98.40
3453.00,98.39
3452.00,98.36
3451.00,98.33
3450.00,98.31
3449.00,98.30
3448.00,98.30
3447.00,98.31
3446.00,98.33
3445.00,98.33
3444.00,98.32
3443.00,98.30
3442.00,98.27
3441.00,98.23
3440.00,98.20
3439.00,98.19
3438.00,98.20
3437.00,98.20
3436.00,98.20
3435.00,98.18
3434.00,98.16
3433.00,98.13
3432.00,98.11
3431.00,98.10
3430.00,98.09
3429.00,98.08
3428.00,98.07
3427.00,98.06
3426.00,98.08
3425.00,98.11
3424.00,98.15
3423.00,98.18
3422.00,98.20
3421.00,98.21
3420.00,98.22
3419.00,98.25
3418.00,98.29
3417.00,98.32
3416.00,98.35
3415.00,98.36
3414.00,98.36
3413.00,98.36
3412.00,98.36
3411.00,98.38
3410.00,98.40
3409.00,98.42
3408.00,98.45
3407.00,98.47
3406.00,98.49
3405.00,98.49
3404.00,98.49
3403.00,98.49
3402.00,98.48
3401.00,98.48
3400.00,98.46
3399.00,98.45
3398.00,98.45
3397.00,98.47
3396.00,98.50
3395.00,98.51
3394.00,98.51
3393.00,98.49
3392.00,98.48
3391.00,98.48
3390.00,98.49
3389.00,98.50
3388.00,98.51
3387.00,98.51
3386.00,98.51
3385.00,98.51
3384.00,98.51
3383.00,98.52
3382.00,98.53
3381.00,98.56
3380.00,98.57
3379.00,98.58
3378.00,98.58
3377.00,98.57
3376.00,98.56
3375.00,98.55
3374.00,98.54
3373.00,98.53
3372.00,98.53
3371.00,98.53
3370.00,98.55
3369.00,98.57
3368.00,98.58
3367.00,98.57
3366.00,98.56
3365.00,98.55
3364.00,98.55
3363.00,98.55
3362.00,98.56
3361.00,98.56
3360.00,98.57
3359.00,98.58
3358.00,98.58
3357.00,98.56
3356.00,98.56
3355.00,98.56
3354.00,98.57
3353.00,98.58
3352.00,98.60
3351.00,98.60
3350.00,98.58
3349.00,98.55
3348.00,98.51
3347.00,98.49
3346.00,98.48
3345.00,98.48
3344.00,98.49
3343.00,98.50
3342.00,98.51
3341.00,98.51
3340.00,98.52
3339.00,98.53
3338.00,98.53
3337.00,98.52
3336.00,98.51
3335.00,98.50
3334.00,98.49
3333.00,98.49
3332.00,98.50
3331.00,98.50
3330.00,98.50
3329.00,98.48
3328.00,98.47
3327.00,98.47
3326.00,98.49
3325.00,98.50
3324.00,98.51
3323.00,98.51
3322.00,98.50
3321.00,98.50
3320.00,98.50
3319.00,98.51
3318.00,98.51
3317.00,98.51
3316.00,98.51
3315.00,98.51
3314.00,98.52
3313.00,98.55
3312.00,98.58
3311.00,98.61
3310.00,98.62
3309.00,98.61
3308.00,98.60
3307.00,98.59
3306.00,98.59
3305.00,98.60
3304.00,98.60
3303.00,98.59
3302.00,98.57
3301.00,98.54
3300.00,98.52
3299.00,98.51
3298.00,98.51
3297.00,98.51
3296.00,98.51
3295.00,98.52
3294.00,98.52
3293.00,98.51
3292.00,98.50
3291.00,98.50
3290.00,98.50
3289.00,98.50
3288.00,98.50
3287.00,98.50
3286.00,98.51
3285.00,98.51
3284.00,98.53
3283.00,98.55
3282.00,98.57
3281.00,98.58
3280.00,98.57
3279.00,98.55
3278.00,98.53
3277.00,98.52
3276.00,98.52
3275.00,98.53
3274.00,98.53
3273.00,98.54
3272.00,98.54
3271.00,98.54
3270.00,98.53
3269.00,98.51
3268.00,98.49
3267.00,98.47
3266.00,98.46
3265.00,98.47
3264.00,98.47
3263.00,98.48
3262.00,98.48
3261.00,98.49
3260.00,98.51
3259.00,98.53
3258.00,98.55
3257.00,98.55
3256.00,98.54
3255.00,98.53
3254.00,98.51
3253.00,98.50
3252.00,98.49
3251.00,98.50
3250.00,98.51
3249.00,98.53
3248.00,98.55
3247.00,98.57
3246.00,98.57
3245.00,98.55
3244.00,98.52
3243.00,98.49
3242.00,98.47
3241.00,98.47
3240.00,98.47
3239.00,98.48
3238.00,98.51
3237.00,98.53
3236.00,98.54
3235.00,98.53
3234.00,98.53
3233.00,98.53
3232.00,98.52
3231.00,98.52
3230.00,98.50
3229.00,98.49
3228.00,98.49
3227.00,98.48
3226.00,98.48
3225.00,98.47
3224.00,98.47
3223.00,98.48
3222.00,98.50
3221.00,98.53
3220.00,98.54
3219.00,98.55
3218.00,98.55
3217.00,98.53
3216.00,98.52
3215.00,98.52
3214.00,98.52
3213.00,98.54
3212.00,98.56
3211.00,98.57
3210.00,98.56
3209.00,98.54
3208.00,98.51
3207.00,98.48
3206.00,98.47
3205.00,98.47
3204.00,98.48
3203.00,98.49
3202.00,98.50
3201.00,98.49
3200.00,98.48
3199.00,98.48
3198.00,98.47
3197.00,98.48
3196.00,98.48
3195.00,98.49
3194.00,98.49
3193.00,98.48
3192.00,98.48
3191.00,98.46
3190.00,98.45
3189.00,98.44
3188.00,98.44
3187.00,98.44
3186.00,98.46
3185.00,98.48
3184.00,98.49
3183.00,98.49
3182.00,98.48
3181.00,98.47
3180.00,98.47
3179.00,98.47
3178.00,98.48
3177.00,98.49
3176.00,98.50
3175.00,98.51
3174.00,98.51
3173.00,98.51
3172.00,98.50
3171.00,98.50
3170.00,98.50
3169.00,98.50
3168.00,98.49
3167.00,98.48
3166.00,98.47
3165.00,98.46
3164.00,98.46
3163.00,98.45
3162.00,98.45
3161.00,98.44
3160.00,98.45
3159.00,98.47
3158.00,98.48
3157.00,98.49
3156.00,98.49
3155.00,98.48
3154.00,98.48
3153.00,98.48
3152.00,98.49
3151.00,98.50
3150.00,98.50
3149.00,98.48
3148.00,98.47
3147.00,98.46
3146.00,98.45
3145.00,98.44
3144.00,98.44
3143.00,98.42
3142.00,98.41
3141.00,98.40
3140.00,98.41
3139.00,98.42
3138.00,98.42
3137.00,98.43
3136.00,98.42
3135.00,98.40
3134.00,98.39
3133.00,98.38
3132.00,98.37
3131.00,98.37
3130.00,98.37
3129.00,98.38
3128.00,98.39
3127.00,98.40
3126.00,98.39
3125.00,98.38
3124.00,98.37
3123.00,98.36
3122.00,98.36
3121.00,98.36
3120.00,98.36
3119.00,98.36
3118.00,98.37
3117.00,98.38
3116.00,98.37
3115.00,98.36
3114.00,98.34
3113.00,98.33
3112.00,98.32
3111.00,98.31
3110.00,98.29
3109.00,98.26
3108.00,98.21
3107.00,98.18
3106.00,98.16
3105.00,98.16
3104.00,98.17
3103.00,98.20
3102.00,98.22
3101.00,98.24
3100.00,98.24
3099.00,98.25
3098.00,98.25
3097.00,98.26
3096.00,98.27
3095.00,98.26
3094.00,98.26
3093.00,98.24
3092.00,98.23
3091.00,98.22
3090.00,98.23
3089.00,98.23
3088.00,98.23
3087.00,98.21
3086.00,98.18
3085.00,98.16
3084.00,98.14
3083.00,98.13
3082.00,98.13
3081.00,98.13
3080.00,98.13
3079.00,98.14
3078.00,98.15
3077.00,98.15
3076.00,98.15
3075.00,98.14
3074.00,98.13
3073.00,98.12
3072.00,98.11
3071.00,98.10
3070.00,98.09
3069.00,98.08
3068.00,98.06
3067.00,98.05
3066.00,98.06
3065.00,98.07
3064.00,98.09
3063.00,98.10
3062.00,98.11
3061.00,98.11
3060.00,98.11
3059.00,98.10
3058.00,98.09
3057.00,98.08
3056.00,98.07
3055.00,98.06
3054.00,98.06
3053.00,98.07
3052.00,98.10
3051.00,98.12
3050.00,98.14
3049.00,98.15
3048.00,98.18
3047.00,98.21
3046.00,98.24
3045.00,98.26
3044.00,98.28
3043.00,98.31
3042.00,98.33
3041.00,98.34
3040.00,98.35
3039.00,98.34
3038.00,98.33
3037.00,98.32
3036.00,98.32
3035.00,98.32
3034.00,98.32
3033.00,98.31
3032.00,98.30
3031.00,98.29
3030.00,98.28
3029.00,98.27
3028.00,98.26
3027.00,98.24
3026.00,98.22
3025.00,98.21
3024.00,98.20
3023.00,98.18
3022.00,98.16
3021.00,98.12
3020.00,98.07
3019.00,98.02
3018.00,97.97
3017.00,97.94
3016.00,97.91
3015.00,97.89
3014.00,97.88
3013.00,97.87
3012.00,97.87
3011.00,97.87
3010.00,97.86
3009.00,97.84
3008.00,97.82
3007.00,97.80
3006.00,97.78
3005.00,97.76
3004.00,97.74
3003.00,97.73
3002.00,97.72
3001.00,97.71
3000.00,97.70
2999.00,97.68
2998.00,97.66
2997.00,97.64
2996.00,97.62
2995.00,97.61
2994.00,97.61
2993.00,97.61
2992.00,97.61
2991.00,97.59
2990.00,97.56
2989.00,97.52
2988.00,97.49
2987.00,97.47
2986.00,97.44
2985.00,97.41
2984.00,97.35
2983.00,97.30
2982.00,97.24
2981.00,97.18
2980.00,97.12
2979.00,97.06
2978.00,96.99
2977.00,96.90
2976.00,96.81
2975.00,96.73
2974.00,96.66
2973.00,96.60
2972.00,96.55
2971.00,96.51
2970.00,96.48
2969.00,96.46
2968.00,96.45
2967.00,96.45
2966.00,96.46
2965.00,96.47
2964.00,96.48
2963.00,96.49
2962.00,96.50
2961.00,96.51
2960.00,96.53
2959.00,96.55
2958.00,96.58
2957.00,96.60
2956.00,96.64
2955.00,96.68
2954.00,96.74
2953.00,96.80
2952.00,96.86
2951.00,96.91
2950.00,96.96
2949.00,97.00
2948.00,97.04
2947.00,97.08
2946.00,97.11
2945.00,97.16
2944.00,97.21
2943.00,97.26
2942.00,97.29
2941.00,97.30
2940.00,97.31
2939.00,97.32
2938.00,97.31
2937.00,97.29
2936.00,97.27
2935.00,97.25
2934.00,97.23
2933.00,97.22
2932.00,97.21
2931.00,97.19
2930.00,97.17
2929.00,97.14
2928.00,97.12
2927.00,97.10
2926.00,97.07
2925.00,97.03
2924.00,96.99
2923.00,96.94
2922.00,96.90
2921.00,96.85
2920.00,96.81
2919.00,96.76
2918.00,96.73
2917.00,96.72
2916.00,96.73
2915.00,96.75
2914.00,96.79
2913.00,96.84
2912.00,96.88
2911.00,96.90
2910.00,96.92
2909.00,96.94
2908.00,96.95
2907.00,96.97
2906.00,97.00
2905.00,97.04
2904.00,97.09
2903.00,97.13
2902.00,97.18
2901.00,97.22
2900.00,97.26
2899.00,97.30
2898.00,97.33
2897.00,97.35
2896.00,97.36
2895.00,97.37
2894.00,97.39
2893.00,97.40
2892.00,97.41
2891.00,97.42
2890.00,97.43
2889.00,97.45
2888.00,97.46
2887.00,97.47
2886.00,97.48
2885.00,97.49
2884.00,97.51
2883.00,97.52
2882.00,97.53
2881.00,97.53
2880.00,97.53
2879.00,97.53
2878.00,97.55
2877.00,97.57
2876.00,97.58
2875.00,97.59
2874.00,97.59
2873.00,97.60
2872.00,97.60
2871.00,97.61
2870.00,97.60
2869.00,97.60
2868.00,97.60
2867.00,97.59
2866.00,97.58
2865.00,97.56
2864.00,97.55
2863.00,97.55
2862.00,97.55
2861.00,97.54
2860.00,97.52
2859.00,97.50
2858.00,97.47
2857.00,97.44
2856.00,97.41
2855.00,97.39
2854.00,97.37
2853.00,97.34
2852.00,97.33
2851.00,97.34
2850.00,97.37
2849.00,97.42
2848.00,97.48
2847.00,97.55
2846.00,97.63
2845.00,97.70
2844.00,97.77
2843.00,97.83
2842.00,97.88
2841.00,97.92
2840.00,97.94
2839.00,97.96
2838.00,97.99
2837.00,98.01
2836.00,98.04
2835.00,98.06
2834.00,98.08
2833.00,98.09
2832.00,98.10
2831.00,98.10
2830.00,98.11
2829.00,98.11
2828.00,98.12
2827.00,98.12
2826.00,98.13
2825.00,98.14
2824.00,98.16
2823.00,98.16
2822.00,98.17
2821.00,98.17
2820.00,98.17
2819.00,98.16
2818.00,98.16
2817.00,98.16
2816.00,98.16
2815.00,98.17
2814.00,98.17
2813.00,98.18
2812.00,98.18
2811.00,98.18
2810.00,98.18
2809.00,98.18
2808.00,98.19
2807.00,98.18
2806.00,98.18
2805.00,98.19
2804.00,98.20
2803.00,98.21
2802.00,98.22
2801.00,98.22
2800.00,98.22
2799.00,98.22
2798.00,98.22
2797.00,98.22
2796.00,98.22
2795.00,98.22
2794.00,98.23
2793.00,98.24
2792.00,98.26
2791.00,98.27
2790.00,98.28
2789.00,98.29
2788.00,98.28
2787.00,98.26
2786.00,98.24
2785.00,98.22
2784.00,98.22
2783.00,98.23
2782.00,98.24
2781.00,98.25
2780.00,98.25
2779.00,98.25
2778.00,98.25
2777.00,98.25
2776.00,98.26
2775.00,98.28
2774.00,98.30
2773.00,98.32
2772.00,98.33
2771.00,98.32
2770.00,98.31
2769.00,98.31
2768.00,98.31
2767.00,98.31
2766.00,98.30
2765.00,98.29
2764.00,98.28
2763.00,98.27
2762.00,98.27
2761.00,98.28
2760.00,98.28
2759.00,98.29
2758.00,98.29
2757.00,98.29
2756.00,98.29
2755.00,98.29
2754.00,98.29
2753.00,98.28
2752.00,98.27
2751.00,98.27
2750.00,98.27
2749.00,98.28
2748.00,98.28
2747.00,98.28
2746.00,98.27
2745.00,98.26
2744.00,98.27
2743.00,98.27
2742.00,98.27
2741.00,98.27
2740.00,98.26
2739.00,98.25
2738.00,98.24
2737.00,98.24
2736.00,98.24
2735.00,98.24
2734.00,98.26
2733.00,98.27
2732.00,98.29
2731.00,98.30
2730.00,98.30
2729.00,98.29
2728.00,98.29
2727.00,98.31
2726.00,98.34
2725.00,98.36
2724.00,98.36
2723.00,98.35
2722.00,98.34
2721.00,98.33
2720.00,98.33
2719.00,98.34
2718.00,98.34
2717.00,98.34
2716.00,98.34
2715.00,98.33
2714.00,98.33
2713.00,98.33
2712.00,98.34
2711.00,98.33
2710.00,98.33
2709.00,98.33
2708.00,98.34
2707.00,98.35
2706.00,98.36
2705.00,98.36
2704.00,98.36
2703.00,98.35
2702.00,98.35
2701.00,98.35
2700.00,98.37
2699.00,98.38
2698.00,98.39
2697.00,98.39
2696.00,98.38
2695.00,98.37
2694.00,98.36
2693.00,98.37
2692.00,98.38
2691.00,98.39
2690.00,98.39
2689.00,98.39
2688.00,98.39
2687.00,98.39
2686.00,98.38
2685.00,98.38
2684.00,98.37
2683.00,98.35
2682.00,98.33
2681.00,98.32
2680.00,98.32
2679.00,98.32
2678.00,98.32
2677.00,98.32
2676.00,98.33
2675.00,98.33
2674.00,98.34
2673.00,98.35
2672.00,98.35
2671.00,98.36
2670.00,98.36
2669.00,98.35
2668.00,98.34
2667.00,98.34
2666.00,98.34
2665.00,98.34
2664.00,98.34
2663.00,98.33
2662.00,98.33
2661.00,98.32
2660.00,98.32
2659.00,98.32
2658.00,98.31
2657.00,98.30
2656.00,98.29
2655.00,98.28
2654.00,98.26
2653.00,98.26
2652.00,98.25
2651.00,98.25
2650.00,98.25
2649.00,98.25
2648.00,98.24
2647.00,98.21
2646.00,98.19
2645.00,98.18
2644.00,98.17
2643.00,98.17
2642.00,98.15
2641.00,98.12
2640.00,98.10
2639.00,98.11
2638.00,98.12
2637.00,98.13
2636.00,98.13
2635.00,98.11
2634.00,98.09
2633.00,98.07
2632.00,98.05
2631.00,98.03
2630.00,98.02
2629.00,98.02
2628.00,98.04
2627.00,98.05
2626.00,98.05
2625.00,98.03
2624.00,97.99
2623.00,97.96
2622.00,97.95
2621.00,97.95
2620.00,97.96
2619.00,97.97
2618.00,97.97
2617.00,97.97
2616.00,97.96
2615.00,97.96
2614.00,97.96
2613.00,97.95
2612.00,97.95
2611.00,97.95
2610.00,97.96
2609.00,97.96
2608.00,97.96
2607.00,97.95
2606.00,97.93
2605.00,97.92
2604.00,97.91
2603.00,97.91
2602.00,97.89
2601.00,97.87
2600.00,97.86
2599.00,97.85
2598.00,97.85
2597.00,97.85
2596.00,97.85
2595.00,97.84
2594.00,97.83
2593.00,97.82
2592.00,97.82
2591.00,97.81
2590.00,97.80
2589.00,97.78
2588.00,97.77
2587.00,97.78
2586.00,97.79
2585.00,97.80
2584.00,97.80
2583.00,97.79
2582.00,97.77
2581.00,97.75
2580.00,97.73
2579.00,97.72
2578.00,97.72
2577.00,97.73
2576.00,97.75
2575.00,97.76
2574.00,97.75
2573.00,97.73
2572.00,97.72
2571.00,97.73
2570.00,97.74
2569.00,97.74
2568.00,97.73
2567.00,97.70
2566.00,97.67
2565.00,97.66
2564.00,97.65
2563.00,97.66
2562.00,97.67
2561.00,97.68
2560.00,97.69
2559.00,97.69
2558.00,97.68
2557.00,97.67
2556.00,97.66
2555.00,97.67
2554.00,97.68
2553.00,97.69
2552.00,97.68
2551.00,97.67
2550.00,97.65
2549.00,97.64
2548.00,97.65
2547.00,97.67
2546.00,97.70
2545.00,97.71
2544.00,97.70
2543.00,97.69
2542.00,97.69
2541.00,97.69
2540.00,97.68
2539.00,97.66
2538.00,97.65
2537.00,97.65
2536.00,97.66
2535.00,97.68
2534.00,97.68
2533.00,97.66
2532.00,97.63
2531.00,97.61
2530.00,97.61
2529.00,97.61
2528.00,97.62
2527.00,97.63
2526.00,97.65
2525.00,97.67
2524.00,97.68
2523.00,97.69
2522.00,97.69
2521.00,97.69
2520.00,97.69
2519.00,97.69
2518.00,97.69
2517.00,97.71
2516.00,97.71
2515.00,97.71
2514.00,97.69
2513.00,97.67
2512.00,97.66
2511.00,97.68
2510.00,97.71
2509.00,97.74
2508.00,97.75
2507.00,97.75
2506.00,97.74
2505.00,97.73
2504.00,97.73
2503.00,97.73
2502.00,97.73
2501.00,97.72
2500.00,97.71
2499.00,97.71
2498.00,97.72
2497.00,97.74
2496.00,97.75
2495.00,97.73
2494.00,97.70
2493.00,97.67
2492.00,97.66
2491.00,97.66
2490.00,97.68
2489.00,97.69
2488.00,97.71
2487.00,97.72
2486.00,97.74
2485.00,97.76
2484.00,97.77
2483.00,97.76
2482.00,97.74
2481.00,97.73
2480.00,97.73
2479.00,97.74
2478.00,97.74
2477.00,97.73
2476.00,97.72
2475.00,97.71
2474.00,97.69
2473.00,97.69
2472.00,97.70
2471.00,97.73
2470.00,97.76
2469.00,97.77
2468.00,97.77
2467.00,97.76
2466.00,97.76
2465.00,97.76
2464.00,97.76
2463.00,97.75
2462.00,97.74
2461.00,97.73
2460.00,97.73
2459.00,97.72
2458.00,97.73
2457.00,97.74
2456.00,97.76
2455.00,97.77
2454.00,97.77
2453.00,97.78
2452.00,97.78
2451.00,97.78
2450.00,97.77
2449.00,97.77
2448.00,97.77
2447.00,97.77
2446.00,97.76
2445.00,97.76
2444.00,97.76
2443.00,97.78
2442.00,97.79
2441.00,97.79
2440.00,97.77
2439.00,97.75
2438.00,97.74
2437.00,97.74
2436.00,97.74
2435.00,97.73
2434.00,97.72
2433.00,97.72
2432.00,97.72
2431.00,97.73
2430.00,97.75
2429.00,97.76
2428.00,97.77
2427.00,97.77
2426.00,97.76
2425.00,97.75
2424.00,97.73
2423.00,97.71
2422.00,97.69
2421.00,97.68
2420.00,97.69
2419.00,97.69
2418.00,97.70
2417.00,97.71
2416.00,97.71
2415.00,97.72
2414.00,97.73
2413.00,97.72
2412.00,97.71
2411.00,97.69
2410.00,97.68
2409.00,97.67
2408.00,97.68
2407.00,97.70
2406.00,97.72
2405.00,97.73
2404.00,97.73
2403.00,97.72
2402.00,97.72
2401.00,97.72
2400.00,97.73
2399.00,97.74
2398.00,97.75
2397.00,97.76
2396.00,97.77
2395.00,97.77
2394.00,97.76
2393.00,97.76
2392.00,97.75
2391.00,97.75
2390.00,97.75
2389.00,97.76
2388.00,97.75
2387.00,97.75
2386.00,97.75
2385.00,97.76
2384.00,97.79
2383.00,97.81
2382.00,97.82
2381.00,97.83
2380.00,97.84
2379.00,97.86
2378.00,97.89
2377.00,97.89
2376.00,97.88
2375.00,97.85
2374.00,97.83
2373.00,97.84
2372.00,97.88
2371.00,97.93
2370.00,97.97
2369.00,97.98
2368.00,97.98
2367.00,97.95
2366.00,97.91
2365.00,97.87
2364.00,97.85
2363.00,97.85
2362.00,97.88
2361.00,97.92
2360.00,97.96
2359.00,97.99
2358.00,97.99
2357.00,97.98
2356.00,97.97
2355.00,97.98
2354.00,97.99
2353.00,98.00
2352.00,98.00
2351.00,98.00
2350.00,98.01
2349.00,98.06
2348.00,98.12
2347.00,98.18
2346.00,98.20
2345.00,98.15
2344.00,98.07
2343.00,98.00
2342.00,97.96
2341.00,97.96
2340.00,97.98
2339.00,98.01
2338.00,98.03
2337.00,98.04
2336.00,98.03
2335.00,98.02
2334.00,98.00
2333.00,97.97
2332.00,97.94
2331.00,97.93
2330.00,97.93
2329.00,97.93
2328.00,97.93
2327.00,97.89
2326.00,97.83
2325.00,97.77
2324.00,97.74
2323.00,97.76
2322.00,97.81
2321.00,97.83
2320.00,97.82
2319.00,97.80
2318.00,97.79
2317.00,97.80
2316.00,97.82
2315.00,97.82
2314.00,97.79
2313.00,97.75
2312.00,97.72
2311.00,97.71
2310.00,97.72
2309.00,97.72
2308.00,97.70
2307.00,97.67
2306.00,97.65
2305.00,97.63
2304.00,97.64
2303.00,97.65
2302.00,97.66
2301.00,97.66
2300.00,97.63
2299.00,97.59
2298.00,97.55
2297.00,97.50
2296.00,97.47
2295.00,97.45
2294.00,97.45
2293.00,97.46
2292.00,97.45
2291.00,97.43
2290.00,97.41
2289.00,97.40
2288.00,97.38
2287.00,97.34
2286.00,97.30
2285.00,97.27
2284.00,97.26
2283.00,97.28
2282.00,97.29
2281.00,97.29
2280.00,97.28
2279.00,97.28
2278.00,97.28
2277.00,97.27
2276.00,97.25
2275.00,97.21
2274.00,97.17
2273.00,97.13
2272.00,97.10
2271.00,97.08
2270.00,97.08
2269.00,97.09
2268.00,97.09
2267.00,97.09
2266.00,97.09
2265.00,97.10
2264.00,97.10
2263.00,97.08
2262.00,97.06
2261.00,97.03
2260.00,97.02
2259.00,97.02
2258.00,97.04
2257.00,97.05
2256.00,97.05
2255.00,97.04
2254.00,97.03
2253.00,97.01
2252.00,97.00
2251.00,96.99
2250.00,96.98
2249.00,96.99
2248.00,96.99
2247.00,96.99
2246.00,96.99
2245.00,96.99
2244.00,96.99
2243.00,96.97
2242.00,96.96
2241.00,96.96
2240.00,96.98
2239.00,96.99
2238.00,96.98
2237.00,96.94
2236.00,96.90
2235.00,96.85
2234.00,96.81
2233.00,96.76
2232.00,96.72
2231.00,96.71
2230.00,96.75
2229.00,96.80
2228.00,96.83
2227.00,96.85
2226.00,96.85
2225.00,96.84
2224.00,96.84
2223.00,96.85
2222.00,96.86
2221.00,96.87
2220.00,96.88
2219.00,96.87
2218.00,96.84
2217.00,96.81
2216.00,96.77
2215.00,96.75
2214.00,96.73
2213.00,96.71
2212.00,96.69
2211.00,96.67
2210.00,96.65
2209.00,96.65
2208.00,96.65
2207.00,96.65
2206.00,96.65
2205.00,96.65
2204.00,96.65
2203.00,96.66
2202.00,96.69
2201.00,96.74
2200.00,96.77
2199.00,96.77
2198.00,96.75
2197.00,96.74
2196.00,96.74
2195.00,96.71
2194.00,96.64
2193.00,96.56
2192.00,96.51
2191.00,96.50
2190.00,96.51
2189.00,96.50
2188.00,96.46
2187.00,96.41
2186.00,96.35
2185.00,96.32
2184.00,96.34
2183.00,96.38
2182.00,96.42
2181.00,96.43
2180.00,96.44
2179.00,96.46
2178.00,96.47
2177.00,96.46
2176.00,96.44
2175.00,96.41
2174.00,96.39
2173.00,96.37
2172.00,96.36
2171.00,96.35
2170.00,96.33
2169.00,96.29
2168.00,96.24
2167.00,96.20
2166.00,96.16
2165.00,96.11
2164.00,96.05
2163.00,95.99
2162.00,95.97
2161.00,96.01
2160.00,96.10
2159.00,96.22
2158.00,96.31
2157.00,96.37
2156.00,96.41
2155.00,96.45
2154.00,96.50
2153.00,96.54
2152.00,96.53
2151.00,96.51
2150.00,96.50
2149.00,96.52
2148.00,96.55
2147.00,96.61
2146.00,96.69
2145.00,96.76
2144.00,96.80
2143.00,96.79
2142.00,96.76
2141.00,96.73
2140.00,96.72
2139.00,96.74
2138.00,96.79
2137.00,96.84
2136.00,96.89
2135.00,96.92
2134.00,96.94
2133.00,96.97
2132.00,97.00
2131.00,97.03
2130.00,97.06
2129.00,97.08
2128.00,97.09
2127.00,97.08
2126.00,97.05
2125.00,97.03
2124.00,97.01
2123.00,97.01
2122.00,97.01
2121.00,97.01
2120.00,97.03
2119.00,97.04
2118.00,97.04
2117.00,97.02
2116.00,96.98
2115.00,96.96
2114.00,96.96
2113.00,96.99
2112.00,97.03
2111.00,97.03
2110.00,96.99
2109.00,96.93
2108.00,96.89
2107.00,96.88
2106.00,96.89
2105.00,96.90
2104.00,96.92
2103.00,96.94
2102.00,96.97
2101.00,96.98
2100.00,96.99
2099.00,97.00
2098.00,97.01
2097.00,97.02
2096.00,97.01
2095.00,96.98
2094.00,96.95
2093.00,96.92
2092.00,96.89
2091.00,96.88
2090.00,96.91
2089.00,96.95
2088.00,96.98
2087.00,97.00
2086.00,96.98
2085.00,96.96
2084.00,96.93
2083.00,96.91
2082.00,96.92
2081.00,96.94
2080.00,96.95
2079.00,96.96
2078.00,96.94
2077.00,96.90
2076.00,96.87
2075.00,96.86
2074.00,96.87
2073.00,96.89
2072.00,96.90
2071.00,96.89
2070.00,96.88
2069.00,96.89
2068.00,96.92
2067.00,96.96
2066.00,96.99
2065.00,97.01
2064.00,97.01
2063.00,97.00
2062.00,97.00
2061.00,96.98
2060.00,96.92
2059.00,96.85
2058.00,96.80
2057.00,96.79
2056.00,96.80
2055.00,96.83
2054.00,96.85
2053.00,96.87
2052.00,96.85
2051.00,96.81
2050.00,96.77
2049.00,96.73
2048.00,96.69
2047.00,96.64
2046.00,96.59
2045.00,96.56
2044.00,96.58
2043.00,96.60
2042.00,96.62
2041.00,96.62
2040.00,96.60
2039.00,96.60
2038.00,96.60
2037.00,96.59
2036.00,96.57
2035.00,96.53
2034.00,96.49
2033.00,96.48
2032.00,96.50
2031.00,96.55
2030.00,96.61
2029.00,96.65
2028.00,96.66
2027.00,96.62
2026.00,96.55
2025.00,96.49
2024.00,96.46
2023.00,96.45
2022.00,96.47
2021.00,96.50
2020.00,96.53
2019.00,96.55
2018.00,96.54
2017.00,96.54
2016.00,96.53
2015.00,96.53
2014.00,96.52
2013.00,96.50
2012.00,96.47
2011.00,96.44
2010.00,96.44
2009.00,96.45
2008.00,96.45
2007.00,96.44
2006.00,96.44
2005.00,96.47
2004.00,96.52
2003.00,96.58
2002.00,96.63
2001.00,96.66
2000.00,96.68
1999.00,96.70
1998.00,96.73
1997.00,96.75
1996.00,96.75
1995.00,96.71
1994.00,96.67
1993.00,96.63
1992.00,96.62
1991.00,96.61
1990.00,96.60
1989.00,96.59
1988.00,96.59
1987.00,96.60
1986.00,96.60
1985.00,96.57
1984.00,96.50
1983.00,96.41
1982.00,96.34
1981.00,96.29
1980.00,96.27
1979.00,96.25
1978.00,96.24
1977.00,96.24
1976.00,96.25
1975.00,96.26
1974.00,96.27
1973.00,96.28
1972.00,96.32
1971.00,96.40
1970.00,96.49
1969.00,96.56
1968.00,96.58
1967.00,96.57
1966.00,96.53
1965.00,96.47
1964.00,96.37
1963.00,96.30
1962.00,96.30
1961.00,96.37
1960.00,96.45
1959.00,96.49
1958.00,96.49
1957.00,96.48
1956.00,96.49
1955.00,96.51
1954.00,96.54
1953.00,96.57
1952.00,96.61
1951.00,96.63
1950.00,96.66
1949.00,96.70
1948.00,96.76
1947.00,96.84
1946.00,96.92
1945.00,96.98
1944.00,97.02
1943.00,97.05
1942.00,97.07
1941.00,97.08
1940.00,97.06
1939.00,97.05
1938.00,97.05
1937.00,97.08
1936.00,97.14
1935.00,97.18
1934.00,97.21
1933.00,97.22
1932.00,97.22
1931.00,97.23
1930.00,97.24
1929.00,97.26
1928.00,97.29
1927.00,97.35
1926.00,97.41
1925.00,97.46
1924.00,97.51
1923.00,97.55
1922.00,97.59
1921.00,97.62
1920.00,97.63
1919.00,97.63
1918.00,97.64
1917.00,97.64
1916.00,97.64
1915.00,97.62
1914.00,97.60
1913.00,97.58
1912.00,97.59
1911.00,97.62
1910.00,97.66
1909.00,97.70
1908.00,97.71
1907.00,97.72
1906.00,97.73
1905.00,97.73
1904.00,97.71
1903.00,97.69
1902.00,97.69
1901.00,97.72
1900.00,97.75
1899.00,97.76
1898.00,97.78
1897.00,97.80
1896.00,97.84
1895.00,97.86
1894.00,97.89
1893.00,97.91
1892.00,97.93
1891.00,97.94
1890.00,97.94
1889.00,97.94
1888.00,97.96
1887.00,97.98
1886.00,97.98
1885.00,97.95
1884.00,97.92
1883.00,97.90
1882.00,97.90
1881.00,97.91
1880.00,97.94
1879.00,97.96
1878.00,97.97
1877.00,97.97
1876.00,97.97
1875.00,97.97
1874.00,97.98
1873.00,97.99
1872.00,98.02
1871.00,98.04
1870.00,98.05
1869.00,98.04
1868.00,98.02
1867.00,98.00
1866.00,98.00
1865.00,98.02
1864.00,98.04
1863.00,98.05
1862.00,98.06
1861.00,98.06
1860.00,98.05
1859.00,98.05
1858.00,98.03
1857.00,98.02
1856.00,98.01
1855.00,98.01
1854.00,98.02
1853.00,98.02
1852.00,98.02
1851.00,98.01
1850.00,98.00
1849.00,98.01
1848.00,98.01
1847.00,98.00
1846.00,97.97
1845.00,97.94
1844.00,97.93
1843.00,97.93
1842.00,97.92
1841.00,97.92
1840.00,97.90
1839.00,97.88
1838.00,97.87
1837.00,97.86
1836.00,97.86
1835.00,97.86
1834.00,97.85
1833.00,97.84
1832.00,97.82
1831.00,97.82
1830.00,97.83
1829.00,97.84
1828.00,97.83
1827.00,97.82
1826.00,97.82
1825.00,97.83
1824.00,97.84
1823.00,97.84
1822.00,97.83
1821.00,97.83
1820.00,97.84
1819.00,97.87
1818.00,97.90
1817.00,97.93
1816.00,97.95
1815.00,97.97
1814.00,97.99
1813.00,97.99
1812.00,97.99
1811.00,97.98
1810.00,97.99
1809.00,98.01
1808.00,98.02
1807.00,98.01
1806.00,98.00
1805.00,98.01
1804.00,98.03
1803.00,98.04
1802.00,98.06
1801.00,98.06
1800.00,98.07
1799.00,98.09
1798.00,98.12
1797.00,98.15
1796.00,98.16
1795.00,98.16
1794.00,98.15
1793.00,98.17
1792.00,98.20
1791.00,98.22
1790.00,98.21
1789.00,98.19
1788.00,98.17
1787.00,98.17
1786.00,98.17
1785.00,98.18
1784.00,98.19
1783.00,98.20
1782.00,98.21
1781.00,98.23
1780.00,98.24
1779.00,98.23
1778.00,98.22
1777.00,98.22
1776.00,98.22
1775.00,98.24
1774.00,98.25
1773.00,98.25
1772.00,98.22
1771.00,98.19
1770.00,98.19
1769.00,98.19
1768.00,98.18
1767.00,98.16
1766.00,98.14
1765.00,98.12
1764.00,98.10
1763.00,98.06
1762.00,98.03
1761.00,98.01
1760.00,97.99
1759.00,97.95
1758.00,97.87
1757.00,97.77
1756.00,97.67
1755.00,97.57
1754.00,97.49
1753.00,97.39
1752.00,97.21
1751.00,96.94
1750.00,96.59
1749.00,96.18
1748.00,95.73
1747.00,95.24
1746.00,94.71
1745.00,94.09
1744.00,93.37
1743.00,92.55
1742.00,91.66
1741.00,90.69
1740.00,89.62
1739.00,88.55
1738.00,87.66
1737.00,86.93
1736.00,86.12
1735.00,84.96
1734.00,83.49
1733.00,82.17
1732.00,81.14
1731.00,80.17
1730.00,79.14
1729.00,78.09
1728.00,77.08
1727.00,76.12
1726.00,75.17
1725.00,74.19
1724.00,73.18
1723.00,72.17
1722.00,71.23
1721.00,70.38
1720.00,69.54
1719.00,68.51
1718.00,67.26
1717.00,66.10
1716.00,65.24
1715.00,64.59
1714.00,64.11
1713.00,63.89
1712.00,63.91
1711.00,64.13
1710.00,64.51
1709.00,65.09
1708.00,65.87
1707.00,66.86
1706.00,68.08
1705.00,69.44
1704.00,70.66
1703.00,71.65
1702.00,72.62
1701.00,73.97
1700.00,75.63
1699.00,76.97
1698.00,77.86
1697.00,78.67
1696.00,79.61
1695.00,80.53
1694.00,81.22
1693.00,81.75
1692.00,82.25
1691.00,82.78
1690.00,83.31
1689.00,83.78
1688.00,84.17
1687.00,84.47
1686.00,84.69
1685.00,84.93
1684.00,85.23
1683.00,85.55
1682.00,85.82
1681.00,86.09
1680.00,86.39
1679.00,86.70
1678.00,86.99
1677.00,87.28
1676.00,87.61
1675.00,87.97
1674.00,88.29
1673.00,88.54
1672.00,88.75
1671.00,88.98
1670.00,89.26
1669.00,89.59
1668.00,89.90
1667.00,90.16
1666.00,90.37
1665.00,90.58
1664.00,90.82
1663.00,91.10
1662.00,91.38
1661.00,91.62
1660.00,91.82
1659.00,91.98
1658.00,92.14
1657.00,92.30
1656.00,92.47
1655.00,92.61
1654.00,92.73
1653.00,92.89
1652.00,93.04
1651.00,93.10
1650.00,93.10
1649.00,93.14
1648.00,93.23
1647.00,93.36
1646.00,93.48
1645.00,93.57
1644.00,93.64
1643.00,93.69
1642.00,93.74
1641.00,93.78
1640.00,93.83
1639.00,93.88
1638.00,93.94
1637.00,94.00
1636.00,94.05
1635.00,94.11
1634.00,94.17
1633.00,94.22
1632.00,94.26
1631.00,94.29
1630.00,94.32
1629.00,94.35
1628.00,94.40
1627.00,94.46
1626.00,94.51
1625.00,94.55
1624.00,94.58
1623.00,94.61
1622.00,94.63
1621.00,94.66
1620.00,94.68
1619.00,94.68
1618.00,94.63
1617.00,94.55
1616.00,94.50
1615.00,94.49
1614.00,94.51
1613.00,94.54
1612.00,94.59
1611.00,94.65
1610.00,94.73
1609.00,94.81
1608.00,94.89
1607.00,94.98
1606.00,95.07
1605.00,95.16
1604.00,95.24
1603.00,95.32
1602.00,95.40
1601.00,95.48
1600.00,95.55
1599.00,95.62
1598.00,95.67
1597.00,95.70
1596.00,95.72
1595.00,95.73
1594.00,95.73
1593.00,95.73
1592.00,95.73
1591.00,95.73
1590.00,95.72
1589.00,95.70
1588.00,95.67
1587.00,95.61
1586.00,95.53
1585.00,95.41
1584.00,95.25
1583.00,95.05
1582.00,94.83
1581.00,94.63
1580.00,94.49
1579.00,94.44
1578.00,94.46
1577.00,94.56
1576.00,94.73
1575.00,94.89
1574.00,95.01
1573.00,95.10
1572.00,95.19
1571.00,95.31
1570.00,95.46
1569.00,95.62
1568.00,95.75
1567.00,95.83
1566.00,95.88
1565.00,95.93
1564.00,96.00
1563.00,96.08
1562.00,96.16
1561.00,96.20
1560.00,96.21
1559.00,96.23
1558.00,96.25
1557.00,96.28
1556.00,96.30
1555.00,96.32
1554.00,96.34
1553.00,96.35
1552.00,96.37
1551.00,96.37
1550.00,96.37
1549.00,96.36
1548.00,96.37
1547.00,96.40
1546.00,96.43
1545.00,96.45
1544.00,96.48
1543.00,96.50
1542.00,96.50
1541.00,96.50
1540.00,96.51
1539.00,96.53
1538.00,96.54
1537.00,96.52
1536.00,96.49
1535.00,96.47
1534.00,96.45
1533.00,96.44
1532.00,96.45
1531.00,96.46
1530.00,96.47
1529.00,96.47
1528.00,96.48
1527.00,96.49
1526.00,96.48
1525.00,96.49
1524.00,96.52
1523.00,96.56
1522.00,96.60
1521.00,96.62
1520.00,96.64
1519.00,96.65
1518.00,96.67
1517.00,96.68
1516.00,96.68
1515.00,96.65
1514.00,96.58
1513.00,96.46
1512.00,96.28
1511.00,96.05
1510.00,95.76
1509.00,95.35
1508.00,94.64
1507.00,93.65
1506.00,92.93
1505.00,92.81
1504.00,93.08
1503.00,93.53
1502.00,94.07
1501.00,94.64
1500.00,95.17
1499.00,95.65
1498.00,96.05
1497.00,96.33
1496.00,96.50
1495.00,96.59
1494.00,96.63
1493.00,96.63
1492.00,96.62
1491.00,96.61
1490.00,96.57
1489.00,96.48
1488.00,96.36
1487.00,96.24
1486.00,96.12
1485.00,96.01
1484.00,95.89
1483.00,95.74
1482.00,95.57
1481.00,95.38
1480.00,95.19
1479.00,95.01
1478.00,94.82
1477.00,94.59
1476.00,94.35
1475.00,94.07
1474.00,93.74
1473.00,93.36
1472.00,93.10
1471.00,93.07
1470.00,93.22
1469.00,93.45
1468.00,93.70
1467.00,93.91
1466.00,94.05
1465.00,94.12
1464.00,94.15
1463.00,94.15
1462.00,94.14
1461.00,94.12
1460.00,94.09
1459.00,94.05
1458.00,93.99
1457.00,93.91
1456.00,93.86
1455.00,93.82
1454.00,93.79
1453.00,93.80
1452.00,93.83
1451.00,93.88
1450.00,93.93
1449.00,93.99
1448.00,94.07
1447.00,94.15
1446.00,94.23
1445.00,94.29
1444.00,94.33
1443.00,94.37
1442.00,94.43
1441.00,94.49
1440.00,94.58
1439.00,94.67
1438.00,94.77
1437.00,94.91
1436.00,95.06
1435.00,95.21
1434.00,95.35
1433.00,95.49
1432.00,95.64
1431.00,95.77
1430.00,95.90
1429.00,96.01
1428.00,96.09
1427.00,96.15
1426.00,96.17
1425.00,96.15
1424.00,96.09
1423.00,96.00
1422.00,95.91
1421.00,95.75
1420.00,95.42
1419.00,94.87
1418.00,94.14
1417.00,93.29
1416.00,92.32
1415.00,91.19
1414.00,89.93
1413.00,88.60
1412.00,87.32
1411.00,86.24
1410.00,85.50
1409.00,85.16
1408.00,85.21
1407.00,85.66
1406.00,86.44
1405.00,87.42
1404.00,88.41
1403.00,89.30
1402.00,90.03
1401.00,90.68
1400.00,91.28
1399.00,91.83
1398.00,92.28
1397.00,92.63
1396.00,92.89
1395.00,93.12
1394.00,93.30
1393.00,93.43
1392.00,93.50
1391.00,93.54
1390.00,93.57
1389.00,93.58
1388.00,93.58
1387.00,93.57
1386.00,93.56
1385.00,93.55
1384.00,93.56
1383.00,93.58
1382.00,93.61
1381.00,93.65
1380.00,93.67
1379.00,93.67
1378.00,93.67
1377.00,93.65
1376.00,93.62
1375.00,93.57
1374.00,93.51
1373.00,93.44
1372.00,93.39
1371.00,93.39
1370.00,93.43
1369.00,93.52
1368.00,93.67
1367.00,93.85
1366.00,94.06
1365.00,94.28
1364.00,94.52
1363.00,94.74
1362.00,94.94
1361.00,95.08
1360.00,95.17
1359.00,95.21
1358.00,95.23
1357.00,95.21
1356.00,95.17
1355.00,95.08
1354.00,94.96
1353.00,94.77
1352.00,94.50
1351.00,94.14
1350.00,93.66
1349.00,93.02
1348.00,92.23
1347.00,91.28
1346.00,90.20
1345.00,89.01
1344.00,87.82
1343.00,86.72
1342.00,85.80
1341.00,85.15
1340.00,84.85
1339.00,84.94
1338.00,85.43
1337.00,86.22
1336.00,87.23
1335.00,88.37
1334.00,89.55
1333.00,90.68
1332.00,91.70
1331.00,92.55
1330.00,93.23
1329.00,93.74
1328.00,94.10
1327.00,94.34
1326.00,94.47
1325.00,94.54
1324.00,94.56
1323.00,94.55
1322.00,94.51
1321.00,94.45
1320.00,94.36
1319.00,94.25
1318.00,94.13
1317.00,94.01
1316.00,93.88
1315.00,93.73
1314.00,93.56
1313.00,93.36
1312.00,93.14
1311.00,92.91
1310.00,92.66
1309.00,92.41
1308.00,92.16
1307.00,91.91
1306.00,91.64
1305.00,91.36
1304.00,91.05
1303.00,90.71
1302.00,90.33
1301.00,89.91
1300.00,89.45
1299.00,88.95
1298.00,88.43
1297.00,87.88
1296.00,87.32
1295.00,86.77
1294.00,86.23
1293.00,85.69
1292.00,85.17
1291.00,84.66
1290.00,84.17
1289.00,83.69
1288.00,83.22
1287.00,82.74
1286.00,82.27
1285.00,81.80
1284.00,81.33
1283.00,80.87
1282.00,80.41
1281.00,79.93
1280.00,79.44
1279.00,78.95
1278.00,78.47
1277.00,77.98
1276.00,77.47
1275.00,76.96
1274.00,76.43
1273.00,75.87
1272.00,75.28
1271.00,74.67
1270.00,74.05
1269.00,73.41
1268.00,72.76
1267.00,72.13
1266.00,71.53
1265.00,70.96
1264.00,70.43
1263.00,69.95
1262.00,69.54
1261.00,69.17
1260.00,68.85
1259.00,68.57
1258.00,68.33
1257.00,68.08
1256.00,67.81
1255.00,67.52
1254.00,67.22
1253.00,66.91
1252.00,66.56
1251.00,66.21
1250.00,65.85
1249.00,65.47
1248.00,65.08
1247.00,64.72
1246.00,64.41
1245.00,64.14
1244.00,63.92
1243.00,63.77
1242.00,63.70
1241.00,63.73
1240.00,63.86
1239.00,64.11
1238.00,64.48
1237.00,64.96
1236.00,65.55
1235.00,66.24
1234.00,67.02
1233.00,67.82
1232.00,68.62
1231.00,69.40
1230.00,70.16
1229.00,70.86
1228.00,71.51
1227.00,72.13
1226.00,72.71
1225.00,73.26
1224.00,73.77
1223.00,74.29
1222.00,74.81
1221.00,75.36
1220.00,75.94
1219.00,76.55
1218.00,77.16
1217.00,77.76
1216.00,78.31
1215.00,78.83
1214.00,79.34
1213.00,79.82
1212.00,80.29
1211.00,80.74
1210.00,81.19
1209.00,81.61
1208.00,82.01
1207.00,82.39
1206.00,82.78
1205.00,83.16
1204.00,83.54
1203.00,83.93
1202.00,84.31
1201.00,84.67
1200.00,85.04
1199.00,85.41
1198.00,85.79
1197.00,86.16
1196.00,86.51
1195.00,86.84
1194.00,87.16
1193.00,87.47
1192.00,87.77
1191.00,88.04
1190.00,88.29
1189.00,88.51
1188.00,88.71
1187.00,88.89
1186.00,89.04
1185.00,89.15
1184.00,89.22
1183.00,89.28
1182.00,89.30
1181.00,89.30
1180.00,89.25
1179.00,89.20
1178.00,89.14
1177.00,89.12
1176.00,89.13
1175.00,89.19
1174.00,89.28
1173.00,89.43
1172.00,89.63
1171.00,89.90
1170.00,90.21
1169.00,90.54
1168.00,90.86
1167.00,91.14
1166.00,91.36
1165.00,91.51
1164.00,91.62
1163.00,91.69
1162.00,91.73
1161.00,91.73
1160.00,91.71
1159.00,91.68
1158.00,91.63
1157.00,91.56
1156.00,91.44
1155.00,91.29
1154.00,91.13
1153.00,90.98
1152.00,90.83
1151.00,90.64
1150.00,90.40
1149.00,90.09
1148.00,89.72
1147.00,89.34
1146.00,88.94
1145.00,88.53
1144.00,88.06
1143.00,87.54
1142.00,86.95
1141.00,86.31
1140.00,85.61
1139.00,84.87
1138.00,84.07
1137.00,83.23
1136.00,82.34
1135.00,81.43
1134.00,80.49
1133.00,79.53
1132.00,78.56
1131.00,77.63
1130.00,76.76
1129.00,75.96
1128.00,75.22
1127.00,74.53
1126.00,73.88
1125.00,73.28
1124.00,72.75
1123.00,72.31
1122.00,71.96
1121.00,71.67
1120.00,71.44
1119.00,71.29
1118.00,71.22
1117.00,71.21
1116.00,71.23
1115.00,71.25
1114.00,71.25
1113.00,71.18
1112.00,71.04
1111.00,70.83
1110.00,70.54
1109.00,70.16
1108.00,69.68
1107.00,69.14
1106.00,68.59
1105.00,68.02
1104.00,67.45
1103.00,66.92
1102.00,66.43
1101.00,65.99
1100.00,65.60
1099.00,65.29
1098.00,65.07
1097.00,64.91
1096.00,64.81
1095.00,64.77
1094.00,64.80
1093.00,64.88
1092.00,65.01
1091.00,65.23
1090.00,65.50
1089.00,65.79
1088.00,66.08
1087.00,66.39
1086.00,66.73
1085.00,67.10
1084.00,67.52
1083.00,68.02
1082.00,68.62
1081.00,69.25
1080.00,69.92
1079.00,70.63
1078.00,71.38
1077.00,72.12
1076.00,72.85
1075.00,73.57
1074.00,74.27
1073.00,74.94
1072.00,75.55
1071.00,76.12
1070.00,76.69
1069.00,77.22
1068.00,77.72
1067.00,78.20
1066.00,78.64
1065.00,79.04
1064.00,79.39
1063.00,79.72
1062.00,80.06
1061.00,80.40
1060.00,80.69
1059.00,80.93
1058.00,81.12
1057.00,81.27
1056.00,81.39
1055.00,81.48
1054.00,81.54
1053.00,81.58
1052.00,81.61
1051.00,81.62
1050.00,81.62
1049.00,81.59
1048.00,81.55
1047.00,81.53
1046.00,81.53
1045.00,81.52
1044.00,81.52
1043.00,81.55
1042.00,81.64
1041.00,81.76
1040.00,81.91
1039.00,82.08
1038.00,82.27
1037.00,82.50
1036.00,82.77
1035.00,83.06
1034.00,83.36
1033.00,83.64
1032.00,83.89
1031.00,84.10
1030.00,84.22
1029.00,84.17
1028.00,83.81
1027.00,83.06
1026.00,81.91
1025.00,80.51
1024.00,79.04
1023.00,77.66
1022.00,76.40
1021.00,75.23
1020.00,74.12
1019.00,73.18
1018.00,72.55
1017.00,72.38
1016.00,72.74
1015.00,73.59
1014.00,74.77
1013.00,76.07
1012.00,77.32
1011.00,78.43
1010.00,79.38
1009.00,80.17
1008.00,80.86
1007.00,81.46
1006.00,82.00
1005.00,82.45
1004.00,82.83
1003.00,83.14
1002.00,83.41
1001.00,83.64
1000.00,83.86
999.00,84.08
998.00,84.28
997.00,84.45
996.00,84.58
995.00,84.71
994.00,84.83
993.00,84.92
992.00,84.96
991.00,84.97
990.00,84.96
989.00,84.97
988.00,85.00
987.00,85.05
986.00,85.10
985.00,85.13
984.00,85.15
983.00,85.12
982.00,85.05
981.00,84.91
980.00,84.72
979.00,84.49
978.00,84.23
977.00,83.93
976.00,83.61
975.00,83.27
974.00,82.96
973.00,82.68
972.00,82.47
971.00,82.36
970.00,82.36
969.00,82.46
968.00,82.63
967.00,82.85
966.00,83.10
965.00,83.38
964.00,83.68
963.00,83.97
962.00,84.26
961.00,84.54
960.00,84.80
959.00,85.05
958.00,85.26
957.00,85.45
956.00,85.63
955.00,85.80
954.00,85.97
953.00,86.13
952.00,86.26
951.00,86.38
950.00,86.49
949.00,86.60
948.00,86.71
947.00,86.82
946.00,86.93
945.00,87.04
944.00,87.13
943.00,87.22
942.00,87.31
941.00,87.41
940.00,87.50
939.00,87.58
938.00,87.66
937.00,87.73
936.00,87.79
935.00,87.85
934.00,87.91
933.00,87.98
932.00,88.06
931.00,88.14
930.00,88.23
929.00,88.31
928.00,88.38
927.00,88.44
926.00,88.49
925.00,88.54
924.00,88.60
923.00,88.68
922.00,88.76
921.00,88.83
920.00,88.88
919.00,88.90
918.00,88.92
917.00,88.92
916.00,88.93
915.00,88.95
914.00,88.94
913.00,88.92
912.00,88.89
911.00,88.86
910.00,88.82
909.00,88.75
908.00,88.65
907.00,88.51
906.00,88.37
905.00,88.22
904.00,88.09
903.00,87.97
902.00,87.87
901.00,87.78
900.00,87.71
899.00,87.67
898.00,87.64
897.00,87.63
896.00,87.66
895.00,87.71
894.00,87.77
893.00,87.83
892.00,87.85
891.00,87.87
890.00,87.89
889.00,87.89
888.00,87.87
887.00,87.78
886.00,87.62
885.00,87.40
884.00,87.10
883.00,86.73
882.00,86.28
881.00,85.77
880.00,85.17
879.00,84.49
878.00,83.69
877.00,82.70
876.00,81.45
875.00,79.92
874.00,78.28
873.00,76.92
872.00,76.27
871.00,76.58
870.00,77.65
869.00,79.08
868.00,80.48
867.00,81.65
866.00,82.56
865.00,83.22
864.00,83.68
863.00,83.98
862.00,84.17
861.00,84.26
860.00,84.26
859.00,84.19
858.00,84.08
857.00,83.93
856.00,83.78
855.00,83.63
854.00,83.48
853.00,83.29
852.00,83.06
851.00,82.77
850.00,82.45
849.00,82.15
848.00,81.91
847.00,81.79
846.00,81.82
845.00,81.98
844.00,82.26
843.00,82.60
842.00,82.97
841.00,83.34
840.00,83.70
839.00,84.04
838.00,84.37
837.00,84.66
836.00,84.92
835.00,85.18
834.00,85.45
833.00,85.71
832.00,85.93
831.00,86.13
830.00,86.31
829.00,86.50
828.00,86.68
827.00,86.84
826.00,86.97
825.00,87.10
824.00,87.25
823.00,87.41
822.00,87.56
821.00,87.67
820.00,87.74
819.00,87.79
818.00,87.83
817.00,87.86
816.00,87.90
815.00,87.94
814.00,88.01
813.00,88.07
812.00,88.10
811.00,88.10
810.00,88.08
809.00,88.07
808.00,88.08
807.00,88.11
806.00,88.15
805.00,88.19
804.00,88.22
803.00,88.26
802.00,88.31
801.00,88.34
800.00,88.33
799.00,88.26
798.00,88.08
797.00,87.78
796.00,87.40
795.00,86.99
794.00,86.65
793.00,86.47
792.00,86.47
791.00,86.63
790.00,86.90
789.00,87.19
788.00,87.47
787.00,87.75
786.00,88.03
785.00,88.31
784.00,88.57
783.00,88.82
782.00,89.05
781.00,89.26
780.00,89.43
779.00,89.58
778.00,89.71
777.00,89.82
776.00,89.94
775.00,90.08
774.00,90.22
773.00,90.34
772.00,90.47
771.00,90.61
770.00,90.78
769.00,90.95
768.00,91.11
767.00,91.27
766.00,91.42
765.00,91.55
764.00,91.69
763.00,91.83
762.00,91.97
761.00,92.09
760.00,92.17
759.00,92.25
758.00,92.34
757.00,92.45
756.00,92.58
755.00,92.72
754.00,92.85
753.00,92.98
752.00,93.09
751.00,93.22
750.00,93.33
749.00,93.43
748.00,93.48
747.00,93.49
746.00,93.46
745.00,93.36
744.00,93.14
743.00,92.76
742.00,92.18
741.00,91.36
740.00,90.25
739.00,88.86
738.00,87.20
737.00,85.27
736.00,83.14
735.00,80.90
734.00,78.63
733.00,76.34
732.00,74.02
731.00,71.65
730.00,69.26
729.00,66.85
728.00,64.44
727.00,62.11
726.00,59.95
725.00,58.09
724.00,56.70
723.00,55.88
722.00,55.68
721.00,56.04
720.00,56.89
719.00,58.15
718.00,59.69
717.00,61.33
716.00,62.97
715.00,64.51
714.00,65.92
713.00,67.16
712.00,68.24
711.00,69.19
710.00,70.07
709.00,70.89
708.00,71.65
707.00,72.35
706.00,72.99
705.00,73.55
704.00,74.06
703.00,74.58
702.00,75.14
701.00,75.74
700.00,76.36
699.00,76.98
698.00,77.57
697.00,78.13
696.00,78.66
695.00,79.14
694.00,79.56
693.00,79.89
692.00,80.17
691.00,80.44
690.00,80.74
689.00,81.01
688.00,81.22
687.00,81.36
686.00,81.47
685.00,81.57
684.00,81.67
683.00,81.76
682.00,81.86
681.00,81.94
680.00,82.02
679.00,82.10
678.00,82.24
677.00,82.45
676.00,82.71
675.00,82.96
674.00,83.15
673.00,83.26
672.00,83.28
671.00,83.25
670.00,83.24
669.00,83.34
668.00,83.60
667.00,83.91
666.00,84.13
665.00,84.26
664.00,84.37
663.00,84.50
662.00,84.64
661.00,84.74
660.00,84.81
659.00,84.88
658.00,84.98
657.00,85.11
656.00,85.24
655.00,85.35
654.00,85.41
653.00,85.45
652.00,85.48
651.00,85.53
650.00,85.57
649.00,85.58
648.00,85.54
647.00,85.48
646.00,85.43
645.00,85.43
644.00,85.52
643.00,85.67
642.00,85.82
641.00,85.91
640.00,85.94
639.00,85.98
638.00,86.01
637.00,86.01
636.00,85.93
635.00,85.77
634.00,85.51
633.00,85.20
632.00,84.93
631.00,84.88
630.00,85.08
629.00,85.39
628.00,85.60
627.00,85.67
626.00,85.71
625.00,85.91
624.00,86.25
623.00,86.58
622.00,86.67
621.00,86.47
620.00,86.16
619.00,85.99
618.00,86.05
617.00,86.22
616.00,86.39
615.00,86.50
614.00,86.57
613.00,86.63
612.00,86.73
611.00,86.88
610.00,86.99
609.00,87.02
608.00,87.05
607.00,87.16
606.00,87.25
605.00,87.14
604.00,86.76
603.00,86.21
602.00,85.68
601.00,85.36
600.00,85.41
599.00,85.81
598.00,86.33
597.00,86.68
596.00,86.81
595.00,86.90
594.00,87.10
593.00,87.32
592.00,87.40
591.00,87.37
590.00,87.40
589.00,87.65
588.00,88.08
587.00,88.48
586.00,88.58
585.00,88.31
584.00,87.89
583.00,87.58
582.00,87.44
581.00,87.23
580.00,86.83
579.00,86.39
578.00,86.18
577.00,86.32
576.00,86.74
575.00,87.25
574.00,87.56
573.00,87.54
572.00,87.35
571.00,87.23
570.00,87.09
569.00,86.73
568.00,86.35
567.00,86.42
566.00,86.98
565.00,87.43
564.00,87.33
563.00,86.94
562.00,86.87
561.00,87.25
560.00,87.73
559.00,87.89
558.00,87.66
557.00,87.24
556.00,86.90
555.00,86.75
554.00,86.82
553.00,87.03
552.00,87.35
551.00,87.61
550.00,87.67
