Created as New Dataset,146. Fiber Extrusion
cm-1,%T
4000.00,100.04
3999.00,100.05
3998.00,100.05
3997.00,100.05
3996.00,100.04
3995.00,100.01
3994.00,99.97
3993.00,99.95
3992.00,99.94
3991.00,99.96
3990.00,99.99
3989.00,100.01
3988.00,100.03
3987.00,100.03
3986.00,100.02
3985.00,100.00
3984.00,99.98
3983.00,99.96
3982.00,99.95
3981.00,99.94
3980.00,99.93
3979.00,99.92
3978.00,99.91
3977.00,99.91
3976.00,99.93
3975.00,99.95
3974.00,99.98
3973.00,100.00
3972.00,100.01
3971.00,100.00
3970.00,99.98
3969.00,99.96
3968.00,99.94
3967.00,99.93
3966.00,99.93
3965.00,99.94
3964.00,99.96
3963.00,99.98
3962.00,100.00
3961.00,100.01
3960.00,100.02
3959.00,100.02
3958.00,100.02
3957.00,100.03
3956.00,100.03
3955.00,100.03
3954.00,100.03
3953.00,100.02
3952.00,100.00
3951.00,99.99
3950.00,99.98
3949.00,99.99
3948.00,100.00
3947.00,100.02
3946.00,100.03
3945.00,100.02
3944.00,99.99
3943.00,99.97
3942.00,99.95
3941.00,99.94
3940.00,99.95
3939.00,99.96
3938.00,99.97
3937.00,99.98
3936.00,99.98
3935.00,99.97
3934.00,99.93
3933.00,99.90
3932.00,99.88
3931.00,99.89
3930.00,99.91
3929.00,99.92
3928.00,99.92
3927.00,99.91
3926.00,99.89
3925.00,99.88
3924.00,99.88
3923.00,99.90
3922.00,99.91
3921.00,99.92
3920.00,99.92
3919.00,99.91
3918.00,99.90
3917.00,99.90
3916.00,99.90
3915.00,99.92
3914.00,99.92
3913.00,99.93
3912.00,99.93
3911.00,99.92
3910.00,99.93
3909.00,99.93
3908.00,99.92
3907.00,99.92
3906.00,99.92
3905.00,99.92
3904.00,99.93
3903.00,99.94
3902.00,99.94
3901.00,99.93
3900.00,99.92
3899.00,99.92
3898.00,99.94
3897.00,99.95
3896.00,99.96
3895.00,99.97
3894.00,99.96
3893.00,99.95
3892.00,99.94
3891.00,99.95
3890.00,99.96
3889.00,99.97
3888.00,99.96
3887.00,99.94
3886.00,99.93
3885.00,99.92
3884.00,99.93
3883.00,99.93
3882.00,99.93
3881.00,99.92
3880.00,99.93
3879.00,99.94
3878.00,99.95
3877.00,99.95
3876.00,99.93
3875.00,99.92
3874.00,99.91
3873.00,99.93
3872.00,99.94
3871.00,99.93
3870.00,99.91
3869.00,99.89
3868.00,99.89
3867.00,99.88
3866.00,99.87
3865.00,99.87
3864.00,99.87
3863.00,99.87
3862.00,99.88
3861.00,99.88
3860.00,99.89
3859.00,99.90
3858.00,99.89
3857.00,99.88
3856.00,99.87
3855.00,99.85
3854.00,99.84
3853.00,99.84
3852.00,99.84
3851.00,99.82
3850.00,99.79
3849.00,99.78
3848.00,99.80
3847.00,99.84
3846.00,99.87
3845.00,99.90
3844.00,99.91
3843.00,99.91
3842.00,99.90
3841.00,99.90
3840.00,99.89
3839.00,99.88
3838.00,99.87
3837.00,99.85
3836.00,99.82
3835.00,99.80
3834.00,99.79
3833.00,99.80
3832.00,99.82
3831.00,99.84
3830.00,99.85
3829.00,99.85
3828.00,99.85
3827.00,99.84
3826.00,99.84
3825.00,99.84
3824.00,99.84
3823.00,99.82
3822.00,99.79
3821.00,99.77
3820.00,99.76
3819.00,99.76
3818.00,99.74
3817.00,99.73
3816.00,99.73
3815.00,99.75
3814.00,99.77
3813.00,99.78
3812.00,99.79
3811.00,99.80
3810.00,99.82
3809.00,99.82
3808.00,99.81
3807.00,99.81
3806.00,99.81
3805.00,99.83
3804.00,99.84
3803.00,99.81
3802.00,99.77
3801.00,99.72
3800.00,99.71
3799.00,99.71
3798.00,99.73
3797.00,99.75
3796.00,99.79
3795.00,99.81
3794.00,99.81
3793.00,99.80
3792.00,99.80
3791.00,99.82
3790.00,99.83
3789.00,99.84
3788.00,99.84
3787.00,99.83
3786.00,99.82
3785.00,99.80
3784.00,99.80
3783.00,99.81
3782.00,99.82
3781.00,99.82
3780.00,99.83
3779.00,99.82
3778.00,99.80
3777.00,99.78
3776.00,99.76
3775.00,99.74
3774.00,99.73
3773.00,99.74
3772.00,99.74
3771.00,99.73
3770.00,99.73
3769.00,99.73
3768.00,99.74
3767.00,99.74
3766.00,99.75
3765.00,99.76
3764.00,99.75
3763.00,99.73
3762.00,99.71
3761.00,99.70
3760.00,99.71
3759.00,99.73
3758.00,99.73
3757.00,99.73
3756.00,99.73
3755.00,99.73
3754.00,99.73
3753.00,99.72
3752.00,99.71
3751.00,99.70
3750.00,99.70
3749.00,99.71
3748.00,99.72
3747.00,99.73
3746.00,99.72
3745.00,99.68
3744.00,99.66
3743.00,99.69
3742.00,99.72
3741.00,99.74
3740.00,99.76
3739.00,99.78
3738.00,99.79
3737.00,99.79
3736.00,99.76
3735.00,99.73
3734.00,99.71
3733.00,99.69
3732.00,99.66
3731.00,99.65
3730.00,99.65
3729.00,99.66
3728.00,99.68
3727.00,99.70
3726.00,99.71
3725.00,99.70
3724.00,99.69
3723.00,99.69
3722.00,99.69
3721.00,99.70
3720.00,99.69
3719.00,99.68
3718.00,99.67
3717.00,99.66
3716.00,99.65
3715.00,99.65
3714.00,99.65
3713.00,99.65
3712.00,99.63
3711.00,99.61
3710.00,99.59
3709.00,99.56
3708.00,99.56
3707.00,99.56
3706.00,99.57
3705.00,99.59
3704.00,99.60
3703.00,99.61
3702.00,99.62
3701.00,99.63
3700.00,99.65
3699.00,99.66
3698.00,99.66
3697.00,99.65
3696.00,99.65
3695.00,99.65
3694.00,99.65
3693.00,99.65
3692.00,99.64
3691.00,99.61
3690.00,99.57
3689.00,99.52
3688.00,99.50
3687.00,99.50
3686.00,99.52
3685.00,99.54
3684.00,99.56
3683.00,99.57
3682.00,99.59
3681.00,99.60
3680.00,99.62
3679.00,99.64
3678.00,99.65
3677.00,99.61
3676.00,99.54
3675.00,99.48
3674.00,99.45
3673.00,99.45
3672.00,99.44
3671.00,99.41
3670.00,99.40
3669.00,99.40
3668.00,99.42
3667.00,99.44
3666.00,99.45
3665.00,99.46
3664.00,99.47
3663.00,99.47
3662.00,99.47
3661.00,99.48
3660.00,99.48
3659.00,99.49
3658.00,99.49
3657.00,99.49
3656.00,99.47
3655.00,99.45
3654.00,99.43
3653.00,99.41
3652.00,99.39
3651.00,99.38
3650.00,99.36
3649.00,99.32
3648.00,99.28
3647.00,99.26
3646.00,99.26
3645.00,99.28
3644.00,99.30
3643.00,99.30
3642.00,99.30
3641.00,99.29
3640.00,99.29
3639.00,99.29
3638.00,99.29
3637.00,99.29
3636.00,99.29
3635.00,99.28
3634.00,99.29
3633.00,99.31
3632.00,99.33
3631.00,99.34
3630.00,99.33
3629.00,99.32
3628.00,99.32
3627.00,99.33
3626.00,99.33
3625.00,99.33
3624.00,99.32
3623.00,99.32
3622.00,99.32
3621.00,99.34
3620.00,99.36
3619.00,99.39
3618.00,99.41
3617.00,99.41
3616.00,99.40
3615.00,99.38
3614.00,99.36
3613.00,99.34
3612.00,99.31
3611.00,99.28
3610.00,99.25
3609.00,99.25
3608.00,99.28
3607.00,99.32
3606.00,99.35
3605.00,99.36
3604.00,99.37
3603.00,99.37
3602.00,99.36
3601.00,99.35
3600.00,99.33
3599.00,99.32
3598.00,99.30
3597.00,99.29
3596.00,99.29
3595.00,99.30
3594.00,99.31
3593.00,99.33
3592.00,99.36
3591.00,99.38
3590.00,99.41
3589.00,99.43
3588.00,99.44
3587.00,99.43
3586.00,99.41
3585.00,99.39
3584.00,99.36
3583.00,99.33
3582.00,99.31
3581.00,99.30
3580.00,99.30
3579.00,99.32
3578.00,99.33
3577.00,99.33
3576.00,99.34
3575.00,99.34
3574.00,99.33
3573.00,99.32
3572.00,99.31
3571.00,99.30
3570.00,99.28
3569.00,99.27
3568.00,99.26
3567.00,99.26
3566.00,99.26
3565.00,99.25
3564.00,99.24
3563.00,99.22
3562.00,99.21
3561.00,99.20
3560.00,99.19
3559.00,99.19
3558.00,99.20
3557.00,99.20
3556.00,99.20
3555.00,99.19
3554.00,99.17
3553.00,99.17
3552.00,99.17
3551.00,99.18
3550.00,99.20
3549.00,99.21
3548.00,99.22
3547.00,99.22
3546.00,99.21
3545.00,99.20
3544.00,99.20
3543.00,99.22
3542.00,99.23
3541.00,99.23
3540.00,99.22
3539.00,99.21
3538.00,99.19
3537.00,99.19
3536.00,99.19
3535.00,99.21
3534.00,99.23
3533.00,99.26
3532.00,99.28
3531.00,99.29
3530.00,99.29
3529.00,99.28
3528.00,99.27
3527.00,99.26
3526.00,99.26
3525.00,99.28
3524.00,99.30
3523.00,99.31
3522.00,99.31
3521.00,99.28
3520.00,99.26
3519.00,99.25
3518.00,99.28
3517.00,99.31
3516.00,99.33
3515.00,99.34
3514.00,99.33
3513.00,99.33
3512.00,99.34
3511.00,99.35
3510.00,99.37
3509.00,99.36
3508.00,99.34
3507.00,99.31
3506.00,99.30
3505.00,99.30
3504.00,99.32
3503.00,99.33
3502.00,99.32
3501.00,99.32
3500.00,99.31
3499.00,99.31
3498.00,99.32
3497.00,99.33
3496.00,99.34
3495.00,99.34
3494.00,99.32
3493.00,99.30
3492.00,99.28
3491.00,99.27
3490.00,99.28
3489.00,99.30
3488.00,99.31
3487.00,99.31
3486.00,99.30
3485.00,99.28
3484.00,99.28
3483.00,99.29
3482.00,99.29
3481.00,99.30
3480.00,99.30
3479.00,99.29
3478.00,99.28
3477.00,99.28
3476.00,99.28
3475.00,99.28
3474.00,99.29
3473.00,99.29
3472.00,99.29
3471.00,99.28
3470.00,99.28
3469.00,99.28
3468.00,99.27
3467.00,99.26
3466.00,99.23
3465.00,99.20
3464.00,99.19
3463.00,99.20
3462.00,99.22
3461.00,99.24
3460.00,99.25
3459.00,99.23
3458.00,99.21
3457.00,99.17
3456.00,99.15
3455.00,99.14
3454.00,99.13
3453.00,99.13
3452.00,99.13
3451.00,99.12
3450.00,99.10
3449.00,99.09
3448.00,99.07
3447.00,99.05
3446.00,99.03
3445.00,99.02
3444.00,99.00
3443.00,98.99
3442.00,98.98
3441.00,98.98
3440.00,98.97
3439.00,98.97
3438.00,98.97
3437.00,98.95
3436.00,98.93
3435.00,98.89
3434.00,98.86
3433.00,98.85
3432.00,98.86
3431.00,98.89
3430.00,98.91
3429.00,98.92
3428.00,98.91
3427.00,98.91
3426.00,98.91
3425.00,98.92
3424.00,98.93
3423.00,98.95
3422.00,98.97
3421.00,98.99
3420.00,99.01
3419.00,99.03
3418.00,99.05
3417.00,99.07
3416.00,99.10
3415.00,99.13
3414.00,99.16
3413.00,99.18
3412.00,99.20
3411.00,99.21
3410.00,99.22
3409.00,99.21
3408.00,99.19
3407.00,99.17
3406.00,99.17
3405.00,99.19
3404.00,99.21
3403.00,99.24
3402.00,99.26
3401.00,99.27
3400.00,99.26
3399.00,99.26
3398.00,99.25
3397.00,99.25
3396.00,99.25
3395.00,99.25
3394.00,99.24
3393.00,99.24
3392.00,99.24
3391.00,99.22
3390.00,99.21
3389.00,99.21
3388.00,99.22
3387.00,99.25
3386.00,99.28
3385.00,99.30
3384.00,99.30
3383.00,99.31
3382.00,99.31
3381.00,99.30
3380.00,99.29
3379.00,99.29
3378.00,99.29
3377.00,99.28
3376.00,99.26
3375.00,99.24
3374.00,99.24
3373.00,99.25
3372.00,99.28
3371.00,99.32
3370.00,99.34
3369.00,99.34
3368.00,99.32
3367.00,99.29
3366.00,99.28
3365.00,99.28
3364.00,99.28
3363.00,99.28
3362.00,99.27
3361.00,99.25
3360.00,99.24
3359.00,99.23
3358.00,99.24
3357.00,99.26
3356.00,99.28
3355.00,99.29
3354.00,99.30
3353.00,99.30
3352.00,99.31
3351.00,99.31
3350.00,99.30
3349.00,99.28
3348.00,99.25
3347.00,99.23
3346.00,99.23
3345.00,99.23
3344.00,99.23
3343.00,99.23
3342.00,99.22
3341.00,99.22
3340.00,99.24
3339.00,99.26
3338.00,99.27
3337.00,99.27
3336.00,99.25
3335.00,99.24
3334.00,99.24
3333.00,99.26
3332.00,99.29
3331.00,99.31
3330.00,99.30
3329.00,99.29
3328.00,99.27
3327.00,99.26
3326.00,99.26
3325.00,99.27
3324.00,99.27
3323.00,99.26
3322.00,99.25
3321.00,99.23
3320.00,99.21
3319.00,99.20
3318.00,99.20
3317.00,99.21
3316.00,99.23
3315.00,99.25
3314.00,99.25
3313.00,99.25
3312.00,99.24
3311.00,99.25
3310.00,99.26
3309.00,99.27
3308.00,99.27
3307.00,99.27
3306.00,99.27
3305.00,99.28
3304.00,99.28
3303.00,99.26
3302.00,99.24
3301.00,99.23
3300.00,99.21
3299.00,99.21
3298.00,99.20
3297.00,99.21
3296.00,99.21
3295.00,99.22
3294.00,99.23
3293.00,99.23
3292.00,99.23
3291.00,99.24
3290.00,99.25
3289.00,99.26
3288.00,99.26
3287.00,99.26
3286.00,99.26
3285.00,99.27
3284.00,99.28
3283.00,99.30
3282.00,99.30
3281.00,99.29
3280.00,99.26
3279.00,99.24
3278.00,99.23
3277.00,99.22
3276.00,99.22
3275.00,99.24
3274.00,99.26
3273.00,99.28
3272.00,99.29
3271.00,99.28
3270.00,99.26
3269.00,99.24
3268.00,99.23
3267.00,99.23
3266.00,99.24
3265.00,99.24
3264.00,99.24
3263.00,99.24
3262.00,99.25
3261.00,99.27
3260.00,99.28
3259.00,99.27
3258.00,99.25
3257.00,99.23
3256.00,99.21
3255.00,99.20
3254.00,99.20
3253.00,99.21
3252.00,99.21
3251.00,99.20
3250.00,99.20
3249.00,99.21
3248.00,99.22
3247.00,99.23
3246.00,99.23
3245.00,99.22
3244.00,99.22
3243.00,99.22
3242.00,99.21
3241.00,99.21
3240.00,99.22
3239.00,99.22
3238.00,99.23
3237.00,99.23
3236.00,99.23
3235.00,99.21
3234.00,99.19
3233.00,99.19
3232.00,99.19
3231.00,99.20
3230.00,99.21
3229.00,99.21
3228.00,99.20
3227.00,99.20
3226.00,99.19
3225.00,99.18
3224.00,99.17
3223.00,99.16
3222.00,99.15
3221.00,99.14
3220.00,99.13
3219.00,99.13
3218.00,99.14
3217.00,99.15
3216.00,99.17
3215.00,99.19
3214.00,99.19
3213.00,99.19
3212.00,99.19
3211.00,99.18
3210.00,99.18
3209.00,99.17
3208.00,99.18
3207.00,99.19
3206.00,99.19
3205.00,99.18
3204.00,99.17
3203.00,99.17
3202.00,99.16
3201.00,99.16
3200.00,99.16
3199.00,99.17
3198.00,99.18
3197.00,99.20
3196.00,99.21
3195.00,99.20
3194.00,99.18
3193.00,99.16
3192.00,99.15
3191.00,99.16
3190.00,99.17
3189.00,99.18
3188.00,99.19
3187.00,99.20
3186.00,99.20
3185.00,99.20
3184.00,99.20
3183.00,99.19
3182.00,99.19
3181.00,99.19
3180.00,99.19
3179.00,99.18
3178.00,99.17
3177.00,99.17
3176.00,99.16
3175.00,99.16
3174.00,99.15
3173.00,99.14
3172.00,99.13
3171.00,99.13
3170.00,99.13
3169.00,99.13
3168.00,99.13
3167.00,99.14
3166.00,99.14
3165.00,99.13
3164.00,99.13
3163.00,99.13
3162.00,99.14
3161.00,99.15
3160.00,99.15
3159.00,99.15
3158.00,99.16
3157.00,99.16
3156.00,99.17
3155.00,99.16
3154.00,99.15
3153.00,99.13
3152.00,99.12
3151.00,99.11
3150.00,99.11
3149.00,99.12
3148.00,99.13
3147.00,99.14
3146.00,99.13
3145.00,99.11
3144.00,99.10
3143.00,99.10
3142.00,99.10
3141.00,99.10
3140.00,99.09
3139.00,99.07
3138.00,99.06
3137.00,99.07
3136.00,99.08
3135.00,99.09
3134.00,99.08
3133.00,99.06
3132.00,99.03
3131.00,99.01
3130.00,99.00
3129.00,99.00
3128.00,99.01
3127.00,99.03
3126.00,99.04
3125.00,99.04
3124.00,99.03
3123.00,99.02
3122.00,99.01
3121.00,99.00
3120.00,99.00
3119.00,99.00
3118.00,99.00
3117.00,99.00
3116.00,99.01
3115.00,99.00
3114.00,98.99
3113.00,98.97
3112.00,98.94
3111.00,98.90
3110.00,98.87
3109.00,98.86
3108.00,98.86
3107.00,98.86
3106.00,98.86
3105.00,98.85
3104.00,98.82
3103.00,98.81
3102.00,98.82
3101.00,98.85
3100.00,98.87
3099.00,98.89
3098.00,98.91
3097.00,98.91
3096.00,98.91
3095.00,98.90
3094.00,98.88
3093.00,98.87
3092.00,98.86
3091.00,98.84
3090.00,98.82
3089.00,98.80
3088.00,98.78
3087.00,98.77
3086.00,98.76
3085.00,98.77
3084.00,98.78
3083.00,98.79
3082.00,98.79
3081.00,98.77
3080.00,98.76
3079.00,98.74
3078.00,98.74
3077.00,98.75
3076.00,98.76
3075.00,98.77
3074.00,98.77
3073.00,98.76
3072.00,98.76
3071.00,98.74
3070.00,98.73
3069.00,98.73
3068.00,98.74
3067.00,98.76
3066.00,98.77
3065.00,98.76
3064.00,98.74
3063.00,98.73
3062.00,98.73
3061.00,98.73
3060.00,98.74
3059.00,98.75
3058.00,98.74
3057.00,98.73
3056.00,98.72
3055.00,98.71
3054.00,98.70
3053.00,98.71
3052.00,98.73
3051.00,98.77
3050.00,98.82
3049.00,98.87
3048.00,98.90
3047.00,98.92
3046.00,98.92
3045.00,98.93
3044.00,98.94
3043.00,98.96
3042.00,98.97
3041.00,98.97
3040.00,98.96
3039.00,98.95
3038.00,98.95
3037.00,98.96
3036.00,98.97
3035.00,98.98
3034.00,98.98
3033.00,98.98
3032.00,98.96
3031.00,98.94
3030.00,98.92
3029.00,98.91
3028.00,98.91
3027.00,98.91
3026.00,98.90
3025.00,98.88
3024.00,98.85
3023.00,98.83
3022.00,98.81
3021.00,98.80
3020.00,98.79
3019.00,98.77
3018.00,98.75
3017.00,98.71
3016.00,98.67
3015.00,98.63
3014.00,98.59
3013.00,98.58
3012.00,98.59
3011.00,98.60
3010.00,98.59
3009.00,98.57
3008.00,98.53
3007.00,98.49
3006.00,98.45
3005.00,98.41
3004.00,98.39
3003.00,98.37
3002.00,98.35
3001.00,98.34
3000.00,98.33
2999.00,98.31
2998.00,98.30
2997.00,98.28
2996.00,98.26
2995.00,98.24
2994.00,98.21
2993.00,98.19
2992.00,98.16
2991.00,98.14
2990.00,98.11
2989.00,98.08
2988.00,98.05
2987.00,98.03
2986.00,98.01
2985.00,97.98
2984.00,97.95
2983.00,97.91
2982.00,97.86
2981.00,97.80
2980.00,97.74
2979.00,97.68
2978.00,97.62
2977.00,97.57
2976.00,97.50
2975.00,97.44
2974.00,97.39
2973.00,97.34
2972.00,97.30
2971.00,97.26
2970.00,97.22
2969.00,97.20
2968.00,97.18
2967.00,97.17
2966.00,97.18
2965.00,97.19
2964.00,97.21
2963.00,97.23
2962.00,97.24
2961.00,97.26
2960.00,97.28
2959.00,97.30
2958.00,97.32
2957.00,97.36
2956.00,97.41
2955.00,97.46
2954.00,97.51
2953.00,97.55
2952.00,97.57
2951.00,97.59
2950.00,97.62
2949.00,97.67
2948.00,97.72
2947.00,97.76
2946.00,97.80
2945.00,97.84
2944.00,97.88
2943.00,97.93
2942.00,97.97
2941.00,98.01
2940.00,98.04
2939.00,98.06
2938.00,98.08
2937.00,98.09
2936.00,98.10
2935.00,98.12
2934.00,98.13
2933.00,98.14
2932.00,98.15
2931.00,98.15
2930.00,98.15
2929.00,98.15
2928.00,98.14
2927.00,98.14
2926.00,98.14
2925.00,98.12
2924.00,98.10
2923.00,98.08
2922.00,98.07
2921.00,98.07
2920.00,98.07
2919.00,98.07
2918.00,98.06
2917.00,98.04
2916.00,98.02
2915.00,97.99
2914.00,97.95
2913.00,97.91
2912.00,97.88
2911.00,97.86
2910.00,97.85
2909.00,97.84
2908.00,97.84
2907.00,97.85
2906.00,97.86
2905.00,97.88
2904.00,97.91
2903.00,97.94
2902.00,97.97
2901.00,98.01
2900.00,98.05
2899.00,98.08
2898.00,98.10
2897.00,98.12
2896.00,98.13
2895.00,98.13
2894.00,98.14
2893.00,98.13
2892.00,98.13
2891.00,98.13
2890.00,98.13
2889.00,98.14
2888.00,98.16
2887.00,98.18
2886.00,98.21
2885.00,98.22
2884.00,98.22
2883.00,98.21
2882.00,98.21
2881.00,98.22
2880.00,98.23
2879.00,98.24
2878.00,98.26
2877.00,98.28
2876.00,98.30
2875.00,98.33
2874.00,98.34
2873.00,98.34
2872.00,98.34
2871.00,98.33
2870.00,98.33
2869.00,98.34
2868.00,98.34
2867.00,98.32
2866.00,98.30
2865.00,98.29
2864.00,98.28
2863.00,98.29
2862.00,98.30
2861.00,98.31
2860.00,98.32
2859.00,98.34
2858.00,98.35
2857.00,98.37
2856.00,98.39
2855.00,98.40
2854.00,98.41
2853.00,98.43
2852.00,98.46
2851.00,98.49
2850.00,98.51
2849.00,98.53
2848.00,98.54
2847.00,98.56
2846.00,98.59
2845.00,98.62
2844.00,98.65
2843.00,98.66
2842.00,98.67
2841.00,98.67
2840.00,98.67
2839.00,98.67
2838.00,98.68
2837.00,98.69
2836.00,98.71
2835.00,98.73
2834.00,98.74
2833.00,98.74
2832.00,98.75
2831.00,98.76
2830.00,98.77
2829.00,98.79
2828.00,98.81
2827.00,98.84
2826.00,98.87
2825.00,98.89
2824.00,98.90
2823.00,98.90
2822.00,98.89
2821.00,98.87
2820.00,98.86
2819.00,98.86
2818.00,98.86
2817.00,98.86
2816.00,98.85
2815.00,98.85
2814.00,98.85
2813.00,98.85
2812.00,98.85
2811.00,98.85
2810.00,98.84
2809.00,98.82
2808.00,98.82
2807.00,98.82
2806.00,98.82
2805.00,98.84
2804.00,98.85
2803.00,98.86
2802.00,98.87
2801.00,98.87
2800.00,98.87
2799.00,98.87
2798.00,98.87
2797.00,98.87
2796.00,98.87
2795.00,98.87
2794.00,98.87
2793.00,98.88
2792.00,98.89
2791.00,98.91
2790.00,98.91
2789.00,98.91
2788.00,98.90
2787.00,98.89
2786.00,98.89
2785.00,98.89
2784.00,98.89
2783.00,98.90
2782.00,98.91
2781.00,98.93
2780.00,98.96
2779.00,98.98
2778.00,98.99
2777.00,98.99
2776.00,98.98
2775.00,98.96
2774.00,98.96
2773.00,98.96
2772.00,98.97
2771.00,98.98
2770.00,98.99
2769.00,98.99
2768.00,98.98
2767.00,98.97
2766.00,98.97
2765.00,98.98
2764.00,98.98
2763.00,98.99
2762.00,99.00
2761.00,99.00
2760.00,99.01
2759.00,99.00
2758.00,99.00
2757.00,99.00
2756.00,99.00
2755.00,99.00
2754.00,99.00
2753.00,99.00
2752.00,99.00
2751.00,98.98
2750.00,98.97
2749.00,98.95
2748.00,98.94
2747.00,98.94
2746.00,98.95
2745.00,98.96
2744.00,98.96
2743.00,98.96
2742.00,98.95
2741.00,98.94
2740.00,98.94
2739.00,98.94
2738.00,98.95
2737.00,98.96
2736.00,98.97
2735.00,98.98
2734.00,98.99
2733.00,98.98
2732.00,98.97
2731.00,98.96
2730.00,98.96
2729.00,98.96
2728.00,98.97
2727.00,98.98
2726.00,99.00
2725.00,99.01
2724.00,99.01
2723.00,99.01
2722.00,99.01
2721.00,99.01
2720.00,99.01
2719.00,99.01
2718.00,98.99
2717.00,98.98
2716.00,98.98
2715.00,98.97
2714.00,98.97
2713.00,98.97
2712.00,98.98
2711.00,98.99
2710.00,98.99
2709.00,99.00
2708.00,99.01
2707.00,99.01
2706.00,99.02
2705.00,99.02
2704.00,99.03
2703.00,99.03
2702.00,99.04
2701.00,99.04
2700.00,99.04
2699.00,99.04
2698.00,99.04
2697.00,99.05
2696.00,99.05
2695.00,99.05
2694.00,99.05
2693.00,99.05
2692.00,99.04
2691.00,99.04
2690.00,99.05
2689.00,99.05
2688.00,99.05
2687.00,99.04
2686.00,99.03
2685.00,99.03
2684.00,99.04
2683.00,99.04
2682.00,99.04
2681.00,99.03
2680.00,99.02
2679.00,99.02
2678.00,99.02
2677.00,99.03
2676.00,99.04
2675.00,99.04
2674.00,99.04
2673.00,99.03
2672.00,99.02
2671.00,99.02
2670.00,99.01
2669.00,99.01
2668.00,99.01
2667.00,99.02
2666.00,99.03
2665.00,99.04
2664.00,99.04
2663.00,99.02
2662.00,98.99
2661.00,98.96
2660.00,98.94
2659.00,98.92
2658.00,98.92
2657.00,98.93
2656.00,98.93
2655.00,98.94
2654.00,98.95
2653.00,98.95
2652.00,98.94
2651.00,98.94
2650.00,98.93
2649.00,98.92
2648.00,98.91
2647.00,98.90
2646.00,98.89
2645.00,98.88
2644.00,98.88
2643.00,98.88
2642.00,98.87
2641.00,98.86
2640.00,98.84
2639.00,98.83
2638.00,98.82
2637.00,98.82
2636.00,98.81
2635.00,98.81
2634.00,98.80
2633.00,98.78
2632.00,98.77
2631.00,98.75
2630.00,98.74
2629.00,98.72
2628.00,98.70
2627.00,98.69
2626.00,98.69
2625.00,98.70
2624.00,98.71
2623.00,98.72
2622.00,98.72
2621.00,98.72
2620.00,98.73
2619.00,98.74
2618.00,98.73
2617.00,98.72
2616.00,98.70
2615.00,98.69
2614.00,98.68
2613.00,98.67
2612.00,98.67
2611.00,98.68
2610.00,98.70
2609.00,98.72
2608.00,98.72
2607.00,98.71
2606.00,98.68
2605.00,98.65
2604.00,98.63
2603.00,98.62
2602.00,98.63
2601.00,98.65
2600.00,98.65
2599.00,98.65
2598.00,98.63
2597.00,98.62
2596.00,98.62
2595.00,98.62
2594.00,98.63
2593.00,98.63
2592.00,98.60
2591.00,98.56
2590.00,98.53
2589.00,98.51
2588.00,98.51
2587.00,98.51
2586.00,98.51
2585.00,98.50
2584.00,98.50
2583.00,98.50
2582.00,98.50
2581.00,98.50
2580.00,98.50
2579.00,98.50
2578.00,98.50
2577.00,98.50
2576.00,98.51
2575.00,98.53
2574.00,98.53
2573.00,98.51
2572.00,98.48
2571.00,98.47
2570.00,98.47
2569.00,98.48
2568.00,98.48
2567.00,98.47
2566.00,98.46
2565.00,98.46
2564.00,98.47
2563.00,98.48
2562.00,98.49
2561.00,98.49
2560.00,98.49
2559.00,98.49
2558.00,98.49
2557.00,98.49
2556.00,98.48
2555.00,98.47
2554.00,98.47
2553.00,98.46
2552.00,98.45
2551.00,98.44
2550.00,98.45
2549.00,98.46
2548.00,98.46
2547.00,98.45
2546.00,98.45
2545.00,98.44
2544.00,98.43
2543.00,98.42
2542.00,98.41
2541.00,98.41
2540.00,98.42
2539.00,98.42
2538.00,98.42
2537.00,98.41
2536.00,98.42
2535.00,98.43
2534.00,98.45
2533.00,98.45
2532.00,98.45
2531.00,98.43
2530.00,98.42
2529.00,98.42
2528.00,98.44
2527.00,98.46
2526.00,98.47
2525.00,98.47
2524.00,98.45
2523.00,98.43
2522.00,98.41
2521.00,98.40
2520.00,98.40
2519.00,98.40
2518.00,98.41
2517.00,98.43
2516.00,98.45
2515.00,98.47
2514.00,98.49
2513.00,98.49
2512.00,98.48
2511.00,98.46
2510.00,98.44
2509.00,98.43
2508.00,98.43
2507.00,98.45
2506.00,98.47
2505.00,98.48
2504.00,98.47
2503.00,98.46
2502.00,98.45
2501.00,98.45
2500.00,98.46
2499.00,98.47
2498.00,98.48
2497.00,98.48
2496.00,98.48
2495.00,98.48
2494.00,98.48
2493.00,98.47
2492.00,98.45
2491.00,98.43
2490.00,98.42
2489.00,98.43
2488.00,98.45
2487.00,98.48
2486.00,98.49
2485.00,98.49
2484.00,98.50
2483.00,98.50
2482.00,98.49
2481.00,98.47
2480.00,98.46
2479.00,98.46
2478.00,98.48
2477.00,98.50
2476.00,98.52
2475.00,98.52
2474.00,98.51
2473.00,98.50
2472.00,98.49
2471.00,98.50
2470.00,98.51
2469.00,98.53
2468.00,98.54
2467.00,98.55
2466.00,98.55
2465.00,98.55
2464.00,98.55
2463.00,98.53
2462.00,98.51
2461.00,98.50
2460.00,98.50
2459.00,98.51
2458.00,98.52
2457.00,98.52
2456.00,98.51
2455.00,98.51
2454.00,98.51
2453.00,98.51
2452.00,98.51
2451.00,98.50
2450.00,98.48
2449.00,98.47
2448.00,98.46
2447.00,98.47
2446.00,98.49
2445.00,98.50
2444.00,98.50
2443.00,98.48
2442.00,98.47
2441.00,98.47
2440.00,98.47
2439.00,98.48
2438.00,98.48
2437.00,98.48
2436.00,98.48
2435.00,98.47
2434.00,98.45
2433.00,98.42
2432.00,98.41
2431.00,98.41
2430.00,98.43
2429.00,98.46
2428.00,98.49
2427.00,98.49
2426.00,98.49
2425.00,98.49
2424.00,98.49
2423.00,98.49
2422.00,98.48
2421.00,98.48
2420.00,98.48
2419.00,98.48
2418.00,98.49
2417.00,98.48
2416.00,98.46
2415.00,98.44
2414.00,98.43
2413.00,98.43
2412.00,98.43
2411.00,98.43
2410.00,98.43
2409.00,98.43
2408.00,98.44
2407.00,98.45
2406.00,98.47
2405.00,98.49
2404.00,98.50
2403.00,98.51
2402.00,98.49
2401.00,98.47
2400.00,98.45
2399.00,98.44
2398.00,98.44
2397.00,98.44
2396.00,98.45
2395.00,98.47
2394.00,98.49
2393.00,98.51
2392.00,98.52
2391.00,98.52
2390.00,98.51
2389.00,98.51
2388.00,98.51
2387.00,98.51
2386.00,98.51
2385.00,98.52
2384.00,98.54
2383.00,98.56
2382.00,98.59
2381.00,98.61
2380.00,98.62
2379.00,98.64
2378.00,98.66
2377.00,98.68
2376.00,98.69
2375.00,98.68
2374.00,98.65
2373.00,98.62
2372.00,98.60
2371.00,98.60
2370.00,98.62
2369.00,98.66
2368.00,98.70
2367.00,98.75
2366.00,98.81
2365.00,98.86
2364.00,98.87
2363.00,98.82
2362.00,98.74
2361.00,98.68
2360.00,98.65
2359.00,98.65
2358.00,98.67
2357.00,98.69
2356.00,98.73
2355.00,98.76
2354.00,98.79
2353.00,98.79
2352.00,98.78
2351.00,98.75
2350.00,98.74
2349.00,98.76
2348.00,98.79
2347.00,98.84
2346.00,98.86
2345.00,98.87
2344.00,98.87
2343.00,98.88
2342.00,98.90
2341.00,98.90
2340.00,98.90
2339.00,98.89
2338.00,98.87
2337.00,98.83
2336.00,98.80
2335.00,98.77
2334.00,98.74
2333.00,98.72
2332.00,98.69
2331.00,98.69
2330.00,98.73
2329.00,98.76
2328.00,98.76
2327.00,98.71
2326.00,98.65
2325.00,98.61
2324.00,98.61
2323.00,98.63
2322.00,98.66
2321.00,98.64
2320.00,98.60
2319.00,98.57
2318.00,98.56
2317.00,98.57
2316.00,98.57
2315.00,98.55
2314.00,98.54
2313.00,98.53
2312.00,98.54
2311.00,98.54
2310.00,98.54
2309.00,98.51
2308.00,98.48
2307.00,98.44
2306.00,98.40
2305.00,98.38
2304.00,98.38
2303.00,98.38
2302.00,98.39
2301.00,98.38
2300.00,98.36
2299.00,98.33
2298.00,98.30
2297.00,98.28
2296.00,98.27
2295.00,98.28
2294.00,98.28
2293.00,98.27
2292.00,98.24
2291.00,98.19
2290.00,98.15
2289.00,98.12
2288.00,98.10
2287.00,98.07
2286.00,98.04
2285.00,98.03
2284.00,98.05
2283.00,98.08
2282.00,98.10
2281.00,98.10
2280.00,98.06
2279.00,98.01
2278.00,97.96
2277.00,97.92
2276.00,97.90
2275.00,97.90
2274.00,97.92
2273.00,97.94
2272.00,97.97
2271.00,97.99
2270.00,98.00
2269.00,98.00
2268.00,98.01
2267.00,98.01
2266.00,98.00
2265.00,97.98
2264.00,97.97
2263.00,97.97
2262.00,97.97
2261.00,97.98
2260.00,97.97
2259.00,97.95
2258.00,97.92
2257.00,97.89
2256.00,97.87
2255.00,97.86
2254.00,97.87
2253.00,97.89
2252.00,97.92
2251.00,97.93
2250.00,97.92
2249.00,97.87
2248.00,97.81
2247.00,97.76
2246.00,97.73
2245.00,97.70
2244.00,97.71
2243.00,97.75
2242.00,97.81
2241.00,97.86
2240.00,97.88
2239.00,97.87
2238.00,97.85
2237.00,97.83
2236.00,97.81
2235.00,97.80
2234.00,97.77
2233.00,97.73
2232.00,97.69
2231.00,97.68
2230.00,97.71
2229.00,97.76
2228.00,97.79
2227.00,97.78
2226.00,97.75
2225.00,97.73
2224.00,97.73
2223.00,97.75
2222.00,97.75
2221.00,97.75
2220.00,97.74
2219.00,97.71
2218.00,97.68
2217.00,97.65
2216.00,97.63
2215.00,97.63
2214.00,97.65
2213.00,97.67
2212.00,97.68
2211.00,97.69
2210.00,97.69
2209.00,97.70
2208.00,97.69
2207.00,97.66
2206.00,97.60
2205.00,97.52
2204.00,97.47
2203.00,97.45
2202.00,97.47
2201.00,97.51
2200.00,97.54
2199.00,97.55
2198.00,97.57
2197.00,97.62
2196.00,97.68
2195.00,97.69
2194.00,97.65
2193.00,97.59
2192.00,97.55
2191.00,97.56
2190.00,97.56
2189.00,97.54
2188.00,97.47
2187.00,97.41
2186.00,97.38
2185.00,97.38
2184.00,97.38
2183.00,97.36
2182.00,97.33
2181.00,97.32
2180.00,97.34
2179.00,97.38
2178.00,97.39
2177.00,97.36
2176.00,97.34
2175.00,97.35
2174.00,97.38
2173.00,97.40
2172.00,97.39
2171.00,97.33
2170.00,97.24
2169.00,97.17
2168.00,97.14
2167.00,97.16
2166.00,97.20
2165.00,97.22
2164.00,97.17
2163.00,97.06
2162.00,96.95
2161.00,96.93
2160.00,97.00
2159.00,97.13
2158.00,97.25
2157.00,97.33
2156.00,97.38
2155.00,97.43
2154.00,97.47
2153.00,97.49
2152.00,97.48
2151.00,97.45
2150.00,97.41
2149.00,97.36
2148.00,97.36
2147.00,97.43
2146.00,97.53
2145.00,97.63
2144.00,97.70
2143.00,97.72
2142.00,97.74
2141.00,97.77
2140.00,97.81
2139.00,97.84
2138.00,97.87
2137.00,97.90
2136.00,97.93
2135.00,97.95
2134.00,97.94
2133.00,97.90
2132.00,97.87
2131.00,97.86
2130.00,97.87
2129.00,97.89
2128.00,97.91
2127.00,97.92
2126.00,97.93
2125.00,97.95
2124.00,97.97
2123.00,97.98
2122.00,97.99
2121.00,97.99
2120.00,97.99
2119.00,97.96
2118.00,97.92
2117.00,97.85
2116.00,97.78
2115.00,97.72
2114.00,97.69
2113.00,97.70
2112.00,97.72
2111.00,97.77
2110.00,97.82
2109.00,97.87
2108.00,97.89
2107.00,97.88
2106.00,97.85
2105.00,97.81
2104.00,97.78
2103.00,97.78
2102.00,97.80
2101.00,97.82
2100.00,97.81
2099.00,97.79
2098.00,97.78
2097.00,97.78
2096.00,97.79
2095.00,97.81
2094.00,97.84
2093.00,97.86
2092.00,97.87
2091.00,97.86
2090.00,97.85
2089.00,97.85
2088.00,97.84
2087.00,97.83
2086.00,97.81
2085.00,97.79
2084.00,97.78
2083.00,97.79
2082.00,97.80
2081.00,97.81
2080.00,97.80
2079.00,97.78
2078.00,97.76
2077.00,97.76
2076.00,97.78
2075.00,97.80
2074.00,97.82
2073.00,97.83
2072.00,97.82
2071.00,97.80
2070.00,97.77
2069.00,97.73
2068.00,97.71
2067.00,97.71
2066.00,97.74
2065.00,97.79
2064.00,97.83
2063.00,97.86
2062.00,97.86
2061.00,97.84
2060.00,97.83
2059.00,97.84
2058.00,97.84
2057.00,97.86
2056.00,97.86
2055.00,97.85
2054.00,97.81
2053.00,97.75
2052.00,97.70
2051.00,97.67
2050.00,97.69
2049.00,97.71
2048.00,97.70
2047.00,97.65
2046.00,97.58
2045.00,97.56
2044.00,97.57
2043.00,97.60
2042.00,97.59
2041.00,97.54
2040.00,97.48
2039.00,97.45
2038.00,97.44
2037.00,97.41
2036.00,97.38
2035.00,97.38
2034.00,97.39
2033.00,97.38
2032.00,97.34
2031.00,97.32
2030.00,97.35
2029.00,97.42
2028.00,97.48
2027.00,97.51
2026.00,97.48
2025.00,97.41
2024.00,97.37
2023.00,97.38
2022.00,97.43
2021.00,97.48
2020.00,97.50
2019.00,97.51
2018.00,97.52
2017.00,97.50
2016.00,97.43
2015.00,97.33
2014.00,97.28
2013.00,97.29
2012.00,97.36
2011.00,97.43
2010.00,97.48
2009.00,97.48
2008.00,97.47
2007.00,97.47
2006.00,97.50
2005.00,97.53
2004.00,97.53
2003.00,97.49
2002.00,97.45
2001.00,97.46
2000.00,97.50
1999.00,97.53
1998.00,97.51
1997.00,97.45
1996.00,97.39
1995.00,97.38
1994.00,97.42
1993.00,97.46
1992.00,97.46
1991.00,97.43
1990.00,97.42
1989.00,97.44
1988.00,97.47
1987.00,97.47
1986.00,97.44
1985.00,97.38
1984.00,97.32
1983.00,97.25
1982.00,97.19
1981.00,97.14
1980.00,97.12
1979.00,97.12
1978.00,97.11
1977.00,97.11
1976.00,97.10
1975.00,97.10
1974.00,97.10
1973.00,97.10
1972.00,97.12
1971.00,97.16
1970.00,97.21
1969.00,97.25
1968.00,97.29
1967.00,97.31
1966.00,97.32
1965.00,97.32
1964.00,97.31
1963.00,97.31
1962.00,97.31
1961.00,97.31
1960.00,97.30
1959.00,97.30
1958.00,97.32
1957.00,97.35
1956.00,97.39
1955.00,97.43
1954.00,97.46
1953.00,97.46
1952.00,97.44
1951.00,97.43
1950.00,97.46
1949.00,97.51
1948.00,97.55
1947.00,97.56
1946.00,97.57
1945.00,97.58
1944.00,97.60
1943.00,97.61
1942.00,97.64
1941.00,97.67
1940.00,97.70
1939.00,97.73
1938.00,97.76
1937.00,97.81
1936.00,97.85
1935.00,97.87
1934.00,97.89
1933.00,97.91
1932.00,97.93
1931.00,97.94
1930.00,97.96
1929.00,97.98
1928.00,97.98
1927.00,97.99
1926.00,98.01
1925.00,98.05
1924.00,98.09
1923.00,98.14
1922.00,98.19
1921.00,98.25
1920.00,98.28
1919.00,98.28
1918.00,98.25
1917.00,98.23
1916.00,98.21
1915.00,98.20
1914.00,98.17
1913.00,98.15
1912.00,98.14
1911.00,98.14
1910.00,98.16
1909.00,98.20
1908.00,98.23
1907.00,98.23
1906.00,98.23
1905.00,98.23
1904.00,98.25
1903.00,98.27
1902.00,98.28
1901.00,98.27
1900.00,98.27
1899.00,98.30
1898.00,98.36
1897.00,98.43
1896.00,98.47
1895.00,98.48
1894.00,98.48
1893.00,98.48
1892.00,98.48
1891.00,98.47
1890.00,98.46
1889.00,98.45
1888.00,98.45
1887.00,98.45
1886.00,98.47
1885.00,98.49
1884.00,98.51
1883.00,98.51
1882.00,98.51
1881.00,98.52
1880.00,98.53
1879.00,98.54
1878.00,98.54
1877.00,98.52
1876.00,98.50
1875.00,98.48
1874.00,98.48
1873.00,98.48
1872.00,98.50
1871.00,98.51
1870.00,98.53
1869.00,98.54
1868.00,98.56
1867.00,98.56
1866.00,98.56
1865.00,98.54
1864.00,98.52
1863.00,98.51
1862.00,98.51
1861.00,98.52
1860.00,98.52
1859.00,98.49
1858.00,98.46
1857.00,98.44
1856.00,98.45
1855.00,98.48
1854.00,98.51
1853.00,98.53
1852.00,98.51
1851.00,98.48
1850.00,98.44
1849.00,98.42
1848.00,98.41
1847.00,98.40
1846.00,98.39
1845.00,98.39
1844.00,98.40
1843.00,98.42
1842.00,98.43
1841.00,98.42
1840.00,98.41
1839.00,98.41
1838.00,98.41
1837.00,98.41
1836.00,98.41
1835.00,98.40
1834.00,98.36
1833.00,98.32
1832.00,98.28
1831.00,98.25
1830.00,98.25
1829.00,98.26
1828.00,98.28
1827.00,98.28
1826.00,98.27
1825.00,98.26
1824.00,98.25
1823.00,98.24
1822.00,98.22
1821.00,98.20
1820.00,98.20
1819.00,98.21
1818.00,98.24
1817.00,98.27
1816.00,98.28
1815.00,98.28
1814.00,98.26
1813.00,98.25
1812.00,98.25
1811.00,98.26
1810.00,98.27
1809.00,98.28
1808.00,98.29
1807.00,98.29
1806.00,98.30
1805.00,98.31
1804.00,98.33
1803.00,98.35
1802.00,98.38
1801.00,98.40
1800.00,98.40
1799.00,98.39
1798.00,98.37
1797.00,98.36
1796.00,98.36
1795.00,98.36
1794.00,98.35
1793.00,98.35
1792.00,98.36
1791.00,98.38
1790.00,98.40
1789.00,98.41
1788.00,98.39
1787.00,98.36
1786.00,98.35
1785.00,98.35
1784.00,98.37
1783.00,98.38
1782.00,98.37
1781.00,98.35
1780.00,98.34
1779.00,98.34
1778.00,98.33
1777.00,98.32
1776.00,98.31
1775.00,98.29
1774.00,98.26
1773.00,98.24
1772.00,98.22
1771.00,98.22
1770.00,98.22
1769.00,98.22
1768.00,98.22
1767.00,98.21
1766.00,98.19
1765.00,98.15
1764.00,98.10
1763.00,98.03
1762.00,97.96
1761.00,97.91
1760.00,97.86
1759.00,97.80
1758.00,97.71
1757.00,97.61
1756.00,97.50
1755.00,97.37
1754.00,97.22
1753.00,97.04
1752.00,96.82
1751.00,96.53
1750.00,96.15
1749.00,95.70
1748.00,95.17
1747.00,94.59
1746.00,93.95
1745.00,93.23
1744.00,92.43
1743.00,91.54
1742.00,90.59
1741.00,89.56
1740.00,88.44
1739.00,87.33
1738.00,86.36
1737.00,85.52
1736.00,84.61
1735.00,83.44
1734.00,82.06
1733.00,80.83
1732.00,79.83
1731.00,78.86
1730.00,77.82
1729.00,76.77
1728.00,75.74
1727.00,74.73
1726.00,73.71
1725.00,72.68
1724.00,71.66
1723.00,70.65
1722.00,69.69
1721.00,68.80
1720.00,67.92
1719.00,66.93
1718.00,65.86
1717.00,64.92
1716.00,64.27
1715.00,63.78
1714.00,63.43
1713.00,63.29
1712.00,63.40
1711.00,63.73
1710.00,64.26
1709.00,65.02
1708.00,66.02
1707.00,67.22
1706.00,68.65
1705.00,70.18
1704.00,71.53
1703.00,72.63
1702.00,73.72
1701.00,75.17
1700.00,76.89
1699.00,78.26
1698.00,79.14
1697.00,79.91
1696.00,80.84
1695.00,81.81
1694.00,82.58
1693.00,83.14
1692.00,83.61
1691.00,84.08
1690.00,84.57
1689.00,85.01
1688.00,85.35
1687.00,85.60
1686.00,85.81
1685.00,86.12
1684.00,86.57
1683.00,87.01
1682.00,87.34
1681.00,87.61
1680.00,87.89
1679.00,88.18
1678.00,88.46
1677.00,88.75
1676.00,89.09
1675.00,89.46
1674.00,89.79
1673.00,90.04
1672.00,90.24
1671.00,90.44
1670.00,90.69
1669.00,90.98
1668.00,91.28
1667.00,91.53
1666.00,91.74
1665.00,91.94
1664.00,92.16
1663.00,92.41
1662.00,92.64
1661.00,92.85
1660.00,93.05
1659.00,93.22
1658.00,93.37
1657.00,93.50
1656.00,93.61
1655.00,93.71
1654.00,93.84
1653.00,94.02
1652.00,94.21
1651.00,94.32
1650.00,94.35
1649.00,94.35
1648.00,94.39
1647.00,94.48
1646.00,94.59
1645.00,94.70
1644.00,94.79
1643.00,94.85
1642.00,94.90
1641.00,94.94
1640.00,94.98
1639.00,95.01
1638.00,95.03
1637.00,95.07
1636.00,95.13
1635.00,95.21
1634.00,95.30
1633.00,95.37
1632.00,95.41
1631.00,95.44
1630.00,95.47
1629.00,95.50
1628.00,95.54
1627.00,95.59
1626.00,95.62
1625.00,95.65
1624.00,95.67
1623.00,95.69
1622.00,95.70
1621.00,95.69
1620.00,95.66
1619.00,95.60
1618.00,95.51
1617.00,95.41
1616.00,95.33
1615.00,95.31
1614.00,95.30
1613.00,95.31
1612.00,95.33
1611.00,95.38
1610.00,95.45
1609.00,95.53
1608.00,95.61
1607.00,95.70
1606.00,95.80
1605.00,95.91
1604.00,96.01
1603.00,96.12
1602.00,96.20
1601.00,96.27
1600.00,96.33
1599.00,96.39
1598.00,96.44
1597.00,96.48
1596.00,96.51
1595.00,96.53
1594.00,96.54
1593.00,96.55
1592.00,96.55
1591.00,96.55
1590.00,96.54
1589.00,96.52
1588.00,96.50
1587.00,96.45
1586.00,96.36
1585.00,96.24
1584.00,96.08
1583.00,95.88
1582.00,95.67
1581.00,95.46
1580.00,95.28
1579.00,95.15
1578.00,95.10
1577.00,95.16
1576.00,95.33
1575.00,95.56
1574.00,95.77
1573.00,95.93
1572.00,96.06
1571.00,96.19
1570.00,96.33
1569.00,96.48
1568.00,96.61
1567.00,96.69
1566.00,96.74
1565.00,96.78
1564.00,96.81
1563.00,96.85
1562.00,96.88
1561.00,96.91
1560.00,96.95
1559.00,96.98
1558.00,97.01
1557.00,97.06
1556.00,97.08
1555.00,97.09
1554.00,97.12
1553.00,97.17
1552.00,97.21
1551.00,97.23
1550.00,97.24
1549.00,97.25
1548.00,97.25
1547.00,97.26
1546.00,97.28
1545.00,97.31
1544.00,97.34
1543.00,97.36
1542.00,97.35
1541.00,97.35
1540.00,97.34
1539.00,97.36
1538.00,97.37
1537.00,97.36
1536.00,97.32
1535.00,97.27
1534.00,97.24
1533.00,97.23
1532.00,97.23
1531.00,97.22
1530.00,97.19
1529.00,97.15
1528.00,97.12
1527.00,97.11
1526.00,97.11
1525.00,97.12
1524.00,97.12
1523.00,97.11
1522.00,97.12
1521.00,97.17
1520.00,97.24
1519.00,97.30
1518.00,97.31
1517.00,97.32
1516.00,97.32
1515.00,97.29
1514.00,97.21
1513.00,97.07
1512.00,96.89
1511.00,96.64
1510.00,96.32
1509.00,95.89
1508.00,95.26
1507.00,94.47
1506.00,93.87
1505.00,93.72
1504.00,93.93
1503.00,94.32
1502.00,94.81
1501.00,95.33
1500.00,95.81
1499.00,96.22
1498.00,96.56
1497.00,96.83
1496.00,97.02
1495.00,97.14
1494.00,97.21
1493.00,97.22
1492.00,97.20
1491.00,97.18
1490.00,97.14
1489.00,97.06
1488.00,96.93
1487.00,96.78
1486.00,96.61
1485.00,96.43
1484.00,96.25
1483.00,96.07
1482.00,95.90
1481.00,95.72
1480.00,95.54
1479.00,95.37
1478.00,95.20
1477.00,95.03
1476.00,94.86
1475.00,94.70
1474.00,94.56
1473.00,94.46
1472.00,94.43
1471.00,94.47
1470.00,94.54
1469.00,94.59
1468.00,94.63
1467.00,94.66
1466.00,94.66
1465.00,94.64
1464.00,94.58
1463.00,94.51
1462.00,94.41
1461.00,94.30
1460.00,94.18
1459.00,94.08
1458.00,93.99
1457.00,93.94
1456.00,93.93
1455.00,93.92
1454.00,93.89
1453.00,93.86
1452.00,93.87
1451.00,93.91
1450.00,93.98
1449.00,94.05
1448.00,94.14
1447.00,94.24
1446.00,94.31
1445.00,94.36
1444.00,94.40
1443.00,94.45
1442.00,94.50
1441.00,94.55
1440.00,94.61
1439.00,94.68
1438.00,94.82
1437.00,95.01
1436.00,95.24
1435.00,95.44
1434.00,95.59
1433.00,95.73
1432.00,95.88
1431.00,96.05
1430.00,96.21
1429.00,96.34
1428.00,96.43
1427.00,96.48
1426.00,96.49
1425.00,96.49
1424.00,96.45
1423.00,96.38
1422.00,96.25
1421.00,96.06
1420.00,95.75
1419.00,95.28
1418.00,94.68
1417.00,93.94
1416.00,93.02
1415.00,91.91
1414.00,90.64
1413.00,89.25
1412.00,87.88
1411.00,86.70
1410.00,85.85
1409.00,85.41
1408.00,85.41
1407.00,85.82
1406.00,86.59
1405.00,87.58
1404.00,88.60
1403.00,89.52
1402.00,90.29
1401.00,90.97
1400.00,91.62
1399.00,92.22
1398.00,92.72
1397.00,93.09
1396.00,93.39
1395.00,93.65
1394.00,93.89
1393.00,94.07
1392.00,94.18
1391.00,94.25
1390.00,94.29
1389.00,94.34
1388.00,94.38
1387.00,94.40
1386.00,94.41
1385.00,94.37
1384.00,94.32
1383.00,94.25
1382.00,94.20
1381.00,94.16
1380.00,94.12
1379.00,94.07
1378.00,94.00
1377.00,93.92
1376.00,93.82
1375.00,93.72
1374.00,93.64
1373.00,93.57
1372.00,93.53
1371.00,93.51
1370.00,93.55
1369.00,93.66
1368.00,93.83
1367.00,94.04
1366.00,94.26
1365.00,94.50
1364.00,94.76
1363.00,95.02
1362.00,95.24
1361.00,95.40
1360.00,95.49
1359.00,95.52
1358.00,95.51
1357.00,95.47
1356.00,95.41
1355.00,95.31
1354.00,95.17
1353.00,94.97
1352.00,94.71
1351.00,94.38
1350.00,93.96
1349.00,93.43
1348.00,92.79
1347.00,92.02
1346.00,91.13
1345.00,90.15
1344.00,89.14
1343.00,88.18
1342.00,87.34
1341.00,86.72
1340.00,86.37
1339.00,86.37
1338.00,86.71
1337.00,87.33
1336.00,88.18
1335.00,89.17
1334.00,90.23
1333.00,91.27
1332.00,92.22
1331.00,93.01
1330.00,93.65
1329.00,94.11
1328.00,94.43
1327.00,94.63
1326.00,94.73
1325.00,94.75
1324.00,94.71
1323.00,94.63
1322.00,94.51
1321.00,94.38
1320.00,94.24
1319.00,94.10
1318.00,93.96
1317.00,93.80
1316.00,93.61
1315.00,93.39
1314.00,93.15
1313.00,92.91
1312.00,92.66
1311.00,92.39
1310.00,92.11
1309.00,91.82
1308.00,91.53
1307.00,91.25
1306.00,90.97
1305.00,90.69
1304.00,90.39
1303.00,90.07
1302.00,89.70
1301.00,89.29
1300.00,88.81
1299.00,88.29
1298.00,87.74
1297.00,87.18
1296.00,86.60
1295.00,86.02
1294.00,85.44
1293.00,84.87
1292.00,84.32
1291.00,83.78
1290.00,83.26
1289.00,82.76
1288.00,82.27
1287.00,81.80
1286.00,81.36
1285.00,80.95
1284.00,80.54
1283.00,80.13
1282.00,79.73
1281.00,79.33
1280.00,78.93
1279.00,78.52
1278.00,78.10
1277.00,77.65
1276.00,77.18
1275.00,76.68
1274.00,76.15
1273.00,75.59
1272.00,74.98
1271.00,74.35
1270.00,73.70
1269.00,73.02
1268.00,72.33
1267.00,71.65
1266.00,71.02
1265.00,70.41
1264.00,69.85
1263.00,69.34
1262.00,68.90
1261.00,68.53
1260.00,68.22
1259.00,67.97
1258.00,67.78
1257.00,67.60
1256.00,67.41
1255.00,67.22
1254.00,67.02
1253.00,66.80
1252.00,66.53
1251.00,66.23
1250.00,65.90
1249.00,65.56
1248.00,65.21
1247.00,64.89
1246.00,64.61
1245.00,64.38
1244.00,64.19
1243.00,64.08
1242.00,64.06
1241.00,64.12
1240.00,64.28
1239.00,64.57
1238.00,64.99
1237.00,65.50
1236.00,66.10
1235.00,66.78
1234.00,67.52
1233.00,68.27
1232.00,69.00
1231.00,69.74
1230.00,70.47
1229.00,71.17
1228.00,71.84
1227.00,72.50
1226.00,73.15
1225.00,73.78
1224.00,74.41
1223.00,75.04
1222.00,75.69
1221.00,76.36
1220.00,77.04
1219.00,77.74
1218.00,78.44
1217.00,79.10
1216.00,79.74
1215.00,80.35
1214.00,80.96
1213.00,81.54
1212.00,82.09
1211.00,82.61
1210.00,83.08
1209.00,83.53
1208.00,83.96
1207.00,84.37
1206.00,84.78
1205.00,85.18
1204.00,85.56
1203.00,85.93
1202.00,86.30
1201.00,86.67
1200.00,87.03
1199.00,87.38
1198.00,87.71
1197.00,88.03
1196.00,88.33
1195.00,88.63
1194.00,88.91
1193.00,89.18
1192.00,89.46
1191.00,89.72
1190.00,89.96
1189.00,90.16
1188.00,90.32
1187.00,90.44
1186.00,90.53
1185.00,90.57
1184.00,90.58
1183.00,90.55
1182.00,90.48
1181.00,90.39
1180.00,90.27
1179.00,90.14
1178.00,90.00
1177.00,89.88
1176.00,89.81
1175.00,89.79
1174.00,89.84
1173.00,89.96
1172.00,90.14
1171.00,90.40
1170.00,90.70
1169.00,91.02
1168.00,91.33
1167.00,91.60
1166.00,91.81
1165.00,91.96
1164.00,92.05
1163.00,92.10
1162.00,92.14
1161.00,92.15
1160.00,92.14
1159.00,92.11
1158.00,92.04
1157.00,91.96
1156.00,91.84
1155.00,91.68
1154.00,91.48
1153.00,91.25
1152.00,90.99
1151.00,90.72
1150.00,90.42
1149.00,90.10
1148.00,89.75
1147.00,89.36
1146.00,88.96
1145.00,88.52
1144.00,88.05
1143.00,87.53
1142.00,87.00
1141.00,86.44
1140.00,85.88
1139.00,85.30
1138.00,84.68
1137.00,84.01
1136.00,83.29
1135.00,82.53
1134.00,81.73
1133.00,80.91
1132.00,80.09
1131.00,79.28
1130.00,78.49
1129.00,77.71
1128.00,76.93
1127.00,76.17
1126.00,75.45
1125.00,74.77
1124.00,74.15
1123.00,73.59
1122.00,73.11
1121.00,72.69
1120.00,72.36
1119.00,72.14
1118.00,72.03
1117.00,71.98
1116.00,72.01
1115.00,72.10
1114.00,72.21
1113.00,72.29
1112.00,72.26
1111.00,72.11
1110.00,71.80
1109.00,71.33
1108.00,70.74
1107.00,70.10
1106.00,69.45
1105.00,68.78
1104.00,68.10
1103.00,67.45
1102.00,66.87
1101.00,66.35
1100.00,65.92
1099.00,65.57
1098.00,65.32
1097.00,65.13
1096.00,65.00
1095.00,64.94
1094.00,64.96
1093.00,65.04
1092.00,65.19
1091.00,65.42
1090.00,65.73
1089.00,66.05
1088.00,66.38
1087.00,66.73
1086.00,67.09
1085.00,67.49
1084.00,67.92
1083.00,68.43
1082.00,69.02
1081.00,69.66
1080.00,70.35
1079.00,71.08
1078.00,71.86
1077.00,72.66
1076.00,73.47
1075.00,74.28
1074.00,75.08
1073.00,75.84
1072.00,76.56
1071.00,77.23
1070.00,77.85
1069.00,78.41
1068.00,78.94
1067.00,79.46
1066.00,79.96
1065.00,80.42
1064.00,80.84
1063.00,81.21
1062.00,81.56
1061.00,81.86
1060.00,82.15
1059.00,82.42
1058.00,82.67
1057.00,82.89
1056.00,83.04
1055.00,83.14
1054.00,83.18
1053.00,83.18
1052.00,83.16
1051.00,83.13
1050.00,83.08
1049.00,83.00
1048.00,82.90
1047.00,82.82
1046.00,82.79
1045.00,82.80
1044.00,82.82
1043.00,82.85
1042.00,82.90
1041.00,82.99
1040.00,83.13
1039.00,83.31
1038.00,83.50
1037.00,83.70
1036.00,83.91
1035.00,84.11
1034.00,84.33
1033.00,84.55
1032.00,84.74
1031.00,84.89
1030.00,84.98
1029.00,84.95
1028.00,84.76
1027.00,84.31
1026.00,83.56
1025.00,82.53
1024.00,81.29
1023.00,79.92
1022.00,78.47
1021.00,77.01
1020.00,75.61
1019.00,74.44
1018.00,73.70
1017.00,73.52
1016.00,73.96
1015.00,74.94
1014.00,76.26
1013.00,77.70
1012.00,79.08
1011.00,80.31
1010.00,81.36
1009.00,82.23
1008.00,82.95
1007.00,83.55
1006.00,84.05
1005.00,84.45
1004.00,84.76
1003.00,85.05
1002.00,85.32
1001.00,85.58
1000.00,85.81
999.00,86.01
998.00,86.19
997.00,86.33
996.00,86.46
995.00,86.58
994.00,86.70
993.00,86.80
992.00,86.86
991.00,86.90
990.00,86.93
989.00,86.97
988.00,87.00
987.00,87.01
986.00,87.00
985.00,86.98
984.00,86.95
983.00,86.88
982.00,86.78
981.00,86.65
980.00,86.48
979.00,86.28
978.00,86.06
977.00,85.81
976.00,85.58
975.00,85.37
974.00,85.19
973.00,85.06
972.00,84.97
971.00,84.94
970.00,84.99
969.00,85.09
968.00,85.24
967.00,85.42
966.00,85.64
965.00,85.86
964.00,86.08
963.00,86.30
962.00,86.51
961.00,86.72
960.00,86.94
959.00,87.16
958.00,87.37
957.00,87.55
956.00,87.70
955.00,87.85
954.00,88.00
953.00,88.15
952.00,88.31
951.00,88.44
950.00,88.55
949.00,88.64
948.00,88.74
947.00,88.84
946.00,88.94
945.00,89.02
944.00,89.09
943.00,89.16
942.00,89.24
941.00,89.33
940.00,89.42
939.00,89.51
938.00,89.60
937.00,89.67
936.00,89.72
935.00,89.77
934.00,89.81
933.00,89.85
932.00,89.90
931.00,89.95
930.00,90.00
929.00,90.04
928.00,90.08
927.00,90.14
926.00,90.22
925.00,90.32
924.00,90.40
923.00,90.45
922.00,90.49
921.00,90.53
920.00,90.57
919.00,90.61
918.00,90.64
917.00,90.65
916.00,90.63
915.00,90.60
914.00,90.57
913.00,90.54
912.00,90.52
911.00,90.49
910.00,90.44
909.00,90.36
908.00,90.24
907.00,90.09
906.00,89.90
905.00,89.70
904.00,89.50
903.00,89.34
902.00,89.22
901.00,89.14
900.00,89.09
899.00,89.06
898.00,89.04
897.00,89.03
896.00,89.03
895.00,89.03
894.00,89.05
893.00,89.07
892.00,89.11
891.00,89.14
890.00,89.16
889.00,89.13
888.00,89.01
887.00,88.83
886.00,88.58
885.00,88.30
884.00,87.96
883.00,87.52
882.00,86.96
881.00,86.28
880.00,85.50
879.00,84.65
878.00,83.73
877.00,82.71
876.00,81.59
875.00,80.40
874.00,79.30
873.00,78.53
872.00,78.33
871.00,78.80
870.00,79.79
869.00,81.00
868.00,82.16
867.00,83.13
866.00,83.87
865.00,84.42
864.00,84.82
863.00,85.12
862.00,85.34
861.00,85.49
860.00,85.58
859.00,85.60
858.00,85.58
857.00,85.51
856.00,85.42
855.00,85.35
854.00,85.30
853.00,85.24
852.00,85.15
851.00,85.03
850.00,84.87
849.00,84.72
848.00,84.60
847.00,84.56
846.00,84.59
845.00,84.68
844.00,84.82
843.00,85.00
842.00,85.23
841.00,85.47
840.00,85.71
839.00,85.95
838.00,86.20
837.00,86.46
836.00,86.71
835.00,86.96
834.00,87.20
833.00,87.42
832.00,87.62
831.00,87.81
830.00,87.98
829.00,88.13
828.00,88.27
827.00,88.41
826.00,88.54
825.00,88.66
824.00,88.76
823.00,88.86
822.00,88.98
821.00,89.08
820.00,89.16
819.00,89.20
818.00,89.22
817.00,89.23
816.00,89.24
815.00,89.28
814.00,89.34
813.00,89.42
812.00,89.49
811.00,89.55
810.00,89.59
809.00,89.63
808.00,89.68
807.00,89.73
806.00,89.79
805.00,89.83
804.00,89.87
803.00,89.93
802.00,90.01
801.00,90.08
800.00,90.09
799.00,89.99
798.00,89.77
797.00,89.42
796.00,88.99
795.00,88.54
794.00,88.18
793.00,87.97
792.00,87.96
791.00,88.14
790.00,88.45
789.00,88.81
788.00,89.16
787.00,89.48
786.00,89.75
785.00,89.97
784.00,90.17
783.00,90.38
782.00,90.59
781.00,90.77
780.00,90.92
779.00,91.04
778.00,91.16
777.00,91.27
776.00,91.39
775.00,91.53
774.00,91.69
773.00,91.86
772.00,92.02
771.00,92.17
770.00,92.33
769.00,92.49
768.00,92.64
767.00,92.78
766.00,92.91
765.00,93.04
764.00,93.18
763.00,93.34
762.00,93.49
761.00,93.59
760.00,93.67
759.00,93.76
758.00,93.88
757.00,94.01
756.00,94.14
755.00,94.24
754.00,94.32
753.00,94.37
752.00,94.38
751.00,94.37
750.00,94.38
749.00,94.43
748.00,94.50
747.00,94.53
746.00,94.46
745.00,94.25
744.00,93.90
743.00,93.38
742.00,92.65
741.00,91.66
740.00,90.39
739.00,88.83
738.00,87.00
737.00,84.96
736.00,82.77
735.00,80.50
734.00,78.19
733.00,75.89
732.00,73.65
731.00,71.47
730.00,69.30
729.00,67.07
728.00,64.78
727.00,62.52
726.00,60.44
725.00,58.70
724.00,57.47
723.00,56.86
722.00,56.91
721.00,57.54
720.00,58.65
719.00,60.09
718.00,61.70
717.00,63.33
716.00,64.88
715.00,66.32
714.00,67.62
713.00,68.76
712.00,69.77
711.00,70.67
710.00,71.49
709.00,72.25
708.00,72.96
707.00,73.62
706.00,74.22
705.00,74.75
704.00,75.26
703.00,75.81
702.00,76.41
701.00,77.04
700.00,77.71
699.00,78.40
698.00,79.09
697.00,79.73
696.00,80.29
695.00,80.77
694.00,81.19
693.00,81.55
692.00,81.86
691.00,82.12
690.00,82.34
689.00,82.55
688.00,82.75
687.00,82.94
686.00,83.10
685.00,83.21
684.00,83.29
683.00,83.34
682.00,83.41
681.00,83.52
680.00,83.66
679.00,83.83
678.00,84.01
677.00,84.21
676.00,84.42
675.00,84.61
674.00,84.78
673.00,84.94
672.00,85.09
671.00,85.26
670.00,85.46
669.00,85.71
668.00,85.99
667.00,86.15
666.00,86.20
665.00,86.25
664.00,86.31
663.00,86.40
662.00,86.50
661.00,86.60
660.00,86.68
659.00,86.69
658.00,86.66
657.00,86.62
656.00,86.63
655.00,86.70
654.00,86.80
653.00,86.89
652.00,86.95
651.00,86.99
650.00,87.01
649.00,87.05
648.00,87.12
647.00,87.24
646.00,87.35
645.00,87.40
644.00,87.43
643.00,87.49
642.00,87.56
641.00,87.64
640.00,87.71
639.00,87.81
638.00,87.91
637.00,87.96
636.00,87.88
635.00,87.65
634.00,87.33
633.00,86.98
632.00,86.75
631.00,86.80
630.00,87.14
629.00,87.65
628.00,88.13
627.00,88.45
626.00,88.55
625.00,88.43
624.00,88.16
623.00,87.88
622.00,87.73
621.00,87.75
620.00,87.91
619.00,88.18
618.00,88.50
617.00,88.80
616.00,88.96
615.00,88.91
614.00,88.65
613.00,88.34
612.00,88.15
611.00,88.19
610.00,88.38
609.00,88.57
608.00,88.70
607.00,88.81
606.00,88.91
605.00,88.96
604.00,88.77
603.00,88.28
602.00,87.63
601.00,87.17
600.00,87.18
599.00,87.68
598.00,88.36
597.00,88.91
596.00,89.23
595.00,89.41
594.00,89.51
593.00,89.48
592.00,89.34
591.00,89.14
590.00,88.89
589.00,88.55
588.00,88.21
587.00,88.14
586.00,88.54
585.00,89.21
584.00,89.69
583.00,89.62
582.00,89.05
581.00,88.38
580.00,88.10
579.00,88.42
578.00,89.13
577.00,89.64
576.00,89.49
575.00,88.69
574.00,87.79
573.00,87.36
572.00,87.59
571.00,88.19
570.00,88.63
569.00,88.66
568.00,88.54
567.00,88.60
566.00,88.77
565.00,88.70
564.00,88.33
563.00,87.97
562.00,87.85
561.00,87.79
560.00,87.55
559.00,87.21
558.00,87.05
557.00,87.14
556.00,87.39
555.00,87.71
554.00,88.04
553.00,88.30
552.00,88.44
551.00,88.71
550.00,89.25
