Created as New Dataset,166. Hoechst (Dark Blue)
cm-1,%T
4000.00,96.97
3999.00,96.96
3998.00,96.96
3997.00,96.95
3996.00,96.94
3995.00,96.92
3994.00,96.90
3993.00,96.89
3992.00,96.89
3991.00,96.91
3990.00,96.94
3989.00,96.95
3988.00,96.96
3987.00,96.95
3986.00,96.95
3985.00,96.93
3984.00,96.92
3983.00,96.91
3982.00,96.91
3981.00,96.92
3980.00,96.93
3979.00,96.93
3978.00,96.93
3977.00,96.91
3976.00,96.90
3975.00,96.90
3974.00,96.90
3973.00,96.91
3972.00,96.91
3971.00,96.90
3970.00,96.89
3969.00,96.89
3968.00,96.89
3967.00,96.90
3966.00,96.90
3965.00,96.89
3964.00,96.88
3963.00,96.87
3962.00,96.87
3961.00,96.88
3960.00,96.88
3959.00,96.88
3958.00,96.88
3957.00,96.88
3956.00,96.90
3955.00,96.92
3954.00,96.93
3953.00,96.93
3952.00,96.91
3951.00,96.89
3950.00,96.88
3949.00,96.89
3948.00,96.91
3947.00,96.92
3946.00,96.91
3945.00,96.89
3944.00,96.86
3943.00,96.84
3942.00,96.84
3941.00,96.84
3940.00,96.85
3939.00,96.86
3938.00,96.87
3937.00,96.87
3936.00,96.87
3935.00,96.86
3934.00,96.84
3933.00,96.83
3932.00,96.83
3931.00,96.85
3930.00,96.87
3929.00,96.87
3928.00,96.87
3927.00,96.85
3926.00,96.83
3925.00,96.81
3924.00,96.80
3923.00,96.81
3922.00,96.82
3921.00,96.83
3920.00,96.84
3919.00,96.83
3918.00,96.83
3917.00,96.83
3916.00,96.83
3915.00,96.84
3914.00,96.85
3913.00,96.85
3912.00,96.86
3911.00,96.87
3910.00,96.88
3909.00,96.89
3908.00,96.89
3907.00,96.87
3906.00,96.84
3905.00,96.82
3904.00,96.82
3903.00,96.84
3902.00,96.85
3901.00,96.85
3900.00,96.84
3899.00,96.82
3898.00,96.81
3897.00,96.81
3896.00,96.82
3895.00,96.84
3894.00,96.84
3893.00,96.85
3892.00,96.85
3891.00,96.85
3890.00,96.86
3889.00,96.87
3888.00,96.88
3887.00,96.89
3886.00,96.89
3885.00,96.87
3884.00,96.86
3883.00,96.85
3882.00,96.87
3881.00,96.88
3880.00,96.89
3879.00,96.88
3878.00,96.86
3877.00,96.84
3876.00,96.82
3875.00,96.81
3874.00,96.80
3873.00,96.80
3872.00,96.80
3871.00,96.80
3870.00,96.80
3869.00,96.82
3868.00,96.85
3867.00,96.86
3866.00,96.84
3865.00,96.82
3864.00,96.79
3863.00,96.78
3862.00,96.78
3861.00,96.80
3860.00,96.83
3859.00,96.85
3858.00,96.87
3857.00,96.88
3856.00,96.88
3855.00,96.87
3854.00,96.85
3853.00,96.83
3852.00,96.83
3851.00,96.82
3850.00,96.80
3849.00,96.78
3848.00,96.79
3847.00,96.80
3846.00,96.83
3845.00,96.85
3844.00,96.86
3843.00,96.85
3842.00,96.83
3841.00,96.82
3840.00,96.81
3839.00,96.81
3838.00,96.81
3837.00,96.81
3836.00,96.79
3835.00,96.77
3834.00,96.75
3833.00,96.74
3832.00,96.74
3831.00,96.74
3830.00,96.74
3829.00,96.74
3828.00,96.73
3827.00,96.73
3826.00,96.73
3825.00,96.73
3824.00,96.72
3823.00,96.71
3822.00,96.70
3821.00,96.71
3820.00,96.72
3819.00,96.72
3818.00,96.70
3817.00,96.68
3816.00,96.68
3815.00,96.70
3814.00,96.71
3813.00,96.71
3812.00,96.71
3811.00,96.72
3810.00,96.73
3809.00,96.74
3808.00,96.73
3807.00,96.72
3806.00,96.71
3805.00,96.71
3804.00,96.70
3803.00,96.69
3802.00,96.67
3801.00,96.66
3800.00,96.67
3799.00,96.67
3798.00,96.67
3797.00,96.67
3796.00,96.68
3795.00,96.68
3794.00,96.69
3793.00,96.68
3792.00,96.68
3791.00,96.67
3790.00,96.67
3789.00,96.67
3788.00,96.66
3787.00,96.65
3786.00,96.64
3785.00,96.65
3784.00,96.66
3783.00,96.67
3782.00,96.68
3781.00,96.68
3780.00,96.67
3779.00,96.66
3778.00,96.64
3777.00,96.63
3776.00,96.61
3775.00,96.60
3774.00,96.59
3773.00,96.59
3772.00,96.60
3771.00,96.61
3770.00,96.60
3769.00,96.59
3768.00,96.59
3767.00,96.59
3766.00,96.59
3765.00,96.59
3764.00,96.59
3763.00,96.58
3762.00,96.56
3761.00,96.55
3760.00,96.54
3759.00,96.53
3758.00,96.52
3757.00,96.53
3756.00,96.55
3755.00,96.58
3754.00,96.61
3753.00,96.62
3752.00,96.61
3751.00,96.61
3750.00,96.62
3749.00,96.64
3748.00,96.67
3747.00,96.68
3746.00,96.66
3745.00,96.61
3744.00,96.57
3743.00,96.55
3742.00,96.56
3741.00,96.57
3740.00,96.59
3739.00,96.61
3738.00,96.62
3737.00,96.61
3736.00,96.59
3735.00,96.57
3734.00,96.57
3733.00,96.57
3732.00,96.57
3731.00,96.55
3730.00,96.53
3729.00,96.51
3728.00,96.51
3727.00,96.51
3726.00,96.51
3725.00,96.49
3724.00,96.46
3723.00,96.45
3722.00,96.45
3721.00,96.45
3720.00,96.46
3719.00,96.46
3718.00,96.45
3717.00,96.45
3716.00,96.45
3715.00,96.45
3714.00,96.45
3713.00,96.45
3712.00,96.43
3711.00,96.42
3710.00,96.40
3709.00,96.39
3708.00,96.38
3707.00,96.38
3706.00,96.38
3705.00,96.39
3704.00,96.39
3703.00,96.40
3702.00,96.41
3701.00,96.43
3700.00,96.45
3699.00,96.45
3698.00,96.44
3697.00,96.43
3696.00,96.43
3695.00,96.43
3694.00,96.44
3693.00,96.46
3692.00,96.47
3691.00,96.48
3690.00,96.47
3689.00,96.44
3688.00,96.43
3687.00,96.41
3686.00,96.39
3685.00,96.36
3684.00,96.34
3683.00,96.34
3682.00,96.35
3681.00,96.38
3680.00,96.40
3679.00,96.42
3678.00,96.43
3677.00,96.42
3676.00,96.39
3675.00,96.35
3674.00,96.34
3673.00,96.33
3672.00,96.32
3671.00,96.30
3670.00,96.28
3669.00,96.28
3668.00,96.29
3667.00,96.30
3666.00,96.31
3665.00,96.30
3664.00,96.29
3663.00,96.28
3662.00,96.27
3661.00,96.27
3660.00,96.27
3659.00,96.29
3658.00,96.29
3657.00,96.29
3656.00,96.28
3655.00,96.28
3654.00,96.27
3653.00,96.27
3652.00,96.26
3651.00,96.25
3650.00,96.22
3649.00,96.19
3648.00,96.15
3647.00,96.13
3646.00,96.11
3645.00,96.11
3644.00,96.10
3643.00,96.10
3642.00,96.10
3641.00,96.10
3640.00,96.10
3639.00,96.11
3638.00,96.12
3637.00,96.12
3636.00,96.12
3635.00,96.11
3634.00,96.10
3633.00,96.11
3632.00,96.14
3631.00,96.17
3630.00,96.19
3629.00,96.18
3628.00,96.16
3627.00,96.14
3626.00,96.13
3625.00,96.13
3624.00,96.14
3623.00,96.15
3622.00,96.17
3621.00,96.18
3620.00,96.20
3619.00,96.21
3618.00,96.21
3617.00,96.19
3616.00,96.17
3615.00,96.16
3614.00,96.15
3613.00,96.14
3612.00,96.13
3611.00,96.12
3610.00,96.10
3609.00,96.11
3608.00,96.11
3607.00,96.12
3606.00,96.12
3605.00,96.11
3604.00,96.11
3603.00,96.11
3602.00,96.13
3601.00,96.14
3600.00,96.15
3599.00,96.15
3598.00,96.14
3597.00,96.13
3596.00,96.11
3595.00,96.09
3594.00,96.08
3593.00,96.07
3592.00,96.08
3591.00,96.10
3590.00,96.13
3589.00,96.16
3588.00,96.18
3587.00,96.17
3586.00,96.15
3585.00,96.13
3584.00,96.12
3583.00,96.11
3582.00,96.11
3581.00,96.10
3580.00,96.10
3579.00,96.10
3578.00,96.10
3577.00,96.11
3576.00,96.11
3575.00,96.11
3574.00,96.10
3573.00,96.09
3572.00,96.08
3571.00,96.07
3570.00,96.05
3569.00,96.03
3568.00,96.02
3567.00,96.01
3566.00,96.01
3565.00,96.00
3564.00,95.98
3563.00,95.97
3562.00,95.96
3561.00,95.94
3560.00,95.93
3559.00,95.92
3558.00,95.93
3557.00,95.94
3556.00,95.96
3555.00,95.97
3554.00,95.97
3553.00,95.95
3552.00,95.92
3551.00,95.90
3550.00,95.89
3549.00,95.90
3548.00,95.92
3547.00,95.94
3546.00,95.95
3545.00,95.95
3544.00,95.95
3543.00,95.95
3542.00,95.95
3541.00,95.94
3540.00,95.92
3539.00,95.91
3538.00,95.91
3537.00,95.92
3536.00,95.94
3535.00,95.96
3534.00,95.96
3533.00,95.97
3532.00,95.99
3531.00,96.02
3530.00,96.04
3529.00,96.04
3528.00,96.03
3527.00,96.02
3526.00,96.00
3525.00,96.00
3524.00,96.01
3523.00,96.01
3522.00,96.01
3521.00,96.01
3520.00,96.00
3519.00,95.99
3518.00,96.00
3517.00,96.01
3516.00,96.03
3515.00,96.04
3514.00,96.05
3513.00,96.05
3512.00,96.05
3511.00,96.05
3510.00,96.05
3509.00,96.04
3508.00,96.02
3507.00,96.01
3506.00,96.00
3505.00,96.00
3504.00,96.00
3503.00,95.99
3502.00,95.98
3501.00,95.98
3500.00,95.97
3499.00,95.97
3498.00,95.96
3497.00,95.95
3496.00,95.95
3495.00,95.96
3494.00,95.97
3493.00,95.97
3492.00,95.96
3491.00,95.95
3490.00,95.95
3489.00,95.95
3488.00,95.95
3487.00,95.95
3486.00,95.95
3485.00,95.95
3484.00,95.96
3483.00,95.97
3482.00,95.97
3481.00,95.97
3480.00,95.97
3479.00,95.97
3478.00,95.98
3477.00,95.99
3476.00,96.00
3475.00,96.00
3474.00,95.99
3473.00,95.96
3472.00,95.95
3471.00,95.94
3470.00,95.95
3469.00,95.96
3468.00,95.95
3467.00,95.91
3466.00,95.87
3465.00,95.85
3464.00,95.84
3463.00,95.85
3462.00,95.86
3461.00,95.85
3460.00,95.83
3459.00,95.82
3458.00,95.81
3457.00,95.80
3456.00,95.79
3455.00,95.77
3454.00,95.76
3453.00,95.75
3452.00,95.74
3451.00,95.73
3450.00,95.72
3449.00,95.72
3448.00,95.71
3447.00,95.71
3446.00,95.71
3445.00,95.71
3444.00,95.71
3443.00,95.70
3442.00,95.69
3441.00,95.68
3440.00,95.67
3439.00,95.66
3438.00,95.65
3437.00,95.62
3436.00,95.58
3435.00,95.54
3434.00,95.50
3433.00,95.48
3432.00,95.47
3431.00,95.47
3430.00,95.47
3429.00,95.46
3428.00,95.45
3427.00,95.46
3426.00,95.48
3425.00,95.53
3424.00,95.57
3423.00,95.59
3422.00,95.60
3421.00,95.61
3420.00,95.62
3419.00,95.64
3418.00,95.66
3417.00,95.69
3416.00,95.72
3415.00,95.74
3414.00,95.76
3413.00,95.77
3412.00,95.78
3411.00,95.80
3410.00,95.80
3409.00,95.81
3408.00,95.80
3407.00,95.79
3406.00,95.77
3405.00,95.76
3404.00,95.77
3403.00,95.79
3402.00,95.82
3401.00,95.83
3400.00,95.84
3399.00,95.84
3398.00,95.85
3397.00,95.86
3396.00,95.87
3395.00,95.88
3394.00,95.88
3393.00,95.87
3392.00,95.87
3391.00,95.87
3390.00,95.86
3389.00,95.85
3388.00,95.85
3387.00,95.86
3386.00,95.87
3385.00,95.87
3384.00,95.87
3383.00,95.87
3382.00,95.88
3381.00,95.89
3380.00,95.89
3379.00,95.89
3378.00,95.89
3377.00,95.90
3376.00,95.91
3375.00,95.92
3374.00,95.92
3373.00,95.92
3372.00,95.91
3371.00,95.90
3370.00,95.89
3369.00,95.89
3368.00,95.89
3367.00,95.88
3366.00,95.88
3365.00,95.87
3364.00,95.86
3363.00,95.85
3362.00,95.85
3361.00,95.86
3360.00,95.87
3359.00,95.88
3358.00,95.89
3357.00,95.90
3356.00,95.89
3355.00,95.88
3354.00,95.86
3353.00,95.86
3352.00,95.87
3351.00,95.88
3350.00,95.88
3349.00,95.87
3348.00,95.84
3347.00,95.81
3346.00,95.79
3345.00,95.79
3344.00,95.79
3343.00,95.79
3342.00,95.79
3341.00,95.79
3340.00,95.78
3339.00,95.78
3338.00,95.77
3337.00,95.77
3336.00,95.77
3335.00,95.77
3334.00,95.77
3333.00,95.78
3332.00,95.80
3331.00,95.81
3330.00,95.81
3329.00,95.80
3328.00,95.78
3327.00,95.77
3326.00,95.77
3325.00,95.76
3324.00,95.75
3323.00,95.74
3322.00,95.73
3321.00,95.71
3320.00,95.70
3319.00,95.69
3318.00,95.70
3317.00,95.72
3316.00,95.75
3315.00,95.77
3314.00,95.78
3313.00,95.77
3312.00,95.76
3311.00,95.75
3310.00,95.74
3309.00,95.74
3308.00,95.74
3307.00,95.74
3306.00,95.74
3305.00,95.75
3304.00,95.75
3303.00,95.76
3302.00,95.76
3301.00,95.77
3300.00,95.77
3299.00,95.78
3298.00,95.77
3297.00,95.77
3296.00,95.78
3295.00,95.79
3294.00,95.79
3293.00,95.80
3292.00,95.79
3291.00,95.78
3290.00,95.78
3289.00,95.79
3288.00,95.79
3287.00,95.80
3286.00,95.80
3285.00,95.81
3284.00,95.83
3283.00,95.84
3282.00,95.83
3281.00,95.81
3280.00,95.79
3279.00,95.78
3278.00,95.78
3277.00,95.78
3276.00,95.78
3275.00,95.78
3274.00,95.79
3273.00,95.81
3272.00,95.83
3271.00,95.84
3270.00,95.82
3269.00,95.81
3268.00,95.80
3267.00,95.81
3266.00,95.83
3265.00,95.84
3264.00,95.84
3263.00,95.86
3262.00,95.88
3261.00,95.89
3260.00,95.89
3259.00,95.87
3258.00,95.85
3257.00,95.83
3256.00,95.81
3255.00,95.80
3254.00,95.81
3253.00,95.82
3252.00,95.83
3251.00,95.82
3250.00,95.80
3249.00,95.79
3248.00,95.79
3247.00,95.80
3246.00,95.82
3245.00,95.84
3244.00,95.85
3243.00,95.85
3242.00,95.84
3241.00,95.83
3240.00,95.84
3239.00,95.84
3238.00,95.84
3237.00,95.84
3236.00,95.82
3235.00,95.80
3234.00,95.78
3233.00,95.77
3232.00,95.76
3231.00,95.77
3230.00,95.77
3229.00,95.78
3228.00,95.78
3227.00,95.78
3226.00,95.76
3225.00,95.73
3224.00,95.71
3223.00,95.70
3222.00,95.70
3221.00,95.70
3220.00,95.71
3219.00,95.74
3218.00,95.77
3217.00,95.81
3216.00,95.83
3215.00,95.84
3214.00,95.83
3213.00,95.82
3212.00,95.80
3211.00,95.79
3210.00,95.78
3209.00,95.79
3208.00,95.80
3207.00,95.82
3206.00,95.83
3205.00,95.82
3204.00,95.80
3203.00,95.78
3202.00,95.75
3201.00,95.73
3200.00,95.72
3199.00,95.73
3198.00,95.75
3197.00,95.77
3196.00,95.78
3195.00,95.77
3194.00,95.76
3193.00,95.76
3192.00,95.77
3191.00,95.79
3190.00,95.80
3189.00,95.81
3188.00,95.81
3187.00,95.81
3186.00,95.80
3185.00,95.80
3184.00,95.79
3183.00,95.78
3182.00,95.78
3181.00,95.78
3180.00,95.77
3179.00,95.76
3178.00,95.74
3177.00,95.74
3176.00,95.74
3175.00,95.75
3174.00,95.76
3173.00,95.76
3172.00,95.75
3171.00,95.75
3170.00,95.76
3169.00,95.77
3168.00,95.78
3167.00,95.77
3166.00,95.76
3165.00,95.75
3164.00,95.74
3163.00,95.74
3162.00,95.74
3161.00,95.74
3160.00,95.74
3159.00,95.74
3158.00,95.75
3157.00,95.77
3156.00,95.79
3155.00,95.80
3154.00,95.81
3153.00,95.80
3152.00,95.79
3151.00,95.77
3150.00,95.76
3149.00,95.75
3148.00,95.75
3147.00,95.76
3146.00,95.76
3145.00,95.76
3144.00,95.76
3143.00,95.76
3142.00,95.74
3141.00,95.73
3140.00,95.71
3139.00,95.69
3138.00,95.69
3137.00,95.70
3136.00,95.71
3135.00,95.72
3134.00,95.71
3133.00,95.71
3132.00,95.70
3131.00,95.69
3130.00,95.68
3129.00,95.67
3128.00,95.66
3127.00,95.65
3126.00,95.65
3125.00,95.66
3124.00,95.66
3123.00,95.66
3122.00,95.65
3121.00,95.66
3120.00,95.66
3119.00,95.65
3118.00,95.65
3117.00,95.64
3116.00,95.64
3115.00,95.64
3114.00,95.64
3113.00,95.62
3112.00,95.59
3111.00,95.56
3110.00,95.53
3109.00,95.52
3108.00,95.51
3107.00,95.52
3106.00,95.52
3105.00,95.50
3104.00,95.48
3103.00,95.48
3102.00,95.49
3101.00,95.51
3100.00,95.52
3099.00,95.53
3098.00,95.53
3097.00,95.52
3096.00,95.53
3095.00,95.53
3094.00,95.55
3093.00,95.55
3092.00,95.54
3091.00,95.53
3090.00,95.51
3089.00,95.50
3088.00,95.50
3087.00,95.50
3086.00,95.50
3085.00,95.49
3084.00,95.49
3083.00,95.48
3082.00,95.47
3081.00,95.46
3080.00,95.44
3079.00,95.43
3078.00,95.43
3077.00,95.44
3076.00,95.45
3075.00,95.44
3074.00,95.43
3073.00,95.42
3072.00,95.42
3071.00,95.42
3070.00,95.42
3069.00,95.42
3068.00,95.42
3067.00,95.43
3066.00,95.44
3065.00,95.43
3064.00,95.41
3063.00,95.39
3062.00,95.37
3061.00,95.37
3060.00,95.37
3059.00,95.36
3058.00,95.36
3057.00,95.35
3056.00,95.35
3055.00,95.35
3054.00,95.37
3053.00,95.38
3052.00,95.38
3051.00,95.39
3050.00,95.41
3049.00,95.44
3048.00,95.47
3047.00,95.49
3046.00,95.51
3045.00,95.53
3044.00,95.56
3043.00,95.58
3042.00,95.60
3041.00,95.61
3040.00,95.61
3039.00,95.60
3038.00,95.59
3037.00,95.58
3036.00,95.57
3035.00,95.58
3034.00,95.60
3033.00,95.63
3032.00,95.64
3031.00,95.64
3030.00,95.62
3029.00,95.61
3028.00,95.60
3027.00,95.59
3026.00,95.56
3025.00,95.53
3024.00,95.49
3023.00,95.44
3022.00,95.40
3021.00,95.37
3020.00,95.34
3019.00,95.32
3018.00,95.30
3017.00,95.26
3016.00,95.23
3015.00,95.20
3014.00,95.19
3013.00,95.19
3012.00,95.19
3011.00,95.19
3010.00,95.19
3009.00,95.18
3008.00,95.18
3007.00,95.17
3006.00,95.15
3005.00,95.13
3004.00,95.10
3003.00,95.07
3002.00,95.04
3001.00,95.02
3000.00,95.00
2999.00,94.99
2998.00,94.98
2997.00,94.98
2996.00,94.98
2995.00,94.98
2994.00,94.97
2993.00,94.96
2992.00,94.94
2991.00,94.92
2990.00,94.90
2989.00,94.89
2988.00,94.87
2987.00,94.85
2986.00,94.82
2985.00,94.78
2984.00,94.73
2983.00,94.67
2982.00,94.61
2981.00,94.56
2980.00,94.50
2979.00,94.44
2978.00,94.37
2977.00,94.29
2976.00,94.22
2975.00,94.15
2974.00,94.08
2973.00,94.02
2972.00,93.97
2971.00,93.92
2970.00,93.88
2969.00,93.86
2968.00,93.85
2967.00,93.87
2966.00,93.90
2965.00,93.93
2964.00,93.96
2963.00,93.98
2962.00,93.99
2961.00,94.01
2960.00,94.04
2959.00,94.07
2958.00,94.11
2957.00,94.15
2956.00,94.19
2955.00,94.25
2954.00,94.30
2953.00,94.33
2952.00,94.36
2951.00,94.39
2950.00,94.44
2949.00,94.49
2948.00,94.54
2947.00,94.57
2946.00,94.60
2945.00,94.63
2944.00,94.67
2943.00,94.71
2942.00,94.75
2941.00,94.78
2940.00,94.80
2939.00,94.82
2938.00,94.83
2937.00,94.84
2936.00,94.85
2935.00,94.86
2934.00,94.86
2933.00,94.86
2932.00,94.87
2931.00,94.87
2930.00,94.87
2929.00,94.88
2928.00,94.88
2927.00,94.89
2926.00,94.88
2925.00,94.87
2924.00,94.85
2923.00,94.83
2922.00,94.81
2921.00,94.79
2920.00,94.76
2919.00,94.74
2918.00,94.72
2917.00,94.69
2916.00,94.65
2915.00,94.61
2914.00,94.56
2913.00,94.53
2912.00,94.51
2911.00,94.50
2910.00,94.47
2909.00,94.45
2908.00,94.42
2907.00,94.42
2906.00,94.43
2905.00,94.46
2904.00,94.51
2903.00,94.57
2902.00,94.62
2901.00,94.66
2900.00,94.69
2899.00,94.71
2898.00,94.73
2897.00,94.75
2896.00,94.78
2895.00,94.80
2894.00,94.81
2893.00,94.80
2892.00,94.79
2891.00,94.79
2890.00,94.80
2889.00,94.82
2888.00,94.85
2887.00,94.88
2886.00,94.90
2885.00,94.91
2884.00,94.90
2883.00,94.89
2882.00,94.88
2881.00,94.88
2880.00,94.91
2879.00,94.94
2878.00,94.96
2877.00,94.98
2876.00,95.00
2875.00,95.01
2874.00,95.03
2873.00,95.03
2872.00,95.01
2871.00,95.00
2870.00,94.98
2869.00,94.98
2868.00,94.98
2867.00,94.99
2866.00,94.99
2865.00,94.99
2864.00,95.00
2863.00,95.02
2862.00,95.03
2861.00,95.03
2860.00,95.02
2859.00,95.02
2858.00,95.01
2857.00,95.00
2856.00,95.00
2855.00,94.99
2854.00,94.99
2853.00,94.98
2852.00,94.98
2851.00,94.98
2850.00,95.00
2849.00,95.02
2848.00,95.04
2847.00,95.07
2846.00,95.11
2845.00,95.15
2844.00,95.19
2843.00,95.22
2842.00,95.24
2841.00,95.25
2840.00,95.26
2839.00,95.26
2838.00,95.27
2837.00,95.27
2836.00,95.28
2835.00,95.29
2834.00,95.31
2833.00,95.32
2832.00,95.34
2831.00,95.34
2830.00,95.34
2829.00,95.34
2828.00,95.34
2827.00,95.35
2826.00,95.36
2825.00,95.38
2824.00,95.38
2823.00,95.38
2822.00,95.38
2821.00,95.39
2820.00,95.39
2819.00,95.40
2818.00,95.39
2817.00,95.39
2816.00,95.38
2815.00,95.38
2814.00,95.37
2813.00,95.37
2812.00,95.37
2811.00,95.37
2810.00,95.36
2809.00,95.35
2808.00,95.33
2807.00,95.31
2806.00,95.31
2805.00,95.32
2804.00,95.35
2803.00,95.38
2802.00,95.40
2801.00,95.40
2800.00,95.40
2799.00,95.39
2798.00,95.39
2797.00,95.39
2796.00,95.38
2795.00,95.38
2794.00,95.39
2793.00,95.40
2792.00,95.41
2791.00,95.42
2790.00,95.43
2789.00,95.44
2788.00,95.44
2787.00,95.43
2786.00,95.42
2785.00,95.42
2784.00,95.41
2783.00,95.42
2782.00,95.43
2781.00,95.44
2780.00,95.46
2779.00,95.46
2778.00,95.47
2777.00,95.47
2776.00,95.46
2775.00,95.45
2774.00,95.44
2773.00,95.44
2772.00,95.44
2771.00,95.44
2770.00,95.46
2769.00,95.46
2768.00,95.47
2767.00,95.48
2766.00,95.48
2765.00,95.49
2764.00,95.49
2763.00,95.49
2762.00,95.48
2761.00,95.47
2760.00,95.47
2759.00,95.47
2758.00,95.47
2757.00,95.48
2756.00,95.48
2755.00,95.49
2754.00,95.49
2753.00,95.49
2752.00,95.48
2751.00,95.48
2750.00,95.46
2749.00,95.45
2748.00,95.43
2747.00,95.42
2746.00,95.42
2745.00,95.42
2744.00,95.43
2743.00,95.44
2742.00,95.45
2741.00,95.44
2740.00,95.44
2739.00,95.45
2738.00,95.45
2737.00,95.45
2736.00,95.46
2735.00,95.46
2734.00,95.46
2733.00,95.45
2732.00,95.45
2731.00,95.45
2730.00,95.45
2729.00,95.47
2728.00,95.48
2727.00,95.48
2726.00,95.49
2725.00,95.49
2724.00,95.48
2723.00,95.48
2722.00,95.49
2721.00,95.50
2720.00,95.49
2719.00,95.49
2718.00,95.47
2717.00,95.47
2716.00,95.47
2715.00,95.47
2714.00,95.48
2713.00,95.49
2712.00,95.49
2711.00,95.49
2710.00,95.49
2709.00,95.49
2708.00,95.49
2707.00,95.49
2706.00,95.50
2705.00,95.51
2704.00,95.51
2703.00,95.52
2702.00,95.52
2701.00,95.52
2700.00,95.51
2699.00,95.51
2698.00,95.51
2697.00,95.52
2696.00,95.53
2695.00,95.54
2694.00,95.54
2693.00,95.54
2692.00,95.54
2691.00,95.53
2690.00,95.53
2689.00,95.53
2688.00,95.52
2687.00,95.52
2686.00,95.51
2685.00,95.51
2684.00,95.52
2683.00,95.53
2682.00,95.53
2681.00,95.52
2680.00,95.51
2679.00,95.50
2678.00,95.49
2677.00,95.49
2676.00,95.48
2675.00,95.47
2674.00,95.46
2673.00,95.45
2672.00,95.45
2671.00,95.45
2670.00,95.46
2669.00,95.47
2668.00,95.47
2667.00,95.48
2666.00,95.49
2665.00,95.50
2664.00,95.51
2663.00,95.50
2662.00,95.47
2661.00,95.45
2660.00,95.42
2659.00,95.40
2658.00,95.40
2657.00,95.40
2656.00,95.40
2655.00,95.40
2654.00,95.39
2653.00,95.37
2652.00,95.36
2651.00,95.35
2650.00,95.34
2649.00,95.32
2648.00,95.30
2647.00,95.29
2646.00,95.28
2645.00,95.28
2644.00,95.28
2643.00,95.29
2642.00,95.28
2641.00,95.27
2640.00,95.25
2639.00,95.23
2638.00,95.22
2637.00,95.21
2636.00,95.20
2635.00,95.19
2634.00,95.17
2633.00,95.16
2632.00,95.15
2631.00,95.15
2630.00,95.14
2629.00,95.13
2628.00,95.12
2627.00,95.11
2626.00,95.11
2625.00,95.11
2624.00,95.11
2623.00,95.11
2622.00,95.10
2621.00,95.09
2620.00,95.09
2619.00,95.09
2618.00,95.09
2617.00,95.08
2616.00,95.06
2615.00,95.05
2614.00,95.04
2613.00,95.04
2612.00,95.04
2611.00,95.04
2610.00,95.04
2609.00,95.04
2608.00,95.04
2607.00,95.04
2606.00,95.03
2605.00,95.01
2604.00,95.00
2603.00,94.99
2602.00,94.99
2601.00,94.99
2600.00,94.98
2599.00,94.95
2598.00,94.93
2597.00,94.92
2596.00,94.93
2595.00,94.94
2594.00,94.95
2593.00,94.95
2592.00,94.92
2591.00,94.89
2590.00,94.87
2589.00,94.86
2588.00,94.85
2587.00,94.85
2586.00,94.85
2585.00,94.85
2584.00,94.84
2583.00,94.84
2582.00,94.84
2581.00,94.84
2580.00,94.84
2579.00,94.84
2578.00,94.84
2577.00,94.84
2576.00,94.84
2575.00,94.84
2574.00,94.83
2573.00,94.82
2572.00,94.82
2571.00,94.82
2570.00,94.83
2569.00,94.83
2568.00,94.82
2567.00,94.80
2566.00,94.78
2565.00,94.77
2564.00,94.78
2563.00,94.80
2562.00,94.81
2561.00,94.82
2560.00,94.82
2559.00,94.81
2558.00,94.80
2557.00,94.79
2556.00,94.78
2555.00,94.77
2554.00,94.76
2553.00,94.76
2552.00,94.76
2551.00,94.76
2550.00,94.77
2549.00,94.77
2548.00,94.76
2547.00,94.74
2546.00,94.73
2545.00,94.72
2544.00,94.73
2543.00,94.74
2542.00,94.75
2541.00,94.75
2540.00,94.74
2539.00,94.72
2538.00,94.71
2537.00,94.70
2536.00,94.70
2535.00,94.70
2534.00,94.69
2533.00,94.69
2532.00,94.68
2531.00,94.68
2530.00,94.69
2529.00,94.72
2528.00,94.75
2527.00,94.76
2526.00,94.76
2525.00,94.74
2524.00,94.72
2523.00,94.70
2522.00,94.70
2521.00,94.71
2520.00,94.72
2519.00,94.72
2518.00,94.72
2517.00,94.73
2516.00,94.74
2515.00,94.75
2514.00,94.76
2513.00,94.77
2512.00,94.77
2511.00,94.77
2510.00,94.75
2509.00,94.74
2508.00,94.74
2507.00,94.75
2506.00,94.76
2505.00,94.75
2504.00,94.73
2503.00,94.72
2502.00,94.71
2501.00,94.72
2500.00,94.72
2499.00,94.73
2498.00,94.75
2497.00,94.77
2496.00,94.79
2495.00,94.79
2494.00,94.79
2493.00,94.77
2492.00,94.75
2491.00,94.72
2490.00,94.71
2489.00,94.71
2488.00,94.73
2487.00,94.75
2486.00,94.78
2485.00,94.79
2484.00,94.79
2483.00,94.78
2482.00,94.76
2481.00,94.73
2480.00,94.71
2479.00,94.71
2478.00,94.72
2477.00,94.73
2476.00,94.73
2475.00,94.73
2474.00,94.73
2473.00,94.74
2472.00,94.77
2471.00,94.80
2470.00,94.82
2469.00,94.83
2468.00,94.83
2467.00,94.82
2466.00,94.82
2465.00,94.81
2464.00,94.80
2463.00,94.80
2462.00,94.79
2461.00,94.78
2460.00,94.77
2459.00,94.77
2458.00,94.78
2457.00,94.79
2456.00,94.78
2455.00,94.77
2454.00,94.77
2453.00,94.77
2452.00,94.78
2451.00,94.79
2450.00,94.79
2449.00,94.79
2448.00,94.80
2447.00,94.80
2446.00,94.81
2445.00,94.81
2444.00,94.80
2443.00,94.79
2442.00,94.78
2441.00,94.78
2440.00,94.78
2439.00,94.79
2438.00,94.80
2437.00,94.79
2436.00,94.78
2435.00,94.76
2434.00,94.74
2433.00,94.72
2432.00,94.71
2431.00,94.71
2430.00,94.73
2429.00,94.75
2428.00,94.77
2427.00,94.79
2426.00,94.80
2425.00,94.81
2424.00,94.81
2423.00,94.80
2422.00,94.78
2421.00,94.77
2420.00,94.78
2419.00,94.79
2418.00,94.80
2417.00,94.80
2416.00,94.79
2415.00,94.78
2414.00,94.77
2413.00,94.76
2412.00,94.75
2411.00,94.74
2410.00,94.73
2409.00,94.72
2408.00,94.72
2407.00,94.74
2406.00,94.76
2405.00,94.78
2404.00,94.79
2403.00,94.79
2402.00,94.79
2401.00,94.79
2400.00,94.80
2399.00,94.81
2398.00,94.81
2397.00,94.81
2396.00,94.80
2395.00,94.81
2394.00,94.82
2393.00,94.83
2392.00,94.82
2391.00,94.81
2390.00,94.79
2389.00,94.79
2388.00,94.81
2387.00,94.82
2386.00,94.84
2385.00,94.84
2384.00,94.84
2383.00,94.85
2382.00,94.86
2381.00,94.86
2380.00,94.86
2379.00,94.87
2378.00,94.88
2377.00,94.87
2376.00,94.84
2375.00,94.82
2374.00,94.82
2373.00,94.85
2372.00,94.86
2371.00,94.86
2370.00,94.84
2369.00,94.83
2368.00,94.84
2367.00,94.88
2366.00,94.93
2365.00,94.99
2364.00,95.00
2363.00,94.94
2362.00,94.82
2361.00,94.72
2360.00,94.65
2359.00,94.64
2358.00,94.66
2357.00,94.69
2356.00,94.73
2355.00,94.76
2354.00,94.80
2353.00,94.84
2352.00,94.88
2351.00,94.92
2350.00,94.94
2349.00,94.92
2348.00,94.91
2347.00,94.91
2346.00,94.94
2345.00,94.99
2344.00,95.04
2343.00,95.06
2342.00,95.03
2341.00,94.97
2340.00,94.90
2339.00,94.86
2338.00,94.86
2337.00,94.90
2336.00,94.93
2335.00,94.95
2334.00,94.96
2333.00,94.96
2332.00,94.96
2331.00,94.97
2330.00,94.98
2329.00,94.96
2328.00,94.93
2327.00,94.87
2326.00,94.82
2325.00,94.79
2324.00,94.81
2323.00,94.86
2322.00,94.91
2321.00,94.92
2320.00,94.89
2319.00,94.85
2318.00,94.80
2317.00,94.78
2316.00,94.78
2315.00,94.79
2314.00,94.82
2313.00,94.85
2312.00,94.86
2311.00,94.86
2310.00,94.83
2309.00,94.78
2308.00,94.73
2307.00,94.69
2306.00,94.67
2305.00,94.66
2304.00,94.67
2303.00,94.67
2302.00,94.67
2301.00,94.66
2300.00,94.65
2299.00,94.62
2298.00,94.60
2297.00,94.58
2296.00,94.57
2295.00,94.57
2294.00,94.57
2293.00,94.56
2292.00,94.52
2291.00,94.48
2290.00,94.45
2289.00,94.41
2288.00,94.38
2287.00,94.35
2286.00,94.32
2285.00,94.31
2284.00,94.31
2283.00,94.33
2282.00,94.35
2281.00,94.35
2280.00,94.33
2279.00,94.30
2278.00,94.27
2277.00,94.23
2276.00,94.18
2275.00,94.16
2274.00,94.16
2273.00,94.19
2272.00,94.23
2271.00,94.24
2270.00,94.24
2269.00,94.23
2268.00,94.21
2267.00,94.20
2266.00,94.19
2265.00,94.18
2264.00,94.18
2263.00,94.18
2262.00,94.19
2261.00,94.20
2260.00,94.19
2259.00,94.15
2258.00,94.10
2257.00,94.06
2256.00,94.03
2255.00,94.02
2254.00,94.02
2253.00,94.03
2252.00,94.04
2251.00,94.02
2250.00,93.98
2249.00,93.94
2248.00,93.92
2247.00,93.91
2246.00,93.90
2245.00,93.89
2244.00,93.88
2243.00,93.91
2242.00,93.96
2241.00,94.00
2240.00,94.02
2239.00,94.02
2238.00,94.00
2237.00,93.99
2236.00,93.99
2235.00,93.98
2234.00,93.96
2233.00,93.93
2232.00,93.88
2231.00,93.86
2230.00,93.85
2229.00,93.87
2228.00,93.88
2227.00,93.89
2226.00,93.90
2225.00,93.93
2224.00,93.99
2223.00,94.02
2222.00,94.00
2221.00,93.94
2220.00,93.84
2219.00,93.75
2218.00,93.71
2217.00,93.71
2216.00,93.74
2215.00,93.77
2214.00,93.77
2213.00,93.75
2212.00,93.72
2211.00,93.71
2210.00,93.75
2209.00,93.80
2208.00,93.86
2207.00,93.88
2206.00,93.85
2205.00,93.81
2204.00,93.77
2203.00,93.74
2202.00,93.73
2201.00,93.71
2200.00,93.71
2199.00,93.71
2198.00,93.73
2197.00,93.77
2196.00,93.79
2195.00,93.78
2194.00,93.73
2193.00,93.70
2192.00,93.69
2191.00,93.70
2190.00,93.69
2189.00,93.64
2188.00,93.56
2187.00,93.49
2186.00,93.43
2185.00,93.39
2184.00,93.38
2183.00,93.39
2182.00,93.40
2181.00,93.41
2180.00,93.43
2179.00,93.46
2178.00,93.51
2177.00,93.56
2176.00,93.59
2175.00,93.61
2174.00,93.60
2173.00,93.56
2172.00,93.50
2171.00,93.42
2170.00,93.33
2169.00,93.26
2168.00,93.22
2167.00,93.20
2166.00,93.20
2165.00,93.17
2164.00,93.11
2163.00,93.01
2162.00,92.94
2161.00,92.97
2160.00,93.12
2159.00,93.34
2158.00,93.54
2157.00,93.67
2156.00,93.72
2155.00,93.73
2154.00,93.72
2153.00,93.71
2152.00,93.71
2151.00,93.71
2150.00,93.70
2149.00,93.69
2148.00,93.69
2147.00,93.72
2146.00,93.78
2145.00,93.84
2144.00,93.91
2143.00,93.97
2142.00,94.01
2141.00,94.01
2140.00,93.99
2139.00,93.98
2138.00,94.01
2137.00,94.07
2136.00,94.15
2135.00,94.20
2134.00,94.22
2133.00,94.20
2132.00,94.18
2131.00,94.18
2130.00,94.18
2129.00,94.19
2128.00,94.18
2127.00,94.17
2126.00,94.17
2125.00,94.18
2124.00,94.20
2123.00,94.23
2122.00,94.24
2121.00,94.23
2120.00,94.22
2119.00,94.20
2118.00,94.17
2117.00,94.14
2116.00,94.10
2115.00,94.06
2114.00,94.03
2113.00,94.01
2112.00,94.02
2111.00,94.04
2110.00,94.06
2109.00,94.05
2108.00,94.02
2107.00,94.01
2106.00,94.00
2105.00,94.00
2104.00,93.99
2103.00,93.97
2102.00,93.95
2101.00,93.94
2100.00,93.95
2099.00,93.96
2098.00,93.99
2097.00,94.03
2096.00,94.09
2095.00,94.16
2094.00,94.20
2093.00,94.20
2092.00,94.15
2091.00,94.10
2090.00,94.06
2089.00,94.05
2088.00,94.05
2087.00,94.05
2086.00,94.05
2085.00,94.03
2084.00,94.00
2083.00,93.99
2082.00,93.99
2081.00,93.99
2080.00,93.99
2079.00,93.99
2078.00,94.01
2077.00,94.06
2076.00,94.09
2075.00,94.11
2074.00,94.13
2073.00,94.13
2072.00,94.11
2071.00,94.07
2070.00,94.02
2069.00,93.99
2068.00,93.98
2067.00,94.00
2066.00,94.01
2065.00,94.03
2064.00,94.06
2063.00,94.08
2062.00,94.11
2061.00,94.14
2060.00,94.15
2059.00,94.16
2058.00,94.15
2057.00,94.13
2056.00,94.12
2055.00,94.10
2054.00,94.07
2053.00,94.01
2052.00,93.93
2051.00,93.86
2050.00,93.85
2049.00,93.91
2048.00,93.98
2047.00,94.01
2046.00,93.98
2045.00,93.92
2044.00,93.88
2043.00,93.86
2042.00,93.84
2041.00,93.81
2040.00,93.77
2039.00,93.73
2038.00,93.70
2037.00,93.68
2036.00,93.67
2035.00,93.67
2034.00,93.68
2033.00,93.70
2032.00,93.69
2031.00,93.68
2030.00,93.69
2029.00,93.74
2028.00,93.79
2027.00,93.82
2026.00,93.81
2025.00,93.79
2024.00,93.77
2023.00,93.76
2022.00,93.74
2021.00,93.72
2020.00,93.71
2019.00,93.73
2018.00,93.78
2017.00,93.84
2016.00,93.87
2015.00,93.84
2014.00,93.78
2013.00,93.74
2012.00,93.75
2011.00,93.81
2010.00,93.88
2009.00,93.94
2008.00,93.95
2007.00,93.94
2006.00,93.93
2005.00,93.94
2004.00,93.93
2003.00,93.92
2002.00,93.91
2001.00,93.92
2000.00,93.95
1999.00,93.97
1998.00,93.98
1997.00,93.98
1996.00,93.98
1995.00,93.97
1994.00,93.94
1993.00,93.90
1992.00,93.85
1991.00,93.82
1990.00,93.82
1989.00,93.83
1988.00,93.82
1987.00,93.78
1986.00,93.73
1985.00,93.68
1984.00,93.65
1983.00,93.62
1982.00,93.61
1981.00,93.59
1980.00,93.57
1979.00,93.55
1978.00,93.54
1977.00,93.55
1976.00,93.58
1975.00,93.59
1974.00,93.56
1973.00,93.53
1972.00,93.52
1971.00,93.53
1970.00,93.55
1969.00,93.57
1968.00,93.60
1967.00,93.66
1966.00,93.74
1965.00,93.81
1964.00,93.82
1963.00,93.80
1962.00,93.77
1961.00,93.75
1960.00,93.74
1959.00,93.75
1958.00,93.78
1957.00,93.84
1956.00,93.89
1955.00,93.93
1954.00,93.93
1953.00,93.92
1952.00,93.91
1951.00,93.94
1950.00,93.98
1949.00,94.04
1948.00,94.08
1947.00,94.11
1946.00,94.15
1945.00,94.19
1944.00,94.21
1943.00,94.21
1942.00,94.22
1941.00,94.25
1940.00,94.29
1939.00,94.33
1938.00,94.36
1937.00,94.39
1936.00,94.43
1935.00,94.46
1934.00,94.49
1933.00,94.52
1932.00,94.55
1931.00,94.58
1930.00,94.60
1929.00,94.60
1928.00,94.61
1927.00,94.63
1926.00,94.69
1925.00,94.76
1924.00,94.82
1923.00,94.86
1922.00,94.88
1921.00,94.89
1920.00,94.91
1919.00,94.92
1918.00,94.93
1917.00,94.93
1916.00,94.92
1915.00,94.90
1914.00,94.89
1913.00,94.89
1912.00,94.92
1911.00,94.96
1910.00,94.99
1909.00,95.02
1908.00,95.03
1907.00,95.03
1906.00,95.02
1905.00,95.02
1904.00,95.03
1903.00,95.06
1902.00,95.08
1901.00,95.10
1900.00,95.12
1899.00,95.15
1898.00,95.18
1897.00,95.22
1896.00,95.25
1895.00,95.27
1894.00,95.27
1893.00,95.27
1892.00,95.27
1891.00,95.27
1890.00,95.27
1889.00,95.28
1888.00,95.29
1887.00,95.31
1886.00,95.33
1885.00,95.36
1884.00,95.39
1883.00,95.41
1882.00,95.44
1881.00,95.47
1880.00,95.50
1879.00,95.51
1878.00,95.51
1877.00,95.50
1876.00,95.49
1875.00,95.48
1874.00,95.50
1873.00,95.53
1872.00,95.55
1871.00,95.57
1870.00,95.56
1869.00,95.56
1868.00,95.57
1867.00,95.59
1866.00,95.59
1865.00,95.58
1864.00,95.57
1863.00,95.57
1862.00,95.59
1861.00,95.60
1860.00,95.60
1859.00,95.57
1858.00,95.54
1857.00,95.53
1856.00,95.54
1855.00,95.57
1854.00,95.60
1853.00,95.62
1852.00,95.62
1851.00,95.60
1850.00,95.57
1849.00,95.55
1848.00,95.55
1847.00,95.55
1846.00,95.55
1845.00,95.55
1844.00,95.54
1843.00,95.54
1842.00,95.55
1841.00,95.57
1840.00,95.57
1839.00,95.56
1838.00,95.54
1837.00,95.52
1836.00,95.52
1835.00,95.54
1834.00,95.56
1833.00,95.56
1832.00,95.55
1831.00,95.54
1830.00,95.53
1829.00,95.53
1828.00,95.55
1827.00,95.56
1826.00,95.56
1825.00,95.57
1824.00,95.58
1823.00,95.58
1822.00,95.58
1821.00,95.57
1820.00,95.57
1819.00,95.58
1818.00,95.61
1817.00,95.65
1816.00,95.68
1815.00,95.70
1814.00,95.71
1813.00,95.72
1812.00,95.75
1811.00,95.77
1810.00,95.78
1809.00,95.80
1808.00,95.81
1807.00,95.82
1806.00,95.83
1805.00,95.86
1804.00,95.89
1803.00,95.92
1802.00,95.96
1801.00,96.01
1800.00,96.05
1799.00,96.07
1798.00,96.08
1797.00,96.09
1796.00,96.11
1795.00,96.13
1794.00,96.15
1793.00,96.17
1792.00,96.19
1791.00,96.22
1790.00,96.25
1789.00,96.27
1788.00,96.27
1787.00,96.27
1786.00,96.27
1785.00,96.29
1784.00,96.33
1783.00,96.35
1782.00,96.36
1781.00,96.37
1780.00,96.38
1779.00,96.40
1778.00,96.43
1777.00,96.46
1776.00,96.49
1775.00,96.51
1774.00,96.52
1773.00,96.52
1772.00,96.52
1771.00,96.51
1770.00,96.51
1769.00,96.52
1768.00,96.54
1767.00,96.56
1766.00,96.57
1765.00,96.57
1764.00,96.56
1763.00,96.54
1762.00,96.52
1761.00,96.50
1760.00,96.49
1759.00,96.47
1758.00,96.43
1757.00,96.38
1756.00,96.30
1755.00,96.19
1754.00,96.07
1753.00,95.93
1752.00,95.77
1751.00,95.53
1750.00,95.21
1749.00,94.82
1748.00,94.33
1747.00,93.74
1746.00,93.07
1745.00,92.33
1744.00,91.50
1743.00,90.58
1742.00,89.58
1741.00,88.47
1740.00,87.23
1739.00,85.99
1738.00,84.89
1737.00,83.92
1736.00,82.89
1735.00,81.55
1734.00,79.95
1733.00,78.50
1732.00,77.30
1731.00,76.15
1730.00,74.93
1729.00,73.67
1728.00,72.44
1727.00,71.24
1726.00,70.04
1725.00,68.82
1724.00,67.60
1723.00,66.38
1722.00,65.20
1721.00,64.10
1720.00,63.03
1719.00,61.85
1718.00,60.59
1717.00,59.54
1716.00,58.88
1715.00,58.50
1714.00,58.38
1713.00,58.57
1712.00,59.09
1711.00,59.86
1710.00,60.83
1709.00,61.99
1708.00,63.29
1707.00,64.72
1706.00,66.30
1705.00,67.91
1704.00,69.28
1703.00,70.34
1702.00,71.35
1701.00,72.72
1700.00,74.32
1699.00,75.59
1698.00,76.42
1697.00,77.16
1696.00,78.04
1695.00,78.93
1694.00,79.61
1693.00,80.10
1692.00,80.52
1691.00,80.96
1690.00,81.43
1689.00,81.86
1688.00,82.20
1687.00,82.45
1686.00,82.67
1685.00,82.94
1684.00,83.29
1683.00,83.62
1682.00,83.87
1681.00,84.09
1680.00,84.34
1679.00,84.62
1678.00,84.89
1677.00,85.15
1676.00,85.44
1675.00,85.75
1674.00,86.03
1673.00,86.25
1672.00,86.44
1671.00,86.64
1670.00,86.87
1669.00,87.13
1668.00,87.37
1667.00,87.59
1666.00,87.79
1665.00,87.99
1664.00,88.20
1663.00,88.43
1662.00,88.63
1661.00,88.82
1660.00,88.98
1659.00,89.13
1658.00,89.28
1657.00,89.42
1656.00,89.53
1655.00,89.64
1654.00,89.79
1653.00,89.97
1652.00,90.11
1651.00,90.18
1650.00,90.22
1649.00,90.25
1648.00,90.31
1647.00,90.39
1646.00,90.48
1645.00,90.54
1644.00,90.59
1643.00,90.65
1642.00,90.72
1641.00,90.79
1640.00,90.86
1639.00,90.92
1638.00,90.97
1637.00,91.02
1636.00,91.07
1635.00,91.12
1634.00,91.16
1633.00,91.21
1632.00,91.27
1631.00,91.33
1630.00,91.38
1629.00,91.42
1628.00,91.47
1627.00,91.52
1626.00,91.55
1625.00,91.58
1624.00,91.60
1623.00,91.62
1622.00,91.63
1621.00,91.63
1620.00,91.62
1619.00,91.60
1618.00,91.53
1617.00,91.44
1616.00,91.36
1615.00,91.33
1614.00,91.33
1613.00,91.35
1612.00,91.38
1611.00,91.44
1610.00,91.52
1609.00,91.62
1608.00,91.70
1607.00,91.79
1606.00,91.86
1605.00,91.94
1604.00,92.01
1603.00,92.09
1602.00,92.15
1601.00,92.21
1600.00,92.26
1599.00,92.31
1598.00,92.36
1597.00,92.41
1596.00,92.46
1595.00,92.52
1594.00,92.58
1593.00,92.62
1592.00,92.64
1591.00,92.65
1590.00,92.64
1589.00,92.63
1588.00,92.61
1587.00,92.57
1586.00,92.48
1585.00,92.35
1584.00,92.18
1583.00,91.98
1582.00,91.75
1581.00,91.53
1580.00,91.34
1579.00,91.20
1578.00,91.14
1577.00,91.18
1576.00,91.31
1575.00,91.47
1574.00,91.61
1573.00,91.73
1572.00,91.84
1571.00,91.96
1570.00,92.10
1569.00,92.23
1568.00,92.35
1567.00,92.43
1566.00,92.51
1565.00,92.58
1564.00,92.65
1563.00,92.73
1562.00,92.80
1561.00,92.88
1560.00,92.94
1559.00,92.97
1558.00,93.01
1557.00,93.02
1556.00,93.03
1555.00,93.06
1554.00,93.11
1553.00,93.15
1552.00,93.17
1551.00,93.19
1550.00,93.19
1549.00,93.20
1548.00,93.19
1547.00,93.17
1546.00,93.17
1545.00,93.19
1544.00,93.24
1543.00,93.29
1542.00,93.32
1541.00,93.33
1540.00,93.34
1539.00,93.36
1538.00,93.38
1537.00,93.40
1536.00,93.41
1535.00,93.42
1534.00,93.43
1533.00,93.45
1532.00,93.48
1531.00,93.50
1530.00,93.50
1529.00,93.50
1528.00,93.50
1527.00,93.51
1526.00,93.52
1525.00,93.54
1524.00,93.55
1523.00,93.57
1522.00,93.60
1521.00,93.68
1520.00,93.76
1519.00,93.82
1518.00,93.84
1517.00,93.86
1516.00,93.87
1515.00,93.86
1514.00,93.80
1513.00,93.69
1512.00,93.51
1511.00,93.24
1510.00,92.87
1509.00,92.34
1508.00,91.56
1507.00,90.62
1506.00,89.92
1505.00,89.74
1504.00,89.95
1503.00,90.42
1502.00,91.02
1501.00,91.64
1500.00,92.23
1499.00,92.72
1498.00,93.13
1497.00,93.45
1496.00,93.70
1495.00,93.87
1494.00,93.97
1493.00,94.02
1492.00,94.03
1491.00,94.04
1490.00,94.05
1489.00,94.04
1488.00,93.98
1487.00,93.88
1486.00,93.75
1485.00,93.62
1484.00,93.48
1483.00,93.36
1482.00,93.24
1481.00,93.11
1480.00,92.96
1479.00,92.81
1478.00,92.64
1477.00,92.45
1476.00,92.24
1475.00,91.99
1474.00,91.70
1473.00,91.39
1472.00,91.17
1471.00,91.12
1470.00,91.22
1469.00,91.41
1468.00,91.62
1467.00,91.82
1466.00,91.97
1465.00,92.05
1464.00,92.07
1463.00,92.03
1462.00,91.97
1461.00,91.91
1460.00,91.84
1459.00,91.79
1458.00,91.76
1457.00,91.75
1456.00,91.74
1455.00,91.71
1454.00,91.67
1453.00,91.64
1452.00,91.65
1451.00,91.67
1450.00,91.72
1449.00,91.77
1448.00,91.85
1447.00,91.93
1446.00,91.99
1445.00,92.04
1444.00,92.08
1443.00,92.12
1442.00,92.17
1441.00,92.22
1440.00,92.29
1439.00,92.37
1438.00,92.49
1437.00,92.66
1436.00,92.84
1435.00,93.01
1434.00,93.15
1433.00,93.28
1432.00,93.42
1431.00,93.57
1430.00,93.71
1429.00,93.83
1428.00,93.92
1427.00,93.97
1426.00,94.01
1425.00,94.03
1424.00,94.01
1423.00,93.94
1422.00,93.81
1421.00,93.61
1420.00,93.28
1419.00,92.77
1418.00,92.10
1417.00,91.29
1416.00,90.29
1415.00,89.08
1414.00,87.71
1413.00,86.27
1412.00,84.89
1411.00,83.74
1410.00,82.96
1409.00,82.60
1408.00,82.65
1407.00,83.09
1406.00,83.87
1405.00,84.83
1404.00,85.82
1403.00,86.71
1402.00,87.47
1401.00,88.14
1400.00,88.77
1399.00,89.36
1398.00,89.85
1397.00,90.22
1396.00,90.50
1395.00,90.73
1394.00,90.92
1393.00,91.04
1392.00,91.09
1391.00,91.10
1390.00,91.09
1389.00,91.08
1388.00,91.07
1387.00,91.08
1386.00,91.11
1385.00,91.13
1384.00,91.15
1383.00,91.19
1382.00,91.25
1381.00,91.32
1380.00,91.40
1379.00,91.46
1378.00,91.50
1377.00,91.51
1376.00,91.49
1375.00,91.46
1374.00,91.42
1373.00,91.37
1372.00,91.32
1371.00,91.28
1370.00,91.30
1369.00,91.38
1368.00,91.53
1367.00,91.72
1366.00,91.93
1365.00,92.16
1364.00,92.42
1363.00,92.69
1362.00,92.93
1361.00,93.11
1360.00,93.21
1359.00,93.26
1358.00,93.28
1357.00,93.27
1356.00,93.23
1355.00,93.15
1354.00,93.01
1353.00,92.79
1352.00,92.49
1351.00,92.09
1350.00,91.56
1349.00,90.87
1348.00,90.00
1347.00,88.91
1346.00,87.62
1345.00,86.15
1344.00,84.58
1343.00,83.02
1342.00,81.59
1341.00,80.42
1340.00,79.66
1339.00,79.45
1338.00,79.80
1337.00,80.65
1336.00,81.86
1335.00,83.31
1334.00,84.87
1333.00,86.41
1332.00,87.83
1331.00,89.07
1330.00,90.08
1329.00,90.86
1328.00,91.44
1327.00,91.86
1326.00,92.13
1325.00,92.31
1324.00,92.42
1323.00,92.47
1322.00,92.48
1321.00,92.45
1320.00,92.41
1319.00,92.36
1318.00,92.30
1317.00,92.21
1316.00,92.09
1315.00,91.94
1314.00,91.76
1313.00,91.59
1312.00,91.42
1311.00,91.24
1310.00,91.05
1309.00,90.83
1308.00,90.60
1307.00,90.37
1306.00,90.12
1305.00,89.86
1304.00,89.57
1303.00,89.24
1302.00,88.87
1301.00,88.45
1300.00,87.97
1299.00,87.46
1298.00,86.92
1297.00,86.37
1296.00,85.80
1295.00,85.24
1294.00,84.67
1293.00,84.11
1292.00,83.56
1291.00,83.03
1290.00,82.51
1289.00,81.99
1288.00,81.47
1287.00,80.96
1286.00,80.46
1285.00,79.96
1284.00,79.45
1283.00,78.94
1282.00,78.42
1281.00,77.90
1280.00,77.37
1279.00,76.82
1278.00,76.25
1277.00,75.65
1276.00,75.02
1275.00,74.37
1274.00,73.69
1273.00,72.99
1272.00,72.26
1271.00,71.50
1270.00,70.72
1269.00,69.90
1268.00,69.06
1267.00,68.22
1266.00,67.42
1265.00,66.65
1264.00,65.91
1263.00,65.24
1262.00,64.63
1261.00,64.09
1260.00,63.59
1259.00,63.14
1258.00,62.72
1257.00,62.29
1256.00,61.83
1255.00,61.34
1254.00,60.81
1253.00,60.23
1252.00,59.60
1251.00,58.92
1250.00,58.24
1249.00,57.54
1248.00,56.85
1247.00,56.21
1246.00,55.61
1245.00,55.06
1244.00,54.56
1243.00,54.14
1242.00,53.82
1241.00,53.62
1240.00,53.55
1239.00,53.63
1238.00,53.86
1237.00,54.20
1236.00,54.63
1235.00,55.17
1234.00,55.81
1233.00,56.51
1232.00,57.23
1231.00,57.98
1230.00,58.74
1229.00,59.48
1228.00,60.17
1227.00,60.82
1226.00,61.44
1225.00,62.02
1224.00,62.59
1223.00,63.17
1222.00,63.79
1221.00,64.43
1220.00,65.10
1219.00,65.79
1218.00,66.52
1217.00,67.23
1216.00,67.91
1215.00,68.57
1214.00,69.20
1213.00,69.81
1212.00,70.38
1211.00,70.94
1210.00,71.50
1209.00,72.05
1208.00,72.58
1207.00,73.11
1206.00,73.64
1205.00,74.16
1204.00,74.68
1203.00,75.21
1202.00,75.75
1201.00,76.28
1200.00,76.80
1199.00,77.32
1198.00,77.83
1197.00,78.34
1196.00,78.83
1195.00,79.31
1194.00,79.78
1193.00,80.24
1192.00,80.70
1191.00,81.16
1190.00,81.58
1189.00,81.97
1188.00,82.32
1187.00,82.64
1186.00,82.92
1185.00,83.16
1184.00,83.34
1183.00,83.50
1182.00,83.63
1181.00,83.73
1180.00,83.79
1179.00,83.83
1178.00,83.85
1177.00,83.86
1176.00,83.89
1175.00,83.97
1174.00,84.10
1173.00,84.26
1172.00,84.45
1171.00,84.71
1170.00,85.01
1169.00,85.35
1168.00,85.70
1167.00,86.05
1166.00,86.37
1165.00,86.63
1164.00,86.84
1163.00,87.00
1162.00,87.13
1161.00,87.24
1160.00,87.35
1159.00,87.45
1158.00,87.54
1157.00,87.62
1156.00,87.67
1155.00,87.67
1154.00,87.65
1153.00,87.58
1152.00,87.46
1151.00,87.32
1150.00,87.14
1149.00,86.92
1148.00,86.67
1147.00,86.38
1146.00,86.04
1145.00,85.66
1144.00,85.20
1143.00,84.68
1142.00,84.10
1141.00,83.46
1140.00,82.75
1139.00,81.97
1138.00,81.07
1137.00,80.07
1136.00,78.97
1135.00,77.82
1134.00,76.63
1133.00,75.41
1132.00,74.16
1131.00,72.90
1130.00,71.67
1129.00,70.46
1128.00,69.29
1127.00,68.20
1126.00,67.22
1125.00,66.33
1124.00,65.53
1123.00,64.81
1122.00,64.20
1121.00,63.67
1120.00,63.25
1119.00,62.97
1118.00,62.83
1117.00,62.79
1116.00,62.81
1115.00,62.85
1114.00,62.84
1113.00,62.74
1112.00,62.57
1111.00,62.32
1110.00,62.01
1109.00,61.59
1108.00,61.06
1107.00,60.45
1106.00,59.80
1105.00,59.13
1104.00,58.45
1103.00,57.79
1102.00,57.18
1101.00,56.60
1100.00,56.07
1099.00,55.64
1098.00,55.30
1097.00,55.03
1096.00,54.83
1095.00,54.71
1094.00,54.68
1093.00,54.71
1092.00,54.80
1091.00,54.95
1090.00,55.16
1089.00,55.39
1088.00,55.63
1087.00,55.92
1086.00,56.26
1085.00,56.62
1084.00,57.01
1083.00,57.47
1082.00,58.01
1081.00,58.61
1080.00,59.28
1079.00,60.01
1078.00,60.79
1077.00,61.56
1076.00,62.30
1075.00,63.04
1074.00,63.76
1073.00,64.46
1072.00,65.13
1071.00,65.78
1070.00,66.42
1069.00,67.02
1068.00,67.58
1067.00,68.13
1066.00,68.67
1065.00,69.17
1064.00,69.63
1063.00,70.08
1062.00,70.50
1061.00,70.90
1060.00,71.28
1059.00,71.66
1058.00,72.01
1057.00,72.31
1056.00,72.56
1055.00,72.76
1054.00,72.95
1053.00,73.10
1052.00,73.23
1051.00,73.35
1050.00,73.45
1049.00,73.53
1048.00,73.59
1047.00,73.69
1046.00,73.82
1045.00,73.99
1044.00,74.15
1043.00,74.34
1042.00,74.54
1041.00,74.76
1040.00,75.00
1039.00,75.27
1038.00,75.58
1037.00,75.93
1036.00,76.30
1035.00,76.71
1034.00,77.15
1033.00,77.60
1032.00,78.05
1031.00,78.45
1030.00,78.73
1029.00,78.74
1028.00,78.32
1027.00,77.34
1026.00,75.79
1025.00,73.82
1024.00,71.69
1023.00,69.65
1022.00,67.84
1021.00,66.24
1020.00,64.80
1019.00,63.56
1018.00,62.63
1017.00,62.17
1016.00,62.29
1015.00,62.99
1014.00,64.13
1013.00,65.48
1012.00,66.85
1011.00,68.13
1010.00,69.29
1009.00,70.31
1008.00,71.19
1007.00,71.97
1006.00,72.63
1005.00,73.21
1004.00,73.70
1003.00,74.14
1002.00,74.54
1001.00,74.91
1000.00,75.25
999.00,75.58
998.00,75.88
997.00,76.15
996.00,76.38
995.00,76.58
994.00,76.77
993.00,76.92
992.00,77.03
991.00,77.12
990.00,77.20
989.00,77.28
988.00,77.36
987.00,77.45
986.00,77.56
985.00,77.66
984.00,77.74
983.00,77.77
982.00,77.77
981.00,77.70
980.00,77.56
979.00,77.35
978.00,77.05
977.00,76.68
976.00,76.25
975.00,75.78
974.00,75.32
973.00,74.88
972.00,74.52
971.00,74.27
970.00,74.14
969.00,74.12
968.00,74.20
967.00,74.36
966.00,74.61
965.00,74.90
964.00,75.23
963.00,75.58
962.00,75.93
961.00,76.27
960.00,76.58
959.00,76.87
958.00,77.15
957.00,77.42
956.00,77.69
955.00,77.96
954.00,78.22
953.00,78.45
952.00,78.65
951.00,78.84
950.00,79.02
949.00,79.20
948.00,79.37
947.00,79.55
946.00,79.72
945.00,79.87
944.00,80.00
943.00,80.12
942.00,80.23
941.00,80.35
940.00,80.46
939.00,80.58
938.00,80.70
937.00,80.81
936.00,80.91
935.00,81.00
934.00,81.09
933.00,81.19
932.00,81.29
931.00,81.40
930.00,81.50
929.00,81.57
928.00,81.65
927.00,81.73
926.00,81.84
925.00,81.96
924.00,82.06
923.00,82.15
922.00,82.23
921.00,82.28
920.00,82.33
919.00,82.37
918.00,82.42
917.00,82.44
916.00,82.45
915.00,82.44
914.00,82.43
913.00,82.42
912.00,82.41
911.00,82.39
910.00,82.35
909.00,82.27
908.00,82.15
907.00,82.01
906.00,81.87
905.00,81.73
904.00,81.61
903.00,81.51
902.00,81.45
901.00,81.40
900.00,81.36
899.00,81.32
898.00,81.30
897.00,81.31
896.00,81.36
895.00,81.45
894.00,81.56
893.00,81.67
892.00,81.77
891.00,81.86
890.00,81.92
889.00,81.94
888.00,81.92
887.00,81.84
886.00,81.73
885.00,81.56
884.00,81.34
883.00,81.04
882.00,80.65
881.00,80.17
880.00,79.59
879.00,78.93
878.00,78.15
877.00,77.19
876.00,75.96
875.00,74.43
874.00,72.76
873.00,71.32
872.00,70.56
871.00,70.72
870.00,71.68
869.00,73.03
868.00,74.37
867.00,75.51
866.00,76.39
865.00,77.05
864.00,77.54
863.00,77.90
862.00,78.16
861.00,78.33
860.00,78.41
859.00,78.42
858.00,78.36
857.00,78.23
856.00,78.05
855.00,77.85
854.00,77.65
853.00,77.41
852.00,77.09
851.00,76.70
850.00,76.30
849.00,75.91
848.00,75.59
847.00,75.41
846.00,75.40
845.00,75.53
844.00,75.77
843.00,76.08
842.00,76.41
841.00,76.75
840.00,77.09
839.00,77.42
838.00,77.74
837.00,78.03
836.00,78.31
835.00,78.58
834.00,78.86
833.00,79.13
832.00,79.37
831.00,79.61
830.00,79.83
829.00,80.04
828.00,80.22
827.00,80.40
826.00,80.56
825.00,80.72
824.00,80.85
823.00,80.99
822.00,81.12
821.00,81.24
820.00,81.36
819.00,81.46
818.00,81.57
817.00,81.65
816.00,81.72
815.00,81.77
814.00,81.81
813.00,81.87
812.00,81.92
811.00,81.98
810.00,82.04
809.00,82.11
808.00,82.19
807.00,82.26
806.00,82.31
805.00,82.32
804.00,82.30
803.00,82.30
802.00,82.36
801.00,82.43
800.00,82.48
799.00,82.45
798.00,82.30
797.00,82.00
796.00,81.59
795.00,81.13
794.00,80.72
793.00,80.44
792.00,80.35
791.00,80.45
790.00,80.70
789.00,81.01
788.00,81.35
787.00,81.69
786.00,82.00
785.00,82.27
784.00,82.53
783.00,82.79
782.00,83.07
781.00,83.33
780.00,83.55
779.00,83.76
778.00,83.95
777.00,84.13
776.00,84.29
775.00,84.45
774.00,84.63
773.00,84.82
772.00,84.99
771.00,85.15
770.00,85.32
769.00,85.51
768.00,85.71
767.00,85.90
766.00,86.06
765.00,86.22
764.00,86.39
763.00,86.58
762.00,86.75
761.00,86.88
760.00,87.00
759.00,87.16
758.00,87.36
757.00,87.57
756.00,87.79
755.00,88.00
754.00,88.20
753.00,88.39
752.00,88.57
751.00,88.74
750.00,88.92
749.00,89.09
748.00,89.26
747.00,89.40
746.00,89.48
745.00,89.43
744.00,89.23
743.00,88.87
742.00,88.30
741.00,87.44
740.00,86.21
739.00,84.57
738.00,82.57
737.00,80.24
736.00,77.65
735.00,74.88
734.00,71.98
733.00,68.97
732.00,65.94
731.00,62.93
730.00,59.98
729.00,57.05
728.00,54.18
727.00,51.48
726.00,49.11
725.00,47.29
724.00,46.19
723.00,45.88
722.00,46.32
721.00,47.37
720.00,48.85
719.00,50.60
718.00,52.44
717.00,54.24
716.00,55.95
715.00,57.54
714.00,59.00
713.00,60.30
712.00,61.45
711.00,62.46
710.00,63.37
709.00,64.21
708.00,64.99
707.00,65.74
706.00,66.46
705.00,67.13
704.00,67.76
703.00,68.35
702.00,68.94
701.00,69.54
700.00,70.17
699.00,70.84
698.00,71.52
697.00,72.16
696.00,72.72
695.00,73.21
694.00,73.64
693.00,74.04
692.00,74.38
691.00,74.70
690.00,75.01
689.00,75.34
688.00,75.65
687.00,75.91
686.00,76.10
685.00,76.20
684.00,76.24
683.00,76.26
682.00,76.31
681.00,76.42
680.00,76.57
679.00,76.74
678.00,76.92
677.00,77.10
676.00,77.32
675.00,77.57
674.00,77.83
673.00,78.08
672.00,78.29
671.00,78.46
670.00,78.62
669.00,78.77
668.00,78.87
667.00,78.90
666.00,78.95
665.00,79.05
664.00,79.17
663.00,79.27
662.00,79.36
661.00,79.49
660.00,79.66
659.00,79.86
658.00,80.01
657.00,80.08
656.00,80.10
655.00,80.11
654.00,80.16
653.00,80.25
652.00,80.33
651.00,80.40
650.00,80.47
649.00,80.55
648.00,80.63
647.00,80.70
646.00,80.75
645.00,80.79
644.00,80.83
643.00,80.88
642.00,80.92
641.00,80.94
640.00,80.94
639.00,80.97
638.00,81.10
637.00,81.27
636.00,81.36
635.00,81.24
634.00,80.90
633.00,80.50
632.00,80.24
631.00,80.26
630.00,80.52
629.00,80.91
628.00,81.27
627.00,81.54
626.00,81.71
625.00,81.82
624.00,81.86
623.00,81.83
622.00,81.75
621.00,81.69
620.00,81.73
619.00,81.89
618.00,82.15
617.00,82.43
616.00,82.61
615.00,82.50
614.00,82.11
613.00,81.72
612.00,81.61
611.00,81.80
610.00,82.07
609.00,82.17
608.00,82.13
607.00,82.08
606.00,82.14
605.00,82.22
604.00,81.97
603.00,80.99
602.00,79.39
601.00,77.98
600.00,77.71
599.00,78.81
598.00,80.55
597.00,81.91
596.00,82.53
595.00,82.72
594.00,82.77
593.00,82.72
592.00,82.63
591.00,82.67
590.00,82.87
589.00,83.00
588.00,82.95
587.00,82.88
586.00,83.01
585.00,83.31
584.00,83.57
583.00,83.51
582.00,82.99
581.00,82.10
580.00,81.35
579.00,81.26
578.00,81.88
577.00,82.75
576.00,83.46
575.00,83.96
574.00,84.27
573.00,84.32
572.00,84.07
571.00,83.66
570.00,83.27
569.00,83.02
568.00,82.98
567.00,83.17
566.00,83.35
565.00,83.21
564.00,82.81
563.00,82.44
562.00,82.24
561.00,82.10
560.00,82.00
559.00,82.14
558.00,82.57
557.00,83.11
556.00,83.62
555.00,84.10
554.00,84.31
553.00,84.03
552.00,83.39
551.00,83.11
550.00,83.49
