Created as New Dataset,132. Polyester Albany International
cm-1,%T
4000.00,99.00
3999.00,99.01
3998.00,99.01
3997.00,99.00
3996.00,98.98
3995.00,98.97
3994.00,98.97
3993.00,98.97
3992.00,98.96
3991.00,98.94
3990.00,98.92
3989.00,98.91
3988.00,98.92
3987.00,98.95
3986.00,98.98
3985.00,99.00
3984.00,99.01
3983.00,99.01
3982.00,98.99
3981.00,98.97
3980.00,98.96
3979.00,98.96
3978.00,98.96
3977.00,98.97
3976.00,98.97
3975.00,98.97
3974.00,98.97
3973.00,98.98
3972.00,99.00
3971.00,99.00
3970.00,98.99
3969.00,98.97
3968.00,98.95
3967.00,98.92
3966.00,98.90
3965.00,98.90
3964.00,98.92
3963.00,98.95
3962.00,99.00
3961.00,99.04
3960.00,99.06
3959.00,99.06
3958.00,99.06
3957.00,99.06
3956.00,99.06
3955.00,99.06
3954.00,99.05
3953.00,99.06
3952.00,99.07
3951.00,99.09
3950.00,99.09
3949.00,99.08
3948.00,99.06
3947.00,99.04
3946.00,99.03
3945.00,99.03
3944.00,99.02
3943.00,99.01
3942.00,98.99
3941.00,98.98
3940.00,98.97
3939.00,98.95
3938.00,98.94
3937.00,98.94
3936.00,98.94
3935.00,98.95
3934.00,98.96
3933.00,98.95
3932.00,98.95
3931.00,98.95
3930.00,98.96
3929.00,98.97
3928.00,98.99
3927.00,99.01
3926.00,99.03
3925.00,99.05
3924.00,99.06
3923.00,99.06
3922.00,99.05
3921.00,99.01
3920.00,98.97
3919.00,98.95
3918.00,98.95
3917.00,98.98
3916.00,99.01
3915.00,99.02
3914.00,99.01
3913.00,98.99
3912.00,98.97
3911.00,98.96
3910.00,98.98
3909.00,99.02
3908.00,99.04
3907.00,99.06
3906.00,99.06
3905.00,99.05
3904.00,99.05
3903.00,99.06
3902.00,99.06
3901.00,99.06
3900.00,99.05
3899.00,99.04
3898.00,99.03
3897.00,99.03
3896.00,99.02
3895.00,99.01
3894.00,99.00
3893.00,99.01
3892.00,99.00
3891.00,99.00
3890.00,99.00
3889.00,99.02
3888.00,99.04
3887.00,99.06
3886.00,99.08
3885.00,99.10
3884.00,99.13
3883.00,99.14
3882.00,99.11
3881.00,99.06
3880.00,99.01
3879.00,98.99
3878.00,98.99
3877.00,98.99
3876.00,98.98
3875.00,98.98
3874.00,99.00
3873.00,99.03
3872.00,99.06
3871.00,99.07
3870.00,99.05
3869.00,99.04
3868.00,99.04
3867.00,99.04
3866.00,99.01
3865.00,98.98
3864.00,98.95
3863.00,98.95
3862.00,98.97
3861.00,98.99
3860.00,99.00
3859.00,99.02
3858.00,99.05
3857.00,99.10
3856.00,99.14
3855.00,99.17
3854.00,99.16
3853.00,99.12
3852.00,99.11
3851.00,99.13
3850.00,99.14
3849.00,99.11
3848.00,99.08
3847.00,99.06
3846.00,99.04
3845.00,99.01
3844.00,98.98
3843.00,98.96
3842.00,98.97
3841.00,98.98
3840.00,98.99
3839.00,98.99
3838.00,98.99
3837.00,99.00
3836.00,99.03
3835.00,99.06
3834.00,99.07
3833.00,99.07
3832.00,99.05
3831.00,99.03
3830.00,99.01
3829.00,99.00
3828.00,98.98
3827.00,98.96
3826.00,98.96
3825.00,98.96
3824.00,98.98
3823.00,98.99
3822.00,98.99
3821.00,98.97
3820.00,98.98
3819.00,99.00
3818.00,99.02
3817.00,99.00
3816.00,98.97
3815.00,98.95
3814.00,98.96
3813.00,98.97
3812.00,98.95
3811.00,98.93
3810.00,98.91
3809.00,98.91
3808.00,98.92
3807.00,98.94
3806.00,98.98
3805.00,99.02
3804.00,99.06
3803.00,99.07
3802.00,99.06
3801.00,99.03
3800.00,99.02
3799.00,99.02
3798.00,99.01
3797.00,98.98
3796.00,98.94
3795.00,98.92
3794.00,98.91
3793.00,98.90
3792.00,98.89
3791.00,98.88
3790.00,98.87
3789.00,98.87
3788.00,98.88
3787.00,98.90
3786.00,98.92
3785.00,98.92
3784.00,98.92
3783.00,98.93
3782.00,98.93
3781.00,98.93
3780.00,98.93
3779.00,98.92
3778.00,98.92
3777.00,98.93
3776.00,98.94
3775.00,98.95
3774.00,98.97
3773.00,98.98
3772.00,98.98
3771.00,98.97
3770.00,98.94
3769.00,98.93
3768.00,98.94
3767.00,98.96
3766.00,98.96
3765.00,98.96
3764.00,98.96
3763.00,98.98
3762.00,99.00
3761.00,99.01
3760.00,99.02
3759.00,99.02
3758.00,99.03
3757.00,99.03
3756.00,99.03
3755.00,99.03
3754.00,99.03
3753.00,99.03
3752.00,99.02
3751.00,99.02
3750.00,99.02
3749.00,99.02
3748.00,99.02
3747.00,99.02
3746.00,99.02
3745.00,99.01
3744.00,98.99
3743.00,98.99
3742.00,99.01
3741.00,98.99
3740.00,98.94
3739.00,98.91
3738.00,98.92
3737.00,98.95
3736.00,98.99
3735.00,99.02
3734.00,99.04
3733.00,99.03
3732.00,99.00
3731.00,98.97
3730.00,98.96
3729.00,98.94
3728.00,98.93
3727.00,98.91
3726.00,98.90
3725.00,98.90
3724.00,98.91
3723.00,98.91
3722.00,98.91
3721.00,98.91
3720.00,98.90
3719.00,98.89
3718.00,98.87
3717.00,98.86
3716.00,98.87
3715.00,98.88
3714.00,98.90
3713.00,98.92
3712.00,98.95
3711.00,98.98
3710.00,99.00
3709.00,98.99
3708.00,98.96
3707.00,98.91
3706.00,98.87
3705.00,98.84
3704.00,98.83
3703.00,98.82
3702.00,98.82
3701.00,98.82
3700.00,98.84
3699.00,98.85
3698.00,98.85
3697.00,98.85
3696.00,98.84
3695.00,98.84
3694.00,98.85
3693.00,98.86
3692.00,98.87
3691.00,98.88
3690.00,98.87
3689.00,98.85
3688.00,98.82
3687.00,98.80
3686.00,98.79
3685.00,98.78
3684.00,98.78
3683.00,98.78
3682.00,98.79
3681.00,98.80
3680.00,98.82
3679.00,98.84
3678.00,98.88
3677.00,98.90
3676.00,98.88
3675.00,98.84
3674.00,98.83
3673.00,98.87
3672.00,98.91
3671.00,98.94
3670.00,98.95
3669.00,98.94
3668.00,98.94
3667.00,98.93
3666.00,98.89
3665.00,98.85
3664.00,98.81
3663.00,98.79
3662.00,98.78
3661.00,98.78
3660.00,98.79
3659.00,98.79
3658.00,98.79
3657.00,98.77
3656.00,98.75
3655.00,98.75
3654.00,98.77
3653.00,98.78
3652.00,98.77
3651.00,98.77
3650.00,98.76
3649.00,98.77
3648.00,98.79
3647.00,98.81
3646.00,98.82
3645.00,98.80
3644.00,98.77
3643.00,98.74
3642.00,98.72
3641.00,98.72
3640.00,98.73
3639.00,98.74
3638.00,98.75
3637.00,98.75
3636.00,98.75
3635.00,98.75
3634.00,98.75
3633.00,98.76
3632.00,98.78
3631.00,98.78
3630.00,98.77
3629.00,98.74
3628.00,98.73
3627.00,98.74
3626.00,98.74
3625.00,98.73
3624.00,98.73
3623.00,98.75
3622.00,98.79
3621.00,98.81
3620.00,98.79
3619.00,98.76
3618.00,98.75
3617.00,98.74
3616.00,98.74
3615.00,98.72
3614.00,98.68
3613.00,98.66
3612.00,98.66
3611.00,98.69
3610.00,98.72
3609.00,98.75
3608.00,98.76
3607.00,98.78
3606.00,98.80
3605.00,98.80
3604.00,98.81
3603.00,98.80
3602.00,98.80
3601.00,98.79
3600.00,98.79
3599.00,98.79
3598.00,98.79
3597.00,98.79
3596.00,98.77
3595.00,98.75
3594.00,98.72
3593.00,98.72
3592.00,98.74
3591.00,98.77
3590.00,98.79
3589.00,98.78
3588.00,98.76
3587.00,98.74
3586.00,98.75
3585.00,98.77
3584.00,98.78
3583.00,98.77
3582.00,98.74
3581.00,98.71
3580.00,98.68
3579.00,98.68
3578.00,98.69
3577.00,98.71
3576.00,98.73
3575.00,98.74
3574.00,98.74
3573.00,98.72
3572.00,98.71
3571.00,98.71
3570.00,98.72
3569.00,98.73
3568.00,98.73
3567.00,98.72
3566.00,98.71
3565.00,98.71
3564.00,98.71
3563.00,98.71
3562.00,98.70
3561.00,98.70
3560.00,98.69
3559.00,98.69
3558.00,98.70
3557.00,98.71
3556.00,98.71
3555.00,98.72
3554.00,98.72
3553.00,98.71
3552.00,98.69
3551.00,98.66
3550.00,98.64
3549.00,98.63
3548.00,98.63
3547.00,98.63
3546.00,98.64
3545.00,98.64
3544.00,98.63
3543.00,98.62
3542.00,98.62
3541.00,98.61
3540.00,98.62
3539.00,98.63
3538.00,98.64
3537.00,98.64
3536.00,98.64
3535.00,98.65
3534.00,98.67
3533.00,98.69
3532.00,98.71
3531.00,98.72
3530.00,98.71
3529.00,98.70
3528.00,98.68
3527.00,98.68
3526.00,98.70
3525.00,98.72
3524.00,98.72
3523.00,98.69
3522.00,98.65
3521.00,98.62
3520.00,98.61
3519.00,98.63
3518.00,98.65
3517.00,98.68
3516.00,98.68
3515.00,98.67
3514.00,98.66
3513.00,98.64
3512.00,98.63
3511.00,98.64
3510.00,98.66
3509.00,98.69
3508.00,98.71
3507.00,98.71
3506.00,98.71
3505.00,98.70
3504.00,98.70
3503.00,98.70
3502.00,98.70
3501.00,98.69
3500.00,98.68
3499.00,98.67
3498.00,98.68
3497.00,98.69
3496.00,98.69
3495.00,98.68
3494.00,98.66
3493.00,98.65
3492.00,98.64
3491.00,98.65
3490.00,98.67
3489.00,98.68
3488.00,98.68
3487.00,98.68
3486.00,98.68
3485.00,98.69
3484.00,98.71
3483.00,98.74
3482.00,98.76
3481.00,98.77
3480.00,98.76
3479.00,98.74
3478.00,98.72
3477.00,98.70
3476.00,98.69
3475.00,98.68
3474.00,98.69
3473.00,98.69
3472.00,98.69
3471.00,98.69
3470.00,98.68
3469.00,98.67
3468.00,98.64
3467.00,98.62
3466.00,98.61
3465.00,98.62
3464.00,98.63
3463.00,98.64
3462.00,98.65
3461.00,98.65
3460.00,98.65
3459.00,98.65
3458.00,98.65
3457.00,98.64
3456.00,98.63
3455.00,98.61
3454.00,98.60
3453.00,98.61
3452.00,98.61
3451.00,98.60
3450.00,98.57
3449.00,98.53
3448.00,98.51
3447.00,98.51
3446.00,98.51
3445.00,98.52
3444.00,98.52
3443.00,98.51
3442.00,98.51
3441.00,98.50
3440.00,98.50
3439.00,98.49
3438.00,98.49
3437.00,98.48
3436.00,98.46
3435.00,98.45
3434.00,98.44
3433.00,98.43
3432.00,98.43
3431.00,98.44
3430.00,98.46
3429.00,98.48
3428.00,98.48
3427.00,98.46
3426.00,98.44
3425.00,98.43
3424.00,98.44
3423.00,98.46
3422.00,98.48
3421.00,98.48
3420.00,98.48
3419.00,98.48
3418.00,98.50
3417.00,98.54
3416.00,98.58
3415.00,98.60
3414.00,98.60
3413.00,98.58
3412.00,98.55
3411.00,98.54
3410.00,98.53
3409.00,98.53
3408.00,98.55
3407.00,98.56
3406.00,98.58
3405.00,98.60
3404.00,98.61
3403.00,98.63
3402.00,98.64
3401.00,98.64
3400.00,98.63
3399.00,98.62
3398.00,98.61
3397.00,98.62
3396.00,98.65
3395.00,98.67
3394.00,98.70
3393.00,98.70
3392.00,98.69
3391.00,98.66
3390.00,98.64
3389.00,98.64
3388.00,98.67
3387.00,98.69
3386.00,98.70
3385.00,98.69
3384.00,98.67
3383.00,98.66
3382.00,98.67
3381.00,98.68
3380.00,98.70
3379.00,98.71
3378.00,98.71
3377.00,98.71
3376.00,98.71
3375.00,98.71
3374.00,98.72
3373.00,98.72
3372.00,98.73
3371.00,98.73
3370.00,98.72
3369.00,98.70
3368.00,98.68
3367.00,98.67
3366.00,98.66
3365.00,98.66
3364.00,98.66
3363.00,98.66
3362.00,98.67
3361.00,98.68
3360.00,98.69
3359.00,98.69
3358.00,98.69
3357.00,98.70
3356.00,98.70
3355.00,98.69
3354.00,98.68
3353.00,98.66
3352.00,98.65
3351.00,98.64
3350.00,98.64
3349.00,98.65
3348.00,98.66
3347.00,98.66
3346.00,98.66
3345.00,98.66
3344.00,98.65
3343.00,98.66
3342.00,98.67
3341.00,98.69
3340.00,98.71
3339.00,98.73
3338.00,98.75
3337.00,98.75
3336.00,98.75
3335.00,98.73
3334.00,98.70
3333.00,98.68
3332.00,98.67
3331.00,98.67
3330.00,98.67
3329.00,98.67
3328.00,98.67
3327.00,98.68
3326.00,98.68
3325.00,98.68
3324.00,98.68
3323.00,98.68
3322.00,98.67
3321.00,98.66
3320.00,98.66
3319.00,98.66
3318.00,98.67
3317.00,98.69
3316.00,98.70
3315.00,98.70
3314.00,98.69
3313.00,98.69
3312.00,98.69
3311.00,98.70
3310.00,98.70
3309.00,98.69
3308.00,98.67
3307.00,98.67
3306.00,98.67
3305.00,98.68
3304.00,98.69
3303.00,98.70
3302.00,98.69
3301.00,98.69
3300.00,98.69
3299.00,98.69
3298.00,98.69
3297.00,98.68
3296.00,98.67
3295.00,98.68
3294.00,98.69
3293.00,98.71
3292.00,98.72
3291.00,98.72
3290.00,98.71
3289.00,98.72
3288.00,98.73
3287.00,98.73
3286.00,98.73
3285.00,98.73
3284.00,98.73
3283.00,98.74
3282.00,98.75
3281.00,98.76
3280.00,98.77
3279.00,98.79
3278.00,98.80
3277.00,98.81
3276.00,98.79
3275.00,98.76
3274.00,98.71
3273.00,98.66
3272.00,98.63
3271.00,98.62
3270.00,98.64
3269.00,98.69
3268.00,98.73
3267.00,98.76
3266.00,98.76
3265.00,98.75
3264.00,98.73
3263.00,98.71
3262.00,98.70
3261.00,98.69
3260.00,98.69
3259.00,98.69
3258.00,98.69
3257.00,98.69
3256.00,98.69
3255.00,98.69
3254.00,98.70
3253.00,98.71
3252.00,98.71
3251.00,98.70
3250.00,98.68
3249.00,98.66
3248.00,98.65
3247.00,98.65
3246.00,98.66
3245.00,98.67
3244.00,98.68
3243.00,98.69
3242.00,98.68
3241.00,98.67
3240.00,98.65
3239.00,98.63
3238.00,98.62
3237.00,98.61
3236.00,98.62
3235.00,98.64
3234.00,98.67
3233.00,98.70
3232.00,98.72
3231.00,98.72
3230.00,98.71
3229.00,98.70
3228.00,98.69
3227.00,98.70
3226.00,98.71
3225.00,98.72
3224.00,98.73
3223.00,98.72
3222.00,98.70
3221.00,98.68
3220.00,98.67
3219.00,98.68
3218.00,98.69
3217.00,98.71
3216.00,98.71
3215.00,98.70
3214.00,98.69
3213.00,98.69
3212.00,98.68
3211.00,98.68
3210.00,98.69
3209.00,98.70
3208.00,98.71
3207.00,98.72
3206.00,98.71
3205.00,98.71
3204.00,98.72
3203.00,98.72
3202.00,98.70
3201.00,98.68
3200.00,98.67
3199.00,98.67
3198.00,98.69
3197.00,98.72
3196.00,98.75
3195.00,98.76
3194.00,98.75
3193.00,98.74
3192.00,98.73
3191.00,98.73
3190.00,98.73
3189.00,98.73
3188.00,98.73
3187.00,98.74
3186.00,98.74
3185.00,98.74
3184.00,98.74
3183.00,98.74
3182.00,98.74
3181.00,98.73
3180.00,98.71
3179.00,98.69
3178.00,98.69
3177.00,98.70
3176.00,98.72
3175.00,98.74
3174.00,98.74
3173.00,98.74
3172.00,98.75
3171.00,98.76
3170.00,98.76
3169.00,98.75
3168.00,98.73
3167.00,98.71
3166.00,98.70
3165.00,98.69
3164.00,98.69
3163.00,98.67
3162.00,98.67
3161.00,98.68
3160.00,98.69
3159.00,98.70
3158.00,98.69
3157.00,98.69
3156.00,98.70
3155.00,98.71
3154.00,98.73
3153.00,98.73
3152.00,98.73
3151.00,98.71
3150.00,98.70
3149.00,98.69
3148.00,98.69
3147.00,98.70
3146.00,98.72
3145.00,98.73
3144.00,98.74
3143.00,98.76
3142.00,98.77
3141.00,98.77
3140.00,98.76
3139.00,98.73
3138.00,98.70
3137.00,98.68
3136.00,98.69
3135.00,98.70
3134.00,98.71
3133.00,98.72
3132.00,98.71
3131.00,98.71
3130.00,98.71
3129.00,98.71
3128.00,98.71
3127.00,98.70
3126.00,98.69
3125.00,98.69
3124.00,98.69
3123.00,98.68
3122.00,98.67
3121.00,98.66
3120.00,98.67
3119.00,98.69
3118.00,98.69
3117.00,98.68
3116.00,98.65
3115.00,98.63
3114.00,98.61
3113.00,98.61
3112.00,98.60
3111.00,98.60
3110.00,98.60
3109.00,98.61
3108.00,98.62
3107.00,98.64
3106.00,98.65
3105.00,98.64
3104.00,98.61
3103.00,98.59
3102.00,98.58
3101.00,98.59
3100.00,98.61
3099.00,98.62
3098.00,98.61
3097.00,98.60
3096.00,98.58
3095.00,98.58
3094.00,98.59
3093.00,98.60
3092.00,98.62
3091.00,98.64
3090.00,98.64
3089.00,98.63
3088.00,98.61
3087.00,98.58
3086.00,98.56
3085.00,98.55
3084.00,98.54
3083.00,98.55
3082.00,98.57
3081.00,98.59
3080.00,98.60
3079.00,98.60
3078.00,98.61
3077.00,98.63
3076.00,98.64
3075.00,98.65
3074.00,98.64
3073.00,98.62
3072.00,98.61
3071.00,98.61
3070.00,98.61
3069.00,98.61
3068.00,98.59
3067.00,98.57
3066.00,98.55
3065.00,98.54
3064.00,98.55
3063.00,98.57
3062.00,98.58
3061.00,98.59
3060.00,98.59
3059.00,98.58
3058.00,98.57
3057.00,98.56
3056.00,98.56
3055.00,98.56
3054.00,98.56
3053.00,98.57
3052.00,98.58
3051.00,98.60
3050.00,98.62
3049.00,98.64
3048.00,98.65
3047.00,98.66
3046.00,98.67
3045.00,98.69
3044.00,98.71
3043.00,98.73
3042.00,98.74
3041.00,98.75
3040.00,98.77
3039.00,98.79
3038.00,98.80
3037.00,98.80
3036.00,98.79
3035.00,98.78
3034.00,98.77
3033.00,98.76
3032.00,98.74
3031.00,98.74
3030.00,98.74
3029.00,98.75
3028.00,98.75
3027.00,98.74
3026.00,98.73
3025.00,98.72
3024.00,98.71
3023.00,98.70
3022.00,98.68
3021.00,98.65
3020.00,98.62
3019.00,98.59
3018.00,98.58
3017.00,98.57
3016.00,98.58
3015.00,98.58
3014.00,98.58
3013.00,98.56
3012.00,98.54
3011.00,98.51
3010.00,98.48
3009.00,98.47
3008.00,98.46
3007.00,98.46
3006.00,98.46
3005.00,98.46
3004.00,98.46
3003.00,98.46
3002.00,98.45
3001.00,98.44
3000.00,98.43
2999.00,98.42
2998.00,98.41
2997.00,98.41
2996.00,98.41
2995.00,98.40
2994.00,98.39
2993.00,98.38
2992.00,98.36
2991.00,98.33
2990.00,98.31
2989.00,98.30
2988.00,98.28
2987.00,98.27
2986.00,98.26
2985.00,98.24
2984.00,98.21
2983.00,98.17
2982.00,98.12
2981.00,98.09
2980.00,98.06
2979.00,98.04
2978.00,98.01
2977.00,97.99
2976.00,97.97
2975.00,97.94
2974.00,97.91
2973.00,97.88
2972.00,97.85
2971.00,97.83
2970.00,97.81
2969.00,97.79
2968.00,97.78
2967.00,97.78
2966.00,97.79
2965.00,97.80
2964.00,97.81
2963.00,97.83
2962.00,97.87
2961.00,97.91
2960.00,97.94
2959.00,97.95
2958.00,97.96
2957.00,97.97
2956.00,97.99
2955.00,98.02
2954.00,98.07
2953.00,98.11
2952.00,98.15
2951.00,98.18
2950.00,98.19
2949.00,98.21
2948.00,98.23
2947.00,98.25
2946.00,98.27
2945.00,98.30
2944.00,98.33
2943.00,98.37
2942.00,98.41
2941.00,98.44
2940.00,98.46
2939.00,98.47
2938.00,98.46
2937.00,98.45
2936.00,98.45
2935.00,98.47
2934.00,98.49
2933.00,98.50
2932.00,98.50
2931.00,98.50
2930.00,98.50
2929.00,98.50
2928.00,98.50
2927.00,98.50
2926.00,98.50
2925.00,98.50
2924.00,98.50
2923.00,98.48
2922.00,98.46
2921.00,98.44
2920.00,98.43
2919.00,98.43
2918.00,98.42
2917.00,98.40
2916.00,98.38
2915.00,98.36
2914.00,98.36
2913.00,98.35
2912.00,98.34
2911.00,98.33
2910.00,98.32
2909.00,98.31
2908.00,98.31
2907.00,98.31
2906.00,98.31
2905.00,98.31
2904.00,98.32
2903.00,98.33
2902.00,98.35
2901.00,98.37
2900.00,98.39
2899.00,98.41
2898.00,98.43
2897.00,98.44
2896.00,98.45
2895.00,98.46
2894.00,98.47
2893.00,98.48
2892.00,98.47
2891.00,98.46
2890.00,98.46
2889.00,98.46
2888.00,98.47
2887.00,98.48
2886.00,98.49
2885.00,98.50
2884.00,98.51
2883.00,98.52
2882.00,98.54
2881.00,98.55
2880.00,98.56
2879.00,98.57
2878.00,98.57
2877.00,98.58
2876.00,98.59
2875.00,98.60
2874.00,98.61
2873.00,98.61
2872.00,98.60
2871.00,98.59
2870.00,98.59
2869.00,98.59
2868.00,98.59
2867.00,98.59
2866.00,98.60
2865.00,98.61
2864.00,98.63
2863.00,98.64
2862.00,98.64
2861.00,98.63
2860.00,98.63
2859.00,98.63
2858.00,98.65
2857.00,98.67
2856.00,98.68
2855.00,98.69
2854.00,98.69
2853.00,98.69
2852.00,98.69
2851.00,98.70
2850.00,98.72
2849.00,98.74
2848.00,98.74
2847.00,98.74
2846.00,98.73
2845.00,98.73
2844.00,98.74
2843.00,98.75
2842.00,98.76
2841.00,98.77
2840.00,98.77
2839.00,98.77
2838.00,98.79
2837.00,98.81
2836.00,98.82
2835.00,98.81
2834.00,98.80
2833.00,98.79
2832.00,98.79
2831.00,98.79
2830.00,98.80
2829.00,98.81
2828.00,98.81
2827.00,98.80
2826.00,98.79
2825.00,98.79
2824.00,98.79
2823.00,98.79
2822.00,98.80
2821.00,98.81
2820.00,98.82
2819.00,98.84
2818.00,98.84
2817.00,98.85
2816.00,98.84
2815.00,98.84
2814.00,98.84
2813.00,98.84
2812.00,98.84
2811.00,98.84
2810.00,98.82
2809.00,98.81
2808.00,98.81
2807.00,98.80
2806.00,98.80
2805.00,98.80
2804.00,98.80
2803.00,98.82
2802.00,98.84
2801.00,98.85
2800.00,98.85
2799.00,98.85
2798.00,98.85
2797.00,98.85
2796.00,98.86
2795.00,98.87
2794.00,98.87
2793.00,98.87
2792.00,98.86
2791.00,98.84
2790.00,98.84
2789.00,98.85
2788.00,98.86
2787.00,98.86
2786.00,98.87
2785.00,98.87
2784.00,98.87
2783.00,98.87
2782.00,98.87
2781.00,98.86
2780.00,98.87
2779.00,98.88
2778.00,98.89
2777.00,98.89
2776.00,98.90
2775.00,98.91
2774.00,98.91
2773.00,98.92
2772.00,98.91
2771.00,98.90
2770.00,98.90
2769.00,98.91
2768.00,98.91
2767.00,98.92
2766.00,98.92
2765.00,98.92
2764.00,98.91
2763.00,98.91
2762.00,98.91
2761.00,98.91
2760.00,98.91
2759.00,98.92
2758.00,98.92
2757.00,98.93
2756.00,98.93
2755.00,98.94
2754.00,98.94
2753.00,98.94
2752.00,98.93
2751.00,98.92
2750.00,98.91
2749.00,98.90
2748.00,98.91
2747.00,98.92
2746.00,98.93
2745.00,98.94
2744.00,98.94
2743.00,98.94
2742.00,98.94
2741.00,98.95
2740.00,98.95
2739.00,98.95
2738.00,98.93
2737.00,98.92
2736.00,98.92
2735.00,98.93
2734.00,98.94
2733.00,98.95
2732.00,98.95
2731.00,98.94
2730.00,98.93
2729.00,98.92
2728.00,98.91
2727.00,98.91
2726.00,98.92
2725.00,98.94
2724.00,98.95
2723.00,98.96
2722.00,98.95
2721.00,98.94
2720.00,98.94
2719.00,98.94
2718.00,98.96
2717.00,98.98
2716.00,98.99
2715.00,98.99
2714.00,98.99
2713.00,98.99
2712.00,98.98
2711.00,98.97
2710.00,98.96
2709.00,98.96
2708.00,98.96
2707.00,98.97
2706.00,98.98
2705.00,98.99
2704.00,98.99
2703.00,99.00
2702.00,99.00
2701.00,99.00
2700.00,98.99
2699.00,98.97
2698.00,98.96
2697.00,98.96
2696.00,98.97
2695.00,98.99
2694.00,99.00
2693.00,99.01
2692.00,99.01
2691.00,99.01
2690.00,99.01
2689.00,99.01
2688.00,99.01
2687.00,99.01
2686.00,99.01
2685.00,99.01
2684.00,99.01
2683.00,99.01
2682.00,99.00
2681.00,98.99
2680.00,98.99
2679.00,98.98
2678.00,98.98
2677.00,98.98
2676.00,98.98
2675.00,98.99
2674.00,98.99
2673.00,98.99
2672.00,99.00
2671.00,99.02
2670.00,99.03
2669.00,99.03
2668.00,99.02
2667.00,99.00
2666.00,98.98
2665.00,98.98
2664.00,98.98
2663.00,99.00
2662.00,99.00
2661.00,98.99
2660.00,98.98
2659.00,98.96
2658.00,98.95
2657.00,98.95
2656.00,98.94
2655.00,98.94
2654.00,98.93
2653.00,98.92
2652.00,98.91
2651.00,98.91
2650.00,98.91
2649.00,98.92
2648.00,98.92
2647.00,98.92
2646.00,98.91
2645.00,98.90
2644.00,98.88
2643.00,98.88
2642.00,98.88
2641.00,98.88
2640.00,98.87
2639.00,98.87
2638.00,98.87
2637.00,98.86
2636.00,98.84
2635.00,98.83
2634.00,98.81
2633.00,98.80
2632.00,98.79
2631.00,98.79
2630.00,98.80
2629.00,98.81
2628.00,98.83
2627.00,98.83
2626.00,98.83
2625.00,98.82
2624.00,98.81
2623.00,98.79
2622.00,98.78
2621.00,98.76
2620.00,98.75
2619.00,98.75
2618.00,98.76
2617.00,98.77
2616.00,98.78
2615.00,98.78
2614.00,98.77
2613.00,98.76
2612.00,98.76
2611.00,98.75
2610.00,98.75
2609.00,98.74
2608.00,98.73
2607.00,98.74
2606.00,98.74
2605.00,98.74
2604.00,98.73
2603.00,98.72
2602.00,98.71
2601.00,98.70
2600.00,98.71
2599.00,98.71
2598.00,98.71
2597.00,98.71
2596.00,98.71
2595.00,98.70
2594.00,98.69
2593.00,98.68
2592.00,98.67
2591.00,98.68
2590.00,98.69
2589.00,98.69
2588.00,98.69
2587.00,98.67
2586.00,98.66
2585.00,98.66
2584.00,98.67
2583.00,98.68
2582.00,98.69
2581.00,98.68
2580.00,98.66
2579.00,98.65
2578.00,98.65
2577.00,98.66
2576.00,98.67
2575.00,98.67
2574.00,98.66
2573.00,98.64
2572.00,98.63
2571.00,98.61
2570.00,98.61
2569.00,98.60
2568.00,98.61
2567.00,98.63
2566.00,98.65
2565.00,98.67
2564.00,98.67
2563.00,98.67
2562.00,98.66
2561.00,98.64
2560.00,98.62
2559.00,98.61
2558.00,98.60
2557.00,98.61
2556.00,98.63
2555.00,98.64
2554.00,98.66
2553.00,98.68
2552.00,98.69
2551.00,98.70
2550.00,98.71
2549.00,98.70
2548.00,98.69
2547.00,98.67
2546.00,98.65
2545.00,98.64
2544.00,98.64
2543.00,98.65
2542.00,98.66
2541.00,98.68
2540.00,98.71
2539.00,98.72
2538.00,98.71
2537.00,98.69
2536.00,98.66
2535.00,98.65
2534.00,98.64
2533.00,98.64
2532.00,98.63
2531.00,98.62
2530.00,98.63
2529.00,98.65
2528.00,98.67
2527.00,98.67
2526.00,98.66
2525.00,98.65
2524.00,98.65
2523.00,98.66
2522.00,98.67
2521.00,98.67
2520.00,98.67
2519.00,98.65
2518.00,98.62
2517.00,98.61
2516.00,98.61
2515.00,98.62
2514.00,98.64
2513.00,98.66
2512.00,98.68
2511.00,98.71
2510.00,98.72
2509.00,98.72
2508.00,98.70
2507.00,98.67
2506.00,98.65
2505.00,98.63
2504.00,98.63
2503.00,98.63
2502.00,98.64
2501.00,98.65
2500.00,98.68
2499.00,98.72
2498.00,98.75
2497.00,98.76
2496.00,98.76
2495.00,98.74
2494.00,98.71
2493.00,98.69
2492.00,98.67
2491.00,98.67
2490.00,98.68
2489.00,98.71
2488.00,98.73
2487.00,98.75
2486.00,98.75
2485.00,98.74
2484.00,98.74
2483.00,98.75
2482.00,98.77
2481.00,98.77
2480.00,98.75
2479.00,98.73
2478.00,98.72
2477.00,98.72
2476.00,98.74
2475.00,98.74
2474.00,98.73
2473.00,98.72
2472.00,98.72
2471.00,98.74
2470.00,98.76
2469.00,98.78
2468.00,98.78
2467.00,98.77
2466.00,98.76
2465.00,98.77
2464.00,98.77
2463.00,98.77
2462.00,98.78
2461.00,98.79
2460.00,98.80
2459.00,98.79
2458.00,98.77
2457.00,98.75
2456.00,98.74
2455.00,98.74
2454.00,98.74
2453.00,98.72
2452.00,98.70
2451.00,98.69
2450.00,98.70
2449.00,98.72
2448.00,98.75
2447.00,98.77
2446.00,98.77
2445.00,98.77
2444.00,98.77
2443.00,98.77
2442.00,98.78
2441.00,98.79
2440.00,98.79
2439.00,98.79
2438.00,98.79
2437.00,98.79
2436.00,98.79
2435.00,98.78
2434.00,98.78
2433.00,98.79
2432.00,98.80
2431.00,98.79
2430.00,98.78
2429.00,98.76
2428.00,98.75
2427.00,98.75
2426.00,98.76
2425.00,98.77
2424.00,98.77
2423.00,98.76
2422.00,98.76
2421.00,98.75
2420.00,98.76
2419.00,98.77
2418.00,98.79
2417.00,98.81
2416.00,98.83
2415.00,98.85
2414.00,98.86
2413.00,98.86
2412.00,98.85
2411.00,98.83
2410.00,98.83
2409.00,98.83
2408.00,98.83
2407.00,98.82
2406.00,98.81
2405.00,98.80
2404.00,98.79
2403.00,98.78
2402.00,98.78
2401.00,98.79
2400.00,98.80
2399.00,98.82
2398.00,98.82
2397.00,98.82
2396.00,98.82
2395.00,98.82
2394.00,98.82
2393.00,98.83
2392.00,98.84
2391.00,98.84
2390.00,98.83
2389.00,98.82
2388.00,98.82
2387.00,98.84
2386.00,98.87
2385.00,98.90
2384.00,98.92
2383.00,98.93
2382.00,98.91
2381.00,98.90
2380.00,98.89
2379.00,98.90
2378.00,98.91
2377.00,98.93
2376.00,98.94
2375.00,98.94
2374.00,98.94
2373.00,98.94
2372.00,98.94
2371.00,98.93
2370.00,98.93
2369.00,98.94
2368.00,98.96
2367.00,98.98
2366.00,98.99
2365.00,98.96
2364.00,98.91
2363.00,98.83
2362.00,98.78
2361.00,98.80
2360.00,98.88
2359.00,98.99
2358.00,99.04
2357.00,99.00
2356.00,98.91
2355.00,98.87
2354.00,98.89
2353.00,98.93
2352.00,98.93
2351.00,98.92
2350.00,98.92
2349.00,98.97
2348.00,99.04
2347.00,99.11
2346.00,99.13
2345.00,99.11
2344.00,99.06
2343.00,99.03
2342.00,99.03
2341.00,99.07
2340.00,99.11
2339.00,99.13
2338.00,99.14
2337.00,99.13
2336.00,99.11
2335.00,99.07
2334.00,99.03
2333.00,99.00
2332.00,99.00
2331.00,99.01
2330.00,99.01
2329.00,99.01
2328.00,99.00
2327.00,98.98
2326.00,98.96
2325.00,98.94
2324.00,98.94
2323.00,98.93
2322.00,98.92
2321.00,98.88
2320.00,98.84
2319.00,98.81
2318.00,98.81
2317.00,98.84
2316.00,98.87
2315.00,98.88
2314.00,98.88
2313.00,98.88
2312.00,98.87
2311.00,98.85
2310.00,98.83
2309.00,98.82
2308.00,98.83
2307.00,98.82
2306.00,98.80
2305.00,98.78
2304.00,98.75
2303.00,98.74
2302.00,98.73
2301.00,98.71
2300.00,98.69
2299.00,98.69
2298.00,98.70
2297.00,98.73
2296.00,98.74
2295.00,98.72
2294.00,98.68
2293.00,98.64
2292.00,98.60
2291.00,98.59
2290.00,98.58
2289.00,98.57
2288.00,98.54
2287.00,98.50
2286.00,98.47
2285.00,98.47
2284.00,98.49
2283.00,98.51
2282.00,98.53
2281.00,98.53
2280.00,98.52
2279.00,98.50
2278.00,98.47
2277.00,98.45
2276.00,98.44
2275.00,98.43
2274.00,98.44
2273.00,98.45
2272.00,98.46
2271.00,98.46
2270.00,98.45
2269.00,98.43
2268.00,98.42
2267.00,98.41
2266.00,98.41
2265.00,98.43
2264.00,98.45
2263.00,98.46
2262.00,98.47
2261.00,98.46
2260.00,98.45
2259.00,98.43
2258.00,98.39
2257.00,98.35
2256.00,98.31
2255.00,98.29
2254.00,98.28
2253.00,98.28
2252.00,98.30
2251.00,98.33
2250.00,98.35
2249.00,98.35
2248.00,98.34
2247.00,98.34
2246.00,98.34
2245.00,98.36
2244.00,98.38
2243.00,98.40
2242.00,98.40
2241.00,98.39
2240.00,98.37
2239.00,98.36
2238.00,98.34
2237.00,98.33
2236.00,98.32
2235.00,98.32
2234.00,98.32
2233.00,98.33
2232.00,98.32
2231.00,98.30
2230.00,98.26
2229.00,98.23
2228.00,98.23
2227.00,98.25
2226.00,98.26
2225.00,98.25
2224.00,98.22
2223.00,98.20
2222.00,98.20
2221.00,98.22
2220.00,98.24
2219.00,98.25
2218.00,98.25
2217.00,98.23
2216.00,98.18
2215.00,98.14
2214.00,98.13
2213.00,98.16
2212.00,98.21
2211.00,98.24
2210.00,98.24
2209.00,98.22
2208.00,98.23
2207.00,98.24
2206.00,98.24
2205.00,98.21
2204.00,98.17
2203.00,98.16
2202.00,98.17
2201.00,98.20
2200.00,98.22
2199.00,98.23
2198.00,98.23
2197.00,98.21
2196.00,98.18
2195.00,98.13
2194.00,98.08
2193.00,98.04
2192.00,98.02
2191.00,98.04
2190.00,98.09
2189.00,98.12
2188.00,98.13
2187.00,98.11
2186.00,98.10
2185.00,98.12
2184.00,98.16
2183.00,98.17
2182.00,98.14
2181.00,98.08
2180.00,98.03
2179.00,98.01
2178.00,98.00
2177.00,97.99
2176.00,97.96
2175.00,97.92
2174.00,97.89
2173.00,97.87
2172.00,97.87
2171.00,97.87
2170.00,97.89
2169.00,97.88
2168.00,97.82
2167.00,97.74
2166.00,97.68
2165.00,97.66
2164.00,97.67
2163.00,97.67
2162.00,97.67
2161.00,97.72
2160.00,97.81
2159.00,97.92
2158.00,98.00
2157.00,98.02
2156.00,97.99
2155.00,97.93
2154.00,97.91
2153.00,97.95
2152.00,98.04
2151.00,98.12
2150.00,98.18
2149.00,98.23
2148.00,98.29
2147.00,98.33
2146.00,98.33
2145.00,98.29
2144.00,98.26
2143.00,98.27
2142.00,98.30
2141.00,98.35
2140.00,98.39
2139.00,98.42
2138.00,98.45
2137.00,98.49
2136.00,98.53
2135.00,98.56
2134.00,98.58
2133.00,98.62
2132.00,98.65
2131.00,98.66
2130.00,98.65
2129.00,98.63
2128.00,98.61
2127.00,98.59
2126.00,98.57
2125.00,98.56
2124.00,98.56
2123.00,98.57
2122.00,98.57
2121.00,98.57
2120.00,98.57
2119.00,98.57
2118.00,98.56
2117.00,98.56
2116.00,98.57
2115.00,98.59
2114.00,98.59
2113.00,98.57
2112.00,98.55
2111.00,98.54
2110.00,98.52
2109.00,98.51
2108.00,98.50
2107.00,98.50
2106.00,98.51
2105.00,98.54
2104.00,98.57
2103.00,98.58
2102.00,98.58
2101.00,98.56
2100.00,98.55
2099.00,98.55
2098.00,98.57
2097.00,98.58
2096.00,98.60
2095.00,98.62
2094.00,98.64
2093.00,98.65
2092.00,98.66
2091.00,98.67
2090.00,98.67
2089.00,98.65
2088.00,98.61
2087.00,98.56
2086.00,98.53
2085.00,98.52
2084.00,98.52
2083.00,98.51
2082.00,98.49
2081.00,98.49
2080.00,98.50
2079.00,98.51
2078.00,98.51
2077.00,98.49
2076.00,98.46
2075.00,98.45
2074.00,98.47
2073.00,98.52
2072.00,98.57
2071.00,98.59
2070.00,98.58
2069.00,98.58
2068.00,98.60
2067.00,98.62
2066.00,98.63
2065.00,98.62
2064.00,98.61
2063.00,98.61
2062.00,98.60
2061.00,98.58
2060.00,98.56
2059.00,98.56
2058.00,98.58
2057.00,98.59
2056.00,98.57
2055.00,98.57
2054.00,98.58
2053.00,98.59
2052.00,98.55
2051.00,98.47
2050.00,98.39
2049.00,98.33
2048.00,98.32
2047.00,98.32
2046.00,98.32
2045.00,98.33
2044.00,98.32
2043.00,98.29
2042.00,98.25
2041.00,98.22
2040.00,98.20
2039.00,98.21
2038.00,98.22
2037.00,98.23
2036.00,98.24
2035.00,98.25
2034.00,98.26
2033.00,98.26
2032.00,98.22
2031.00,98.15
2030.00,98.08
2029.00,98.08
2028.00,98.12
2027.00,98.20
2026.00,98.28
2025.00,98.36
2024.00,98.39
2023.00,98.37
2022.00,98.31
2021.00,98.26
2020.00,98.27
2019.00,98.36
2018.00,98.46
2017.00,98.52
2016.00,98.48
2015.00,98.38
2014.00,98.28
2013.00,98.23
2012.00,98.25
2011.00,98.27
2010.00,98.27
2009.00,98.23
2008.00,98.22
2007.00,98.24
2006.00,98.29
2005.00,98.34
2004.00,98.40
2003.00,98.45
2002.00,98.47
2001.00,98.44
2000.00,98.39
1999.00,98.35
1998.00,98.34
1997.00,98.34
1996.00,98.34
1995.00,98.34
1994.00,98.35
1993.00,98.39
1992.00,98.44
1991.00,98.47
1990.00,98.45
1989.00,98.38
1988.00,98.31
1987.00,98.25
1986.00,98.23
1985.00,98.23
1984.00,98.25
1983.00,98.26
1982.00,98.23
1981.00,98.15
1980.00,98.06
1979.00,98.00
1978.00,98.03
1977.00,98.13
1976.00,98.27
1975.00,98.38
1974.00,98.43
1973.00,98.41
1972.00,98.34
1971.00,98.26
1970.00,98.21
1969.00,98.18
1968.00,98.18
1967.00,98.20
1966.00,98.25
1965.00,98.31
1964.00,98.36
1963.00,98.39
1962.00,98.39
1961.00,98.40
1960.00,98.44
1959.00,98.50
1958.00,98.56
1957.00,98.58
1956.00,98.57
1955.00,98.55
1954.00,98.55
1953.00,98.58
1952.00,98.61
1951.00,98.63
1950.00,98.62
1949.00,98.61
1948.00,98.59
1947.00,98.58
1946.00,98.58
1945.00,98.59
1944.00,98.62
1943.00,98.66
1942.00,98.70
1941.00,98.74
1940.00,98.77
1939.00,98.80
1938.00,98.84
1937.00,98.87
1936.00,98.89
1935.00,98.90
1934.00,98.89
1933.00,98.88
1932.00,98.89
1931.00,98.90
1930.00,98.93
1929.00,98.95
1928.00,98.97
1927.00,99.00
1926.00,99.05
1925.00,99.10
1924.00,99.13
1923.00,99.15
1922.00,99.16
1921.00,99.16
1920.00,99.16
1919.00,99.18
1918.00,99.19
1917.00,99.20
1916.00,99.19
1915.00,99.19
1914.00,99.19
1913.00,99.20
1912.00,99.21
1911.00,99.24
1910.00,99.25
1909.00,99.27
1908.00,99.28
1907.00,99.32
1906.00,99.36
1905.00,99.38
1904.00,99.38
1903.00,99.36
1902.00,99.33
1901.00,99.31
1900.00,99.30
1899.00,99.30
1898.00,99.32
1897.00,99.35
1896.00,99.39
1895.00,99.43
1894.00,99.46
1893.00,99.47
1892.00,99.46
1891.00,99.45
1890.00,99.45
1889.00,99.46
1888.00,99.46
1887.00,99.45
1886.00,99.45
1885.00,99.44
1884.00,99.45
1883.00,99.45
1882.00,99.45
1881.00,99.44
1880.00,99.44
1879.00,99.45
1878.00,99.46
1877.00,99.49
1876.00,99.51
1875.00,99.52
1874.00,99.53
1873.00,99.54
1872.00,99.56
1871.00,99.58
1870.00,99.59
1869.00,99.57
1868.00,99.55
1867.00,99.56
1866.00,99.58
1865.00,99.60
1864.00,99.61
1863.00,99.62
1862.00,99.63
1861.00,99.64
1860.00,99.65
1859.00,99.65
1858.00,99.66
1857.00,99.65
1856.00,99.64
1855.00,99.62
1854.00,99.61
1853.00,99.59
1852.00,99.58
1851.00,99.57
1850.00,99.58
1849.00,99.60
1848.00,99.62
1847.00,99.64
1846.00,99.64
1845.00,99.61
1844.00,99.58
1843.00,99.56
1842.00,99.56
1841.00,99.57
1840.00,99.59
1839.00,99.60
1838.00,99.59
1837.00,99.59
1836.00,99.58
1835.00,99.57
1834.00,99.55
1833.00,99.54
1832.00,99.54
1831.00,99.53
1830.00,99.52
1829.00,99.53
1828.00,99.55
1827.00,99.58
1826.00,99.61
1825.00,99.64
1824.00,99.65
1823.00,99.63
1822.00,99.61
1821.00,99.59
1820.00,99.59
1819.00,99.60
1818.00,99.62
1817.00,99.63
1816.00,99.63
1815.00,99.64
1814.00,99.64
1813.00,99.66
1812.00,99.68
1811.00,99.69
1810.00,99.69
1809.00,99.69
1808.00,99.68
1807.00,99.69
1806.00,99.70
1805.00,99.71
1804.00,99.73
1803.00,99.73
1802.00,99.75
1801.00,99.77
1800.00,99.80
1799.00,99.81
1798.00,99.81
1797.00,99.81
1796.00,99.82
1795.00,99.84
1794.00,99.84
1793.00,99.83
1792.00,99.82
1791.00,99.82
1790.00,99.84
1789.00,99.85
1788.00,99.85
1787.00,99.85
1786.00,99.86
1785.00,99.87
1784.00,99.87
1783.00,99.87
1782.00,99.88
1781.00,99.89
1780.00,99.91
1779.00,99.93
1778.00,99.95
1777.00,99.96
1776.00,99.96
1775.00,99.95
1774.00,99.95
1773.00,99.96
1772.00,99.96
1771.00,99.96
1770.00,99.97
1769.00,99.98
1768.00,99.97
1767.00,99.96
1766.00,99.94
1765.00,99.93
1764.00,99.94
1763.00,99.94
1762.00,99.91
1761.00,99.87
1760.00,99.83
1759.00,99.78
1758.00,99.73
1757.00,99.68
1756.00,99.63
1755.00,99.57
1754.00,99.50
1753.00,99.40
1752.00,99.27
1751.00,99.09
1750.00,98.87
1749.00,98.63
1748.00,98.34
1747.00,97.99
1746.00,97.58
1745.00,97.12
1744.00,96.61
1743.00,96.04
1742.00,95.44
1741.00,94.78
1740.00,94.04
1739.00,93.28
1738.00,92.63
1737.00,92.09
1736.00,91.51
1735.00,90.70
1734.00,89.68
1733.00,88.75
1732.00,88.05
1731.00,87.41
1730.00,86.73
1729.00,86.00
1728.00,85.28
1727.00,84.58
1726.00,83.89
1725.00,83.20
1724.00,82.51
1723.00,81.83
1722.00,81.17
1721.00,80.57
1720.00,79.96
1719.00,79.22
1718.00,78.35
1717.00,77.55
1716.00,76.98
1715.00,76.57
1714.00,76.27
1713.00,76.13
1712.00,76.18
1711.00,76.40
1710.00,76.74
1709.00,77.24
1708.00,77.89
1707.00,78.67
1706.00,79.57
1705.00,80.50
1704.00,81.34
1703.00,82.04
1702.00,82.75
1701.00,83.66
1700.00,84.68
1699.00,85.50
1698.00,86.16
1697.00,86.83
1696.00,87.57
1695.00,88.24
1694.00,88.73
1693.00,89.10
1692.00,89.45
1691.00,89.82
1690.00,90.19
1689.00,90.54
1688.00,90.84
1687.00,91.09
1686.00,91.31
1685.00,91.55
1684.00,91.78
1683.00,91.99
1682.00,92.17
1681.00,92.35
1680.00,92.56
1679.00,92.77
1678.00,92.95
1677.00,93.11
1676.00,93.29
1675.00,93.47
1674.00,93.64
1673.00,93.80
1672.00,93.99
1671.00,94.19
1670.00,94.40
1669.00,94.60
1668.00,94.78
1667.00,94.93
1666.00,95.07
1665.00,95.22
1664.00,95.38
1663.00,95.56
1662.00,95.72
1661.00,95.87
1660.00,96.00
1659.00,96.12
1658.00,96.21
1657.00,96.30
1656.00,96.39
1655.00,96.49
1654.00,96.60
1653.00,96.68
1652.00,96.73
1651.00,96.78
1650.00,96.85
1649.00,96.94
1648.00,97.01
1647.00,97.07
1646.00,97.13
1645.00,97.18
1644.00,97.21
1643.00,97.25
1642.00,97.29
1641.00,97.33
1640.00,97.35
1639.00,97.38
1638.00,97.41
1637.00,97.45
1636.00,97.51
1635.00,97.56
1634.00,97.57
1633.00,97.58
1632.00,97.62
1631.00,97.65
1630.00,97.67
1629.00,97.68
1628.00,97.70
1627.00,97.75
1626.00,97.80
1625.00,97.84
1624.00,97.87
1623.00,97.88
1622.00,97.88
1621.00,97.88
1620.00,97.88
1619.00,97.88
1618.00,97.86
1617.00,97.81
1616.00,97.75
1615.00,97.72
1614.00,97.71
1613.00,97.71
1612.00,97.74
1611.00,97.77
1610.00,97.82
1609.00,97.88
1608.00,97.94
1607.00,98.01
1606.00,98.09
1605.00,98.17
1604.00,98.24
1603.00,98.30
1602.00,98.36
1601.00,98.42
1600.00,98.47
1599.00,98.52
1598.00,98.56
1597.00,98.59
1596.00,98.60
1595.00,98.61
1594.00,98.62
1593.00,98.62
1592.00,98.63
1591.00,98.63
1590.00,98.61
1589.00,98.59
1588.00,98.57
1587.00,98.55
1586.00,98.52
1585.00,98.45
1584.00,98.36
1583.00,98.26
1582.00,98.15
1581.00,98.06
1580.00,97.99
1579.00,97.96
1578.00,97.98
1577.00,98.06
1576.00,98.18
1575.00,98.30
1574.00,98.39
1573.00,98.47
1572.00,98.54
1571.00,98.61
1570.00,98.66
1569.00,98.71
1568.00,98.75
1567.00,98.80
1566.00,98.85
1565.00,98.89
1564.00,98.93
1563.00,98.97
1562.00,99.02
1561.00,99.06
1560.00,99.08
1559.00,99.08
1558.00,99.14
1557.00,99.19
1556.00,99.19
1555.00,99.21
1554.00,99.23
1553.00,99.24
1552.00,99.25
1551.00,99.27
1550.00,99.30
1549.00,99.33
1548.00,99.34
1547.00,99.34
1546.00,99.35
1545.00,99.38
1544.00,99.43
1543.00,99.47
1542.00,99.49
1541.00,99.50
1540.00,99.51
1539.00,99.52
1538.00,99.49
1537.00,99.45
1536.00,99.43
1535.00,99.41
1534.00,99.36
1533.00,99.33
1532.00,99.31
1531.00,99.31
1530.00,99.31
1529.00,99.31
1528.00,99.31
1527.00,99.33
1526.00,99.34
1525.00,99.36
1524.00,99.36
1523.00,99.37
1522.00,99.38
1521.00,99.41
1520.00,99.45
1519.00,99.47
1518.00,99.49
1517.00,99.50
1516.00,99.51
1515.00,99.49
1514.00,99.43
1513.00,99.32
1512.00,99.19
1511.00,99.04
1510.00,98.87
1509.00,98.64
1508.00,98.30
1507.00,97.85
1506.00,97.51
1505.00,97.37
1504.00,97.41
1503.00,97.63
1502.00,97.95
1501.00,98.27
1500.00,98.58
1499.00,98.84
1498.00,99.04
1497.00,99.20
1496.00,99.31
1495.00,99.38
1494.00,99.42
1493.00,99.43
1492.00,99.42
1491.00,99.40
1490.00,99.37
1489.00,99.34
1488.00,99.28
1487.00,99.19
1486.00,99.07
1485.00,98.94
1484.00,98.82
1483.00,98.71
1482.00,98.59
1481.00,98.47
1480.00,98.36
1479.00,98.24
1478.00,98.12
1477.00,97.99
1476.00,97.87
1475.00,97.75
1474.00,97.63
1473.00,97.50
1472.00,97.43
1471.00,97.45
1470.00,97.51
1469.00,97.60
1468.00,97.71
1467.00,97.80
1466.00,97.88
1465.00,97.92
1464.00,97.92
1463.00,97.89
1462.00,97.87
1461.00,97.84
1460.00,97.83
1459.00,97.81
1458.00,97.80
1457.00,97.79
1456.00,97.78
1455.00,97.75
1454.00,97.73
1453.00,97.72
1452.00,97.74
1451.00,97.76
1450.00,97.78
1449.00,97.82
1448.00,97.88
1447.00,97.94
1446.00,97.99
1445.00,98.01
1444.00,98.03
1443.00,98.05
1442.00,98.07
1441.00,98.10
1440.00,98.15
1439.00,98.21
1438.00,98.29
1437.00,98.39
1436.00,98.51
1435.00,98.63
1434.00,98.75
1433.00,98.86
1432.00,98.96
1431.00,99.05
1430.00,99.15
1429.00,99.25
1428.00,99.32
1427.00,99.36
1426.00,99.37
1425.00,99.37
1424.00,99.35
1423.00,99.30
1422.00,99.23
1421.00,99.11
1420.00,98.90
1419.00,98.56
1418.00,98.15
1417.00,97.66
1416.00,97.08
1415.00,96.38
1414.00,95.59
1413.00,94.75
1412.00,93.95
1411.00,93.28
1410.00,92.84
1409.00,92.63
1408.00,92.66
1407.00,92.91
1406.00,93.37
1405.00,93.94
1404.00,94.53
1403.00,95.07
1402.00,95.54
1401.00,95.94
1400.00,96.31
1399.00,96.65
1398.00,96.95
1397.00,97.18
1396.00,97.37
1395.00,97.52
1394.00,97.63
1393.00,97.71
1392.00,97.76
1391.00,97.80
1390.00,97.83
1389.00,97.85
1388.00,97.88
1387.00,97.91
1386.00,97.93
1385.00,97.93
1384.00,97.92
1383.00,97.92
1382.00,97.92
1381.00,97.92
1380.00,97.93
1379.00,97.93
1378.00,97.94
1377.00,97.94
1376.00,97.92
1375.00,97.89
1374.00,97.85
1373.00,97.81
1372.00,97.78
1371.00,97.77
1370.00,97.79
1369.00,97.85
1368.00,97.94
1367.00,98.05
1366.00,98.16
1365.00,98.29
1364.00,98.44
1363.00,98.60
1362.00,98.76
1361.00,98.88
1360.00,98.93
1359.00,98.94
1358.00,98.92
1357.00,98.88
1356.00,98.83
1355.00,98.76
1354.00,98.66
1353.00,98.52
1352.00,98.32
1351.00,98.05
1350.00,97.72
1349.00,97.30
1348.00,96.80
1347.00,96.20
1346.00,95.51
1345.00,94.75
1344.00,94.00
1343.00,93.32
1342.00,92.76
1341.00,92.38
1340.00,92.21
1339.00,92.28
1338.00,92.58
1337.00,93.05
1336.00,93.64
1335.00,94.31
1334.00,95.02
1333.00,95.73
1332.00,96.39
1331.00,96.97
1330.00,97.46
1329.00,97.83
1328.00,98.10
1327.00,98.29
1326.00,98.39
1325.00,98.43
1324.00,98.43
1323.00,98.39
1322.00,98.34
1321.00,98.28
1320.00,98.23
1319.00,98.16
1318.00,98.08
1317.00,97.99
1316.00,97.87
1315.00,97.74
1314.00,97.59
1313.00,97.44
1312.00,97.28
1311.00,97.12
1310.00,96.94
1309.00,96.76
1308.00,96.58
1307.00,96.40
1306.00,96.22
1305.00,96.05
1304.00,95.86
1303.00,95.64
1302.00,95.40
1301.00,95.13
1300.00,94.84
1299.00,94.52
1298.00,94.18
1297.00,93.83
1296.00,93.47
1295.00,93.12
1294.00,92.77
1293.00,92.43
1292.00,92.08
1291.00,91.73
1290.00,91.37
1289.00,91.01
1288.00,90.66
1287.00,90.32
1286.00,89.98
1285.00,89.64
1284.00,89.30
1283.00,88.96
1282.00,88.63
1281.00,88.29
1280.00,87.94
1279.00,87.57
1278.00,87.20
1277.00,86.81
1276.00,86.40
1275.00,86.00
1274.00,85.58
1273.00,85.15
1272.00,84.70
1271.00,84.24
1270.00,83.78
1269.00,83.30
1268.00,82.81
1267.00,82.34
1266.00,81.90
1265.00,81.50
1264.00,81.12
1263.00,80.80
1262.00,80.52
1261.00,80.29
1260.00,80.07
1259.00,79.89
1258.00,79.73
1257.00,79.57
1256.00,79.41
1255.00,79.23
1254.00,79.05
1253.00,78.83
1252.00,78.59
1251.00,78.34
1250.00,78.09
1249.00,77.84
1248.00,77.60
1247.00,77.39
1246.00,77.22
1245.00,77.06
1244.00,76.94
1243.00,76.85
1242.00,76.83
1241.00,76.89
1240.00,77.02
1239.00,77.24
1238.00,77.54
1237.00,77.92
1236.00,78.36
1235.00,78.88
1234.00,79.44
1233.00,80.03
1232.00,80.61
1231.00,81.19
1230.00,81.76
1229.00,82.31
1228.00,82.82
1227.00,83.30
1226.00,83.73
1225.00,84.13
1224.00,84.51
1223.00,84.90
1222.00,85.30
1221.00,85.72
1220.00,86.15
1219.00,86.61
1218.00,87.11
1217.00,87.60
1216.00,88.07
1215.00,88.50
1214.00,88.91
1213.00,89.31
1212.00,89.69
1211.00,90.05
1210.00,90.39
1209.00,90.72
1208.00,91.04
1207.00,91.38
1206.00,91.71
1205.00,92.02
1204.00,92.29
1203.00,92.54
1202.00,92.79
1201.00,93.03
1200.00,93.29
1199.00,93.55
1198.00,93.80
1197.00,94.03
1196.00,94.23
1195.00,94.40
1194.00,94.57
1193.00,94.74
1192.00,94.92
1191.00,95.10
1190.00,95.28
1189.00,95.43
1188.00,95.53
1187.00,95.60
1186.00,95.64
1185.00,95.68
1184.00,95.70
1183.00,95.71
1182.00,95.70
1181.00,95.67
1180.00,95.62
1179.00,95.58
1178.00,95.54
1177.00,95.51
1176.00,95.50
1175.00,95.50
1174.00,95.54
1173.00,95.63
1172.00,95.76
1171.00,95.91
1170.00,96.08
1169.00,96.24
1168.00,96.42
1167.00,96.60
1166.00,96.77
1165.00,96.90
1164.00,97.00
1163.00,97.06
1162.00,97.11
1161.00,97.14
1160.00,97.15
1159.00,97.14
1158.00,97.09
1157.00,97.02
1156.00,96.95
1155.00,96.88
1154.00,96.81
1153.00,96.72
1152.00,96.61
1151.00,96.48
1150.00,96.31
1149.00,96.11
1148.00,95.90
1147.00,95.65
1146.00,95.37
1145.00,95.06
1144.00,94.72
1143.00,94.37
1142.00,93.99
1141.00,93.58
1140.00,93.11
1139.00,92.61
1138.00,92.06
1137.00,91.48
1136.00,90.87
1135.00,90.24
1134.00,89.61
1133.00,88.97
1132.00,88.33
1131.00,87.70
1130.00,87.11
1129.00,86.56
1128.00,86.07
1127.00,85.61
1126.00,85.19
1125.00,84.77
1124.00,84.39
1123.00,84.05
1122.00,83.77
1121.00,83.55
1120.00,83.38
1119.00,83.28
1118.00,83.25
1117.00,83.28
1116.00,83.33
1115.00,83.37
1114.00,83.37
1113.00,83.29
1112.00,83.15
1111.00,82.98
1110.00,82.76
1109.00,82.47
1108.00,82.10
1107.00,81.66
1106.00,81.19
1105.00,80.70
1104.00,80.23
1103.00,79.80
1102.00,79.42
1101.00,79.09
1100.00,78.81
1099.00,78.58
1098.00,78.41
1097.00,78.28
1096.00,78.20
1095.00,78.20
1094.00,78.27
1093.00,78.38
1092.00,78.54
1091.00,78.73
1090.00,78.96
1089.00,79.18
1088.00,79.41
1087.00,79.66
1086.00,79.95
1085.00,80.26
1084.00,80.58
1083.00,80.93
1082.00,81.31
1081.00,81.75
1080.00,82.22
1079.00,82.74
1078.00,83.29
1077.00,83.85
1076.00,84.42
1075.00,84.98
1074.00,85.54
1073.00,86.06
1072.00,86.57
1071.00,87.06
1070.00,87.53
1069.00,87.95
1068.00,88.33
1067.00,88.68
1066.00,89.04
1065.00,89.38
1064.00,89.70
1063.00,89.96
1062.00,90.18
1061.00,90.39
1060.00,90.59
1059.00,90.76
1058.00,90.90
1057.00,91.00
1056.00,91.08
1055.00,91.15
1054.00,91.21
1053.00,91.25
1052.00,91.30
1051.00,91.35
1050.00,91.39
1049.00,91.39
1048.00,91.37
1047.00,91.35
1046.00,91.36
1045.00,91.40
1044.00,91.44
1043.00,91.50
1042.00,91.56
1041.00,91.63
1040.00,91.72
1039.00,91.85
1038.00,91.99
1037.00,92.14
1036.00,92.29
1035.00,92.43
1034.00,92.57
1033.00,92.72
1032.00,92.85
1031.00,92.95
1030.00,92.96
1029.00,92.83
1028.00,92.52
1027.00,91.99
1026.00,91.25
1025.00,90.35
1024.00,89.38
1023.00,88.43
1022.00,87.53
1021.00,86.67
1020.00,85.86
1019.00,85.19
1018.00,84.79
1017.00,84.75
1016.00,85.12
1015.00,85.84
1014.00,86.78
1013.00,87.78
1012.00,88.74
1011.00,89.58
1010.00,90.29
1009.00,90.88
1008.00,91.37
1007.00,91.77
1006.00,92.11
1005.00,92.39
1004.00,92.62
1003.00,92.82
1002.00,93.00
1001.00,93.17
1000.00,93.33
999.00,93.48
998.00,93.59
997.00,93.68
996.00,93.76
995.00,93.85
994.00,93.94
993.00,94.00
992.00,94.03
991.00,94.04
990.00,94.04
989.00,94.06
988.00,94.09
987.00,94.12
986.00,94.13
985.00,94.14
984.00,94.14
983.00,94.13
982.00,94.07
981.00,93.98
980.00,93.85
979.00,93.70
978.00,93.55
977.00,93.38
976.00,93.19
975.00,93.01
974.00,92.83
973.00,92.68
972.00,92.56
971.00,92.48
970.00,92.47
969.00,92.54
968.00,92.67
967.00,92.83
966.00,93.00
965.00,93.19
964.00,93.38
963.00,93.56
962.00,93.73
961.00,93.88
960.00,94.03
959.00,94.18
958.00,94.33
957.00,94.46
956.00,94.59
955.00,94.71
954.00,94.84
953.00,94.95
952.00,95.05
951.00,95.13
950.00,95.20
949.00,95.27
948.00,95.34
947.00,95.43
946.00,95.51
945.00,95.58
944.00,95.65
943.00,95.71
942.00,95.76
941.00,95.80
940.00,95.84
939.00,95.88
938.00,95.92
937.00,95.96
936.00,95.99
935.00,96.03
934.00,96.06
933.00,96.10
932.00,96.14
931.00,96.20
930.00,96.26
929.00,96.32
928.00,96.38
927.00,96.42
926.00,96.45
925.00,96.47
924.00,96.51
923.00,96.56
922.00,96.61
921.00,96.66
920.00,96.70
919.00,96.73
918.00,96.76
917.00,96.77
916.00,96.78
915.00,96.77
914.00,96.75
913.00,96.73
912.00,96.71
911.00,96.70
910.00,96.69
909.00,96.66
908.00,96.60
907.00,96.53
906.00,96.47
905.00,96.42
904.00,96.37
903.00,96.33
902.00,96.30
901.00,96.27
900.00,96.22
899.00,96.17
898.00,96.13
897.00,96.13
896.00,96.16
895.00,96.21
894.00,96.25
893.00,96.29
892.00,96.32
891.00,96.31
890.00,96.29
889.00,96.26
888.00,96.22
887.00,96.13
886.00,95.99
885.00,95.78
884.00,95.53
883.00,95.24
882.00,94.90
881.00,94.50
880.00,94.04
879.00,93.51
878.00,92.92
877.00,92.24
876.00,91.44
875.00,90.51
874.00,89.56
873.00,88.83
872.00,88.60
871.00,88.96
870.00,89.76
869.00,90.73
868.00,91.64
867.00,92.39
866.00,92.96
865.00,93.36
864.00,93.65
863.00,93.86
862.00,94.00
861.00,94.08
860.00,94.10
859.00,94.08
858.00,94.03
857.00,93.94
856.00,93.85
855.00,93.77
854.00,93.70
853.00,93.61
852.00,93.45
851.00,93.24
850.00,93.01
849.00,92.82
848.00,92.70
847.00,92.69
846.00,92.77
845.00,92.92
844.00,93.12
843.00,93.34
842.00,93.58
841.00,93.81
840.00,94.03
839.00,94.25
838.00,94.46
837.00,94.65
836.00,94.83
835.00,95.00
834.00,95.15
833.00,95.31
832.00,95.47
831.00,95.63
830.00,95.77
829.00,95.87
828.00,95.95
827.00,96.05
826.00,96.15
825.00,96.26
824.00,96.36
823.00,96.44
822.00,96.50
821.00,96.53
820.00,96.57
819.00,96.62
818.00,96.68
817.00,96.72
816.00,96.76
815.00,96.81
814.00,96.87
813.00,96.92
812.00,96.95
811.00,96.97
810.00,97.00
809.00,97.03
808.00,97.05
807.00,97.08
806.00,97.12
805.00,97.17
804.00,97.21
803.00,97.24
802.00,97.27
801.00,97.30
800.00,97.31
799.00,97.28
798.00,97.15
797.00,96.92
796.00,96.61
795.00,96.29
794.00,96.04
793.00,95.91
792.00,95.90
791.00,95.98
790.00,96.14
789.00,96.35
788.00,96.59
787.00,96.84
786.00,97.08
785.00,97.29
784.00,97.47
783.00,97.60
782.00,97.69
781.00,97.78
780.00,97.90
779.00,98.08
778.00,98.27
777.00,98.43
776.00,98.55
775.00,98.64
774.00,98.72
773.00,98.82
772.00,98.93
771.00,99.06
770.00,99.19
769.00,99.30
768.00,99.40
767.00,99.51
766.00,99.62
765.00,99.74
764.00,99.86
763.00,99.97
762.00,100.08
761.00,100.18
760.00,100.26
759.00,100.33
758.00,100.40
757.00,100.49
756.00,100.57
755.00,100.64
754.00,100.70
753.00,100.75
752.00,100.80
751.00,100.86
750.00,100.92
749.00,100.96
748.00,100.94
747.00,100.85
746.00,100.71
745.00,100.53
744.00,100.27
743.00,99.91
742.00,99.38
741.00,98.64
740.00,97.69
739.00,96.54
738.00,95.21
737.00,93.76
736.00,92.21
735.00,90.56
734.00,88.82
733.00,87.00
732.00,85.12
731.00,83.24
730.00,81.36
729.00,79.46
728.00,77.54
727.00,75.68
726.00,74.01
725.00,72.68
724.00,71.82
723.00,71.46
722.00,71.61
721.00,72.21
720.00,73.25
719.00,74.62
718.00,76.16
717.00,77.74
716.00,79.24
715.00,80.61
714.00,81.80
713.00,82.83
712.00,83.69
711.00,84.43
710.00,85.08
709.00,85.68
708.00,86.25
707.00,86.81
706.00,87.35
705.00,87.85
704.00,88.32
703.00,88.79
702.00,89.27
701.00,89.76
700.00,90.25
699.00,90.72
698.00,91.15
697.00,91.55
696.00,91.92
695.00,92.26
694.00,92.57
693.00,92.83
692.00,93.05
691.00,93.22
690.00,93.38
689.00,93.54
688.00,93.70
687.00,93.87
686.00,94.02
685.00,94.12
684.00,94.15
683.00,94.16
682.00,94.18
681.00,94.23
680.00,94.30
679.00,94.37
678.00,94.45
677.00,94.59
676.00,94.77
675.00,94.96
674.00,95.11
673.00,95.22
672.00,95.30
671.00,95.37
670.00,95.44
669.00,95.52
668.00,95.63
667.00,95.78
666.00,95.91
665.00,95.99
664.00,96.07
663.00,96.15
662.00,96.23
661.00,96.28
660.00,96.31
659.00,96.32
658.00,96.33
657.00,96.34
656.00,96.34
655.00,96.32
654.00,96.31
653.00,96.34
652.00,96.43
651.00,96.53
650.00,96.62
649.00,96.71
648.00,96.84
647.00,97.01
646.00,97.19
645.00,97.30
644.00,97.33
643.00,97.30
642.00,97.29
641.00,97.32
640.00,97.37
639.00,97.37
638.00,97.32
637.00,97.27
636.00,97.24
635.00,97.19
634.00,97.06
633.00,96.85
632.00,96.64
631.00,96.51
630.00,96.49
629.00,96.53
628.00,96.57
627.00,96.62
626.00,96.73
625.00,96.92
624.00,97.15
623.00,97.32
622.00,97.31
621.00,97.15
620.00,96.96
619.00,96.94
618.00,97.12
617.00,97.36
616.00,97.51
615.00,97.60
614.00,97.75
613.00,98.00
612.00,98.26
611.00,98.37
610.00,98.32
609.00,98.21
608.00,98.11
607.00,98.03
606.00,97.92
605.00,97.84
604.00,97.92
603.00,98.26
602.00,98.80
601.00,99.34
600.00,99.64
599.00,99.59
598.00,99.31
597.00,99.06
596.00,98.94
595.00,98.90
594.00,98.82
593.00,98.72
592.00,98.68
591.00,98.78
590.00,99.00
589.00,99.28
588.00,99.50
587.00,99.44
586.00,99.01
585.00,98.34
584.00,97.77
583.00,97.55
582.00,97.69
581.00,98.02
580.00,98.39
579.00,98.74
578.00,99.00
577.00,98.98
576.00,98.50
575.00,97.64
574.00,96.91
573.00,96.82
572.00,97.46
571.00,98.48
570.00,99.32
569.00,99.70
568.00,99.63
567.00,99.30
566.00,98.92
565.00,98.60
564.00,98.27
563.00,97.84
562.00,97.42
561.00,97.29
560.00,97.62
559.00,98.22
558.00,98.64
557.00,98.63
556.00,98.45
555.00,98.53
554.00,98.96
553.00,99.45
552.00,99.67
551.00,99.63
550.00,99.61
