Created as New Dataset,135 Bayer
cm-1,%T
4000.00,99.16
3999.00,99.15
3998.00,99.14
3997.00,99.15
3996.00,99.17
3995.00,99.19
3994.00,99.21
3993.00,99.21
3992.00,99.20
3991.00,99.19
3990.00,99.18
3989.00,99.16
3988.00,99.16
3987.00,99.16
3986.00,99.16
3985.00,99.15
3984.00,99.14
3983.00,99.14
3982.00,99.15
3981.00,99.15
3980.00,99.16
3979.00,99.15
3978.00,99.14
3977.00,99.14
3976.00,99.14
3975.00,99.16
3974.00,99.17
3973.00,99.19
3972.00,99.18
3971.00,99.16
3970.00,99.14
3969.00,99.12
3968.00,99.12
3967.00,99.12
3966.00,99.13
3965.00,99.14
3964.00,99.15
3963.00,99.16
3962.00,99.17
3961.00,99.18
3960.00,99.19
3959.00,99.18
3958.00,99.17
3957.00,99.16
3956.00,99.16
3955.00,99.15
3954.00,99.13
3953.00,99.11
3952.00,99.10
3951.00,99.10
3950.00,99.11
3949.00,99.12
3948.00,99.12
3947.00,99.12
3946.00,99.11
3945.00,99.10
3944.00,99.11
3943.00,99.13
3942.00,99.15
3941.00,99.16
3940.00,99.16
3939.00,99.15
3938.00,99.14
3937.00,99.13
3936.00,99.13
3935.00,99.13
3934.00,99.13
3933.00,99.13
3932.00,99.12
3931.00,99.10
3930.00,99.09
3929.00,99.08
3928.00,99.07
3927.00,99.07
3926.00,99.09
3925.00,99.11
3924.00,99.14
3923.00,99.15
3922.00,99.14
3921.00,99.14
3920.00,99.14
3919.00,99.13
3918.00,99.13
3917.00,99.14
3916.00,99.14
3915.00,99.14
3914.00,99.12
3913.00,99.11
3912.00,99.09
3911.00,99.08
3910.00,99.07
3909.00,99.07
3908.00,99.06
3907.00,99.06
3906.00,99.07
3905.00,99.09
3904.00,99.09
3903.00,99.08
3902.00,99.05
3901.00,99.03
3900.00,99.03
3899.00,99.05
3898.00,99.08
3897.00,99.11
3896.00,99.11
3895.00,99.09
3894.00,99.06
3893.00,99.03
3892.00,99.03
3891.00,99.05
3890.00,99.08
3889.00,99.08
3888.00,99.07
3887.00,99.07
3886.00,99.08
3885.00,99.09
3884.00,99.07
3883.00,99.04
3882.00,99.03
3881.00,99.03
3880.00,99.04
3879.00,99.03
3878.00,99.01
3877.00,98.99
3876.00,98.99
3875.00,99.01
3874.00,99.03
3873.00,99.01
3872.00,98.99
3871.00,98.98
3870.00,98.99
3869.00,98.98
3868.00,98.94
3867.00,98.91
3866.00,98.90
3865.00,98.92
3864.00,98.95
3863.00,98.97
3862.00,98.99
3861.00,99.01
3860.00,99.03
3859.00,99.03
3858.00,99.01
3857.00,98.97
3856.00,98.92
3855.00,98.91
3854.00,98.93
3853.00,98.93
3852.00,98.93
3851.00,98.94
3850.00,98.96
3849.00,98.99
3848.00,99.01
3847.00,99.01
3846.00,98.99
3845.00,98.98
3844.00,98.98
3843.00,98.97
3842.00,98.96
3841.00,98.93
3840.00,98.91
3839.00,98.90
3838.00,98.90
3837.00,98.91
3836.00,98.90
3835.00,98.89
3834.00,98.89
3833.00,98.90
3832.00,98.94
3831.00,98.97
3830.00,98.99
3829.00,98.98
3828.00,98.97
3827.00,98.97
3826.00,98.96
3825.00,98.94
3824.00,98.91
3823.00,98.89
3822.00,98.89
3821.00,98.90
3820.00,98.89
3819.00,98.86
3818.00,98.84
3817.00,98.85
3816.00,98.88
3815.00,98.89
3814.00,98.88
3813.00,98.88
3812.00,98.88
3811.00,98.87
3810.00,98.84
3809.00,98.81
3808.00,98.81
3807.00,98.83
3806.00,98.84
3805.00,98.82
3804.00,98.78
3803.00,98.78
3802.00,98.81
3801.00,98.83
3800.00,98.84
3799.00,98.84
3798.00,98.84
3797.00,98.86
3796.00,98.87
3795.00,98.88
3794.00,98.88
3793.00,98.90
3792.00,98.91
3791.00,98.90
3790.00,98.89
3789.00,98.87
3788.00,98.87
3787.00,98.87
3786.00,98.88
3785.00,98.89
3784.00,98.88
3783.00,98.87
3782.00,98.87
3781.00,98.88
3780.00,98.90
3779.00,98.91
3778.00,98.90
3777.00,98.88
3776.00,98.87
3775.00,98.88
3774.00,98.88
3773.00,98.88
3772.00,98.88
3771.00,98.88
3770.00,98.88
3769.00,98.86
3768.00,98.83
3767.00,98.81
3766.00,98.80
3765.00,98.80
3764.00,98.78
3763.00,98.76
3762.00,98.74
3761.00,98.73
3760.00,98.74
3759.00,98.74
3758.00,98.74
3757.00,98.74
3756.00,98.74
3755.00,98.74
3754.00,98.74
3753.00,98.73
3752.00,98.71
3751.00,98.68
3750.00,98.66
3749.00,98.66
3748.00,98.66
3747.00,98.66
3746.00,98.67
3745.00,98.70
3744.00,98.73
3743.00,98.74
3742.00,98.75
3741.00,98.77
3740.00,98.80
3739.00,98.81
3738.00,98.81
3737.00,98.81
3736.00,98.81
3735.00,98.80
3734.00,98.80
3733.00,98.80
3732.00,98.80
3731.00,98.79
3730.00,98.76
3729.00,98.74
3728.00,98.74
3727.00,98.77
3726.00,98.78
3725.00,98.79
3724.00,98.78
3723.00,98.78
3722.00,98.78
3721.00,98.78
3720.00,98.76
3719.00,98.73
3718.00,98.71
3717.00,98.68
3716.00,98.67
3715.00,98.67
3714.00,98.68
3713.00,98.68
3712.00,98.68
3711.00,98.68
3710.00,98.69
3709.00,98.71
3708.00,98.72
3707.00,98.72
3706.00,98.72
3705.00,98.72
3704.00,98.72
3703.00,98.72
3702.00,98.72
3701.00,98.71
3700.00,98.71
3699.00,98.72
3698.00,98.73
3697.00,98.74
3696.00,98.74
3695.00,98.72
3694.00,98.70
3693.00,98.68
3692.00,98.66
3691.00,98.64
3690.00,98.62
3689.00,98.61
3688.00,98.61
3687.00,98.61
3686.00,98.60
3685.00,98.60
3684.00,98.61
3683.00,98.62
3682.00,98.62
3681.00,98.61
3680.00,98.59
3679.00,98.56
3678.00,98.52
3677.00,98.49
3676.00,98.50
3675.00,98.50
3674.00,98.49
3673.00,98.47
3672.00,98.48
3671.00,98.52
3670.00,98.56
3669.00,98.58
3668.00,98.57
3667.00,98.55
3666.00,98.55
3665.00,98.57
3664.00,98.59
3663.00,98.60
3662.00,98.60
3661.00,98.59
3660.00,98.57
3659.00,98.57
3658.00,98.58
3657.00,98.59
3656.00,98.59
3655.00,98.56
3654.00,98.52
3653.00,98.49
3652.00,98.48
3651.00,98.51
3650.00,98.52
3649.00,98.51
3648.00,98.49
3647.00,98.48
3646.00,98.48
3645.00,98.48
3644.00,98.48
3643.00,98.48
3642.00,98.48
3641.00,98.48
3640.00,98.49
3639.00,98.51
3638.00,98.51
3637.00,98.51
3636.00,98.50
3635.00,98.49
3634.00,98.49
3633.00,98.50
3632.00,98.49
3631.00,98.48
3630.00,98.48
3629.00,98.47
3628.00,98.45
3627.00,98.44
3626.00,98.44
3625.00,98.46
3624.00,98.47
3623.00,98.46
3622.00,98.44
3621.00,98.44
3620.00,98.45
3619.00,98.47
3618.00,98.48
3617.00,98.47
3616.00,98.45
3615.00,98.44
3614.00,98.44
3613.00,98.45
3612.00,98.47
3611.00,98.49
3610.00,98.52
3609.00,98.55
3608.00,98.55
3607.00,98.53
3606.00,98.50
3605.00,98.47
3604.00,98.45
3603.00,98.44
3602.00,98.45
3601.00,98.47
3600.00,98.50
3599.00,98.52
3598.00,98.53
3597.00,98.54
3596.00,98.54
3595.00,98.53
3594.00,98.52
3593.00,98.52
3592.00,98.53
3591.00,98.55
3590.00,98.57
3589.00,98.57
3588.00,98.56
3587.00,98.53
3586.00,98.50
3585.00,98.49
3584.00,98.50
3583.00,98.51
3582.00,98.51
3581.00,98.51
3580.00,98.51
3579.00,98.52
3578.00,98.52
3577.00,98.50
3576.00,98.47
3575.00,98.45
3574.00,98.43
3573.00,98.43
3572.00,98.43
3571.00,98.43
3570.00,98.42
3569.00,98.42
3568.00,98.42
3567.00,98.41
3566.00,98.40
3565.00,98.37
3564.00,98.35
3563.00,98.34
3562.00,98.33
3561.00,98.33
3560.00,98.32
3559.00,98.31
3558.00,98.31
3557.00,98.31
3556.00,98.32
3555.00,98.33
3554.00,98.34
3553.00,98.34
3552.00,98.32
3551.00,98.29
3550.00,98.27
3549.00,98.26
3548.00,98.28
3547.00,98.29
3546.00,98.30
3545.00,98.31
3544.00,98.33
3543.00,98.36
3542.00,98.40
3541.00,98.43
3540.00,98.45
3539.00,98.44
3538.00,98.43
3537.00,98.42
3536.00,98.42
3535.00,98.41
3534.00,98.41
3533.00,98.41
3532.00,98.42
3531.00,98.42
3530.00,98.41
3529.00,98.41
3528.00,98.42
3527.00,98.42
3526.00,98.41
3525.00,98.38
3524.00,98.35
3523.00,98.33
3522.00,98.31
3521.00,98.32
3520.00,98.34
3519.00,98.37
3518.00,98.39
3517.00,98.40
3516.00,98.41
3515.00,98.41
3514.00,98.40
3513.00,98.40
3512.00,98.38
3511.00,98.38
3510.00,98.38
3509.00,98.38
3508.00,98.40
3507.00,98.41
3506.00,98.41
3505.00,98.41
3504.00,98.41
3503.00,98.41
3502.00,98.42
3501.00,98.43
3500.00,98.42
3499.00,98.40
3498.00,98.38
3497.00,98.38
3496.00,98.41
3495.00,98.45
3494.00,98.48
3493.00,98.51
3492.00,98.51
3491.00,98.49
3490.00,98.47
3489.00,98.46
3488.00,98.45
3487.00,98.44
3486.00,98.42
3485.00,98.41
3484.00,98.40
3483.00,98.40
3482.00,98.39
3481.00,98.37
3480.00,98.36
3479.00,98.37
3478.00,98.40
3477.00,98.42
3476.00,98.42
3475.00,98.39
3474.00,98.36
3473.00,98.35
3472.00,98.36
3471.00,98.38
3470.00,98.39
3469.00,98.38
3468.00,98.36
3467.00,98.34
3466.00,98.33
3465.00,98.34
3464.00,98.36
3463.00,98.38
3462.00,98.38
3461.00,98.36
3460.00,98.33
3459.00,98.32
3458.00,98.33
3457.00,98.35
3456.00,98.37
3455.00,98.37
3454.00,98.37
3453.00,98.36
3452.00,98.34
3451.00,98.33
3450.00,98.32
3449.00,98.30
3448.00,98.28
3447.00,98.26
3446.00,98.24
3445.00,98.23
3444.00,98.24
3443.00,98.25
3442.00,98.25
3441.00,98.26
3440.00,98.26
3439.00,98.26
3438.00,98.25
3437.00,98.24
3436.00,98.23
3435.00,98.21
3434.00,98.19
3433.00,98.17
3432.00,98.15
3431.00,98.13
3430.00,98.12
3429.00,98.11
3428.00,98.11
3427.00,98.11
3426.00,98.10
3425.00,98.09
3424.00,98.06
3423.00,98.02
3422.00,98.00
3421.00,97.99
3420.00,98.00
3419.00,98.03
3418.00,98.05
3417.00,98.06
3416.00,98.06
3415.00,98.06
3414.00,98.07
3413.00,98.09
3412.00,98.10
3411.00,98.12
3410.00,98.14
3409.00,98.16
3408.00,98.17
3407.00,98.17
3406.00,98.18
3405.00,98.19
3404.00,98.23
3403.00,98.27
3402.00,98.31
3401.00,98.32
3400.00,98.30
3399.00,98.28
3398.00,98.26
3397.00,98.26
3396.00,98.27
3395.00,98.26
3394.00,98.26
3393.00,98.27
3392.00,98.29
3391.00,98.30
3390.00,98.32
3389.00,98.32
3388.00,98.31
3387.00,98.29
3386.00,98.26
3385.00,98.24
3384.00,98.24
3383.00,98.26
3382.00,98.28
3381.00,98.30
3380.00,98.31
3379.00,98.31
3378.00,98.31
3377.00,98.30
3376.00,98.30
3375.00,98.29
3374.00,98.29
3373.00,98.30
3372.00,98.32
3371.00,98.33
3370.00,98.34
3369.00,98.34
3368.00,98.32
3367.00,98.30
3366.00,98.29
3365.00,98.28
3364.00,98.29
3363.00,98.29
3362.00,98.29
3361.00,98.29
3360.00,98.30
3359.00,98.30
3358.00,98.31
3357.00,98.32
3356.00,98.32
3355.00,98.32
3354.00,98.32
3353.00,98.31
3352.00,98.30
3351.00,98.29
3350.00,98.28
3349.00,98.28
3348.00,98.27
3347.00,98.26
3346.00,98.24
3345.00,98.24
3344.00,98.23
3343.00,98.24
3342.00,98.25
3341.00,98.26
3340.00,98.26
3339.00,98.25
3338.00,98.23
3337.00,98.21
3336.00,98.21
3335.00,98.21
3334.00,98.23
3333.00,98.25
3332.00,98.26
3331.00,98.27
3330.00,98.28
3329.00,98.28
3328.00,98.28
3327.00,98.28
3326.00,98.28
3325.00,98.28
3324.00,98.28
3323.00,98.28
3322.00,98.27
3321.00,98.27
3320.00,98.28
3319.00,98.29
3318.00,98.30
3317.00,98.31
3316.00,98.30
3315.00,98.29
3314.00,98.28
3313.00,98.27
3312.00,98.26
3311.00,98.25
3310.00,98.24
3309.00,98.25
3308.00,98.26
3307.00,98.27
3306.00,98.28
3305.00,98.28
3304.00,98.29
3303.00,98.30
3302.00,98.32
3301.00,98.32
3300.00,98.32
3299.00,98.30
3298.00,98.29
3297.00,98.28
3296.00,98.28
3295.00,98.28
3294.00,98.27
3293.00,98.25
3292.00,98.24
3291.00,98.22
3290.00,98.21
3289.00,98.21
3288.00,98.21
3287.00,98.22
3286.00,98.24
3285.00,98.25
3284.00,98.26
3283.00,98.25
3282.00,98.24
3281.00,98.23
3280.00,98.24
3279.00,98.24
3278.00,98.25
3277.00,98.24
3276.00,98.21
3275.00,98.19
3274.00,98.17
3273.00,98.17
3272.00,98.18
3271.00,98.19
3270.00,98.19
3269.00,98.20
3268.00,98.21
3267.00,98.23
3266.00,98.24
3265.00,98.24
3264.00,98.23
3263.00,98.21
3262.00,98.19
3261.00,98.19
3260.00,98.20
3259.00,98.22
3258.00,98.24
3257.00,98.25
3256.00,98.25
3255.00,98.24
3254.00,98.24
3253.00,98.24
3252.00,98.25
3251.00,98.25
3250.00,98.25
3249.00,98.26
3248.00,98.27
3247.00,98.26
3246.00,98.24
3245.00,98.22
3244.00,98.20
3243.00,98.20
3242.00,98.21
3241.00,98.21
3240.00,98.21
3239.00,98.22
3238.00,98.23
3237.00,98.23
3236.00,98.23
3235.00,98.22
3234.00,98.21
3233.00,98.22
3232.00,98.24
3231.00,98.26
3230.00,98.27
3229.00,98.27
3228.00,98.26
3227.00,98.26
3226.00,98.26
3225.00,98.24
3224.00,98.22
3223.00,98.21
3222.00,98.19
3221.00,98.18
3220.00,98.16
3219.00,98.13
3218.00,98.12
3217.00,98.14
3216.00,98.18
3215.00,98.22
3214.00,98.24
3213.00,98.25
3212.00,98.25
3211.00,98.24
3210.00,98.24
3209.00,98.24
3208.00,98.25
3207.00,98.26
3206.00,98.26
3205.00,98.25
3204.00,98.23
3203.00,98.20
3202.00,98.18
3201.00,98.19
3200.00,98.20
3199.00,98.21
3198.00,98.21
3197.00,98.22
3196.00,98.23
3195.00,98.24
3194.00,98.26
3193.00,98.27
3192.00,98.27
3191.00,98.24
3190.00,98.22
3189.00,98.20
3188.00,98.20
3187.00,98.20
3186.00,98.21
3185.00,98.20
3184.00,98.19
3183.00,98.18
3182.00,98.17
3181.00,98.17
3180.00,98.18
3179.00,98.18
3178.00,98.17
3177.00,98.16
3176.00,98.16
3175.00,98.17
3174.00,98.19
3173.00,98.18
3172.00,98.17
3171.00,98.16
3170.00,98.16
3169.00,98.17
3168.00,98.19
3167.00,98.20
3166.00,98.20
3165.00,98.19
3164.00,98.19
3163.00,98.18
3162.00,98.18
3161.00,98.18
3160.00,98.18
3159.00,98.19
3158.00,98.19
3157.00,98.20
3156.00,98.21
3155.00,98.21
3154.00,98.21
3153.00,98.19
3152.00,98.18
3151.00,98.17
3150.00,98.18
3149.00,98.21
3148.00,98.22
3147.00,98.22
3146.00,98.21
3145.00,98.20
3144.00,98.21
3143.00,98.22
3142.00,98.24
3141.00,98.25
3140.00,98.25
3139.00,98.24
3138.00,98.23
3137.00,98.21
3136.00,98.19
3135.00,98.17
3134.00,98.17
3133.00,98.17
3132.00,98.18
3131.00,98.18
3130.00,98.16
3129.00,98.15
3128.00,98.14
3127.00,98.13
3126.00,98.12
3125.00,98.12
3124.00,98.12
3123.00,98.14
3122.00,98.16
3121.00,98.18
3120.00,98.19
3119.00,98.21
3118.00,98.22
3117.00,98.21
3116.00,98.19
3115.00,98.17
3114.00,98.16
3113.00,98.16
3112.00,98.17
3111.00,98.17
3110.00,98.17
3109.00,98.16
3108.00,98.15
3107.00,98.13
3106.00,98.12
3105.00,98.12
3104.00,98.12
3103.00,98.12
3102.00,98.11
3101.00,98.10
3100.00,98.11
3099.00,98.12
3098.00,98.13
3097.00,98.14
3096.00,98.15
3095.00,98.16
3094.00,98.16
3093.00,98.17
3092.00,98.16
3091.00,98.14
3090.00,98.12
3089.00,98.09
3088.00,98.07
3087.00,98.05
3086.00,98.05
3085.00,98.06
3084.00,98.07
3083.00,98.08
3082.00,98.08
3081.00,98.08
3080.00,98.06
3079.00,98.04
3078.00,98.02
3077.00,98.02
3076.00,98.02
3075.00,98.03
3074.00,98.04
3073.00,98.05
3072.00,98.06
3071.00,98.06
3070.00,98.04
3069.00,98.02
3068.00,98.00
3067.00,97.97
3066.00,97.95
3065.00,97.96
3064.00,97.97
3063.00,97.99
3062.00,98.00
3061.00,98.01
3060.00,98.01
3059.00,98.02
3058.00,98.03
3057.00,98.03
3056.00,98.04
3055.00,98.05
3054.00,98.05
3053.00,98.04
3052.00,98.03
3051.00,98.04
3050.00,98.06
3049.00,98.09
3048.00,98.11
3047.00,98.13
3046.00,98.15
3045.00,98.17
3044.00,98.18
3043.00,98.20
3042.00,98.23
3041.00,98.26
3040.00,98.28
3039.00,98.28
3038.00,98.27
3037.00,98.25
3036.00,98.24
3035.00,98.24
3034.00,98.25
3033.00,98.25
3032.00,98.25
3031.00,98.25
3030.00,98.25
3029.00,98.25
3028.00,98.24
3027.00,98.24
3026.00,98.23
3025.00,98.23
3024.00,98.24
3023.00,98.26
3022.00,98.26
3021.00,98.25
3020.00,98.22
3019.00,98.19
3018.00,98.18
3017.00,98.18
3016.00,98.18
3015.00,98.17
3014.00,98.17
3013.00,98.15
3012.00,98.13
3011.00,98.12
3010.00,98.11
3009.00,98.10
3008.00,98.08
3007.00,98.07
3006.00,98.05
3005.00,98.04
3004.00,98.03
3003.00,98.01
3002.00,98.00
3001.00,97.99
3000.00,97.97
2999.00,97.96
2998.00,97.94
2997.00,97.91
2996.00,97.88
2995.00,97.85
2994.00,97.83
2993.00,97.81
2992.00,97.79
2991.00,97.77
2990.00,97.74
2989.00,97.71
2988.00,97.68
2987.00,97.64
2986.00,97.60
2985.00,97.56
2984.00,97.51
2983.00,97.45
2982.00,97.38
2981.00,97.31
2980.00,97.24
2979.00,97.17
2978.00,97.10
2977.00,97.02
2976.00,96.95
2975.00,96.88
2974.00,96.80
2973.00,96.70
2972.00,96.59
2971.00,96.47
2970.00,96.34
2969.00,96.20
2968.00,96.06
2967.00,95.91
2966.00,95.77
2965.00,95.63
2964.00,95.49
2963.00,95.35
2962.00,95.21
2961.00,95.06
2960.00,94.91
2959.00,94.75
2958.00,94.58
2957.00,94.39
2956.00,94.21
2955.00,94.02
2954.00,93.80
2953.00,93.54
2952.00,93.24
2951.00,92.91
2950.00,92.55
2949.00,92.19
2948.00,91.83
2947.00,91.48
2946.00,91.14
2945.00,90.84
2944.00,90.59
2943.00,90.39
2942.00,90.25
2941.00,90.14
2940.00,90.05
2939.00,89.98
2938.00,89.92
2937.00,89.85
2936.00,89.76
2935.00,89.66
2934.00,89.57
2933.00,89.49
2932.00,89.42
2931.00,89.33
2930.00,89.22
2929.00,89.10
2928.00,89.01
2927.00,88.94
2926.00,88.91
2925.00,88.90
2924.00,88.91
2923.00,88.92
2922.00,88.94
2921.00,88.97
2920.00,89.02
2919.00,89.11
2918.00,89.24
2917.00,89.42
2916.00,89.64
2915.00,89.89
2914.00,90.15
2913.00,90.40
2912.00,90.63
2911.00,90.84
2910.00,91.03
2909.00,91.20
2908.00,91.36
2907.00,91.50
2906.00,91.64
2905.00,91.78
2904.00,91.92
2903.00,92.05
2902.00,92.15
2901.00,92.22
2900.00,92.27
2899.00,92.30
2898.00,92.32
2897.00,92.34
2896.00,92.36
2895.00,92.38
2894.00,92.40
2893.00,92.43
2892.00,92.48
2891.00,92.55
2890.00,92.62
2889.00,92.70
2888.00,92.81
2887.00,92.94
2886.00,93.10
2885.00,93.27
2884.00,93.44
2883.00,93.61
2882.00,93.77
2881.00,93.93
2880.00,94.07
2879.00,94.19
2878.00,94.28
2877.00,94.34
2876.00,94.37
2875.00,94.36
2874.00,94.32
2873.00,94.26
2872.00,94.17
2871.00,94.07
2870.00,93.97
2869.00,93.87
2868.00,93.77
2867.00,93.65
2866.00,93.52
2865.00,93.38
2864.00,93.23
2863.00,93.07
2862.00,92.92
2861.00,92.75
2860.00,92.59
2859.00,92.44
2858.00,92.29
2857.00,92.14
2856.00,92.00
2855.00,91.88
2854.00,91.79
2853.00,91.74
2852.00,91.72
2851.00,91.73
2850.00,91.77
2849.00,91.84
2848.00,91.95
2847.00,92.12
2846.00,92.38
2845.00,92.72
2844.00,93.13
2843.00,93.55
2842.00,93.95
2841.00,94.32
2840.00,94.65
2839.00,94.93
2838.00,95.18
2837.00,95.39
2836.00,95.57
2835.00,95.73
2834.00,95.86
2833.00,95.98
2832.00,96.07
2831.00,96.16
2830.00,96.25
2829.00,96.33
2828.00,96.42
2827.00,96.49
2826.00,96.55
2825.00,96.60
2824.00,96.65
2823.00,96.69
2822.00,96.71
2821.00,96.74
2820.00,96.76
2819.00,96.78
2818.00,96.79
2817.00,96.79
2816.00,96.80
2815.00,96.82
2814.00,96.84
2813.00,96.87
2812.00,96.90
2811.00,96.93
2810.00,96.96
2809.00,96.99
2808.00,97.03
2807.00,97.06
2806.00,97.09
2805.00,97.10
2804.00,97.11
2803.00,97.12
2802.00,97.14
2801.00,97.16
2800.00,97.18
2799.00,97.20
2798.00,97.22
2797.00,97.23
2796.00,97.25
2795.00,97.26
2794.00,97.28
2793.00,97.29
2792.00,97.30
2791.00,97.31
2790.00,97.32
2789.00,97.32
2788.00,97.31
2787.00,97.31
2786.00,97.31
2785.00,97.32
2784.00,97.33
2783.00,97.35
2782.00,97.36
2781.00,97.39
2780.00,97.43
2779.00,97.46
2778.00,97.47
2777.00,97.47
2776.00,97.45
2775.00,97.43
2774.00,97.42
2773.00,97.42
2772.00,97.44
2771.00,97.45
2770.00,97.46
2769.00,97.47
2768.00,97.47
2767.00,97.47
2766.00,97.47
2765.00,97.47
2764.00,97.47
2763.00,97.48
2762.00,97.48
2761.00,97.47
2760.00,97.46
2759.00,97.45
2758.00,97.45
2757.00,97.45
2756.00,97.45
2755.00,97.45
2754.00,97.45
2753.00,97.44
2752.00,97.44
2751.00,97.44
2750.00,97.45
2749.00,97.46
2748.00,97.48
2747.00,97.49
2746.00,97.50
2745.00,97.50
2744.00,97.50
2743.00,97.50
2742.00,97.51
2741.00,97.52
2740.00,97.54
2739.00,97.55
2738.00,97.55
2737.00,97.54
2736.00,97.54
2735.00,97.54
2734.00,97.54
2733.00,97.53
2732.00,97.51
2731.00,97.50
2730.00,97.50
2729.00,97.50
2728.00,97.52
2727.00,97.53
2726.00,97.54
2725.00,97.55
2724.00,97.55
2723.00,97.55
2722.00,97.56
2721.00,97.57
2720.00,97.57
2719.00,97.57
2718.00,97.57
2717.00,97.59
2716.00,97.61
2715.00,97.63
2714.00,97.65
2713.00,97.64
2712.00,97.63
2711.00,97.61
2710.00,97.59
2709.00,97.59
2708.00,97.59
2707.00,97.60
2706.00,97.61
2705.00,97.62
2704.00,97.63
2703.00,97.63
2702.00,97.62
2701.00,97.61
2700.00,97.61
2699.00,97.62
2698.00,97.62
2697.00,97.61
2696.00,97.60
2695.00,97.59
2694.00,97.59
2693.00,97.58
2692.00,97.58
2691.00,97.57
2690.00,97.57
2689.00,97.57
2688.00,97.56
2687.00,97.55
2686.00,97.54
2685.00,97.54
2684.00,97.54
2683.00,97.55
2682.00,97.56
2681.00,97.56
2680.00,97.56
2679.00,97.55
2678.00,97.55
2677.00,97.55
2676.00,97.54
2675.00,97.53
2674.00,97.52
2673.00,97.52
2672.00,97.54
2671.00,97.55
2670.00,97.56
2669.00,97.57
2668.00,97.57
2667.00,97.57
2666.00,97.56
2665.00,97.55
2664.00,97.54
2663.00,97.53
2662.00,97.53
2661.00,97.53
2660.00,97.53
2659.00,97.52
2658.00,97.52
2657.00,97.52
2656.00,97.53
2655.00,97.53
2654.00,97.52
2653.00,97.51
2652.00,97.50
2651.00,97.49
2650.00,97.48
2649.00,97.46
2648.00,97.45
2647.00,97.45
2646.00,97.46
2645.00,97.45
2644.00,97.44
2643.00,97.43
2642.00,97.42
2641.00,97.42
2640.00,97.44
2639.00,97.44
2638.00,97.44
2637.00,97.42
2636.00,97.38
2635.00,97.35
2634.00,97.32
2633.00,97.31
2632.00,97.31
2631.00,97.32
2630.00,97.32
2629.00,97.31
2628.00,97.30
2627.00,97.28
2626.00,97.26
2625.00,97.24
2624.00,97.21
2623.00,97.20
2622.00,97.19
2621.00,97.19
2620.00,97.19
2619.00,97.20
2618.00,97.21
2617.00,97.22
2616.00,97.22
2615.00,97.22
2614.00,97.20
2613.00,97.18
2612.00,97.15
2611.00,97.13
2610.00,97.13
2609.00,97.14
2608.00,97.16
2607.00,97.17
2606.00,97.17
2605.00,97.17
2604.00,97.18
2603.00,97.19
2602.00,97.21
2601.00,97.21
2600.00,97.21
2599.00,97.19
2598.00,97.18
2597.00,97.16
2596.00,97.14
2595.00,97.12
2594.00,97.11
2593.00,97.11
2592.00,97.11
2591.00,97.11
2590.00,97.10
2589.00,97.08
2588.00,97.07
2587.00,97.05
2586.00,97.04
2585.00,97.02
2584.00,97.01
2583.00,97.00
2582.00,97.00
2581.00,97.01
2580.00,97.01
2579.00,97.00
2578.00,97.00
2577.00,97.00
2576.00,97.00
2575.00,97.00
2574.00,97.00
2573.00,97.01
2572.00,97.02
2571.00,97.02
2570.00,97.02
2569.00,97.01
2568.00,96.99
2567.00,96.96
2566.00,96.94
2565.00,96.94
2564.00,96.95
2563.00,96.98
2562.00,97.01
2561.00,97.03
2560.00,97.04
2559.00,97.05
2558.00,97.07
2557.00,97.07
2556.00,97.07
2555.00,97.05
2554.00,97.03
2553.00,97.02
2552.00,97.03
2551.00,97.04
2550.00,97.03
2549.00,97.01
2548.00,96.99
2547.00,96.98
2546.00,96.97
2545.00,96.97
2544.00,96.96
2543.00,96.95
2542.00,96.93
2541.00,96.92
2540.00,96.90
2539.00,96.89
2538.00,96.88
2537.00,96.87
2536.00,96.87
2535.00,96.87
2534.00,96.87
2533.00,96.87
2532.00,96.87
2531.00,96.89
2530.00,96.90
2529.00,96.90
2528.00,96.90
2527.00,96.90
2526.00,96.92
2525.00,96.93
2524.00,96.93
2523.00,96.93
2522.00,96.92
2521.00,96.91
2520.00,96.90
2519.00,96.89
2518.00,96.89
2517.00,96.90
2516.00,96.91
2515.00,96.93
2514.00,96.93
2513.00,96.93
2512.00,96.94
2511.00,96.95
2510.00,96.96
2509.00,96.96
2508.00,96.94
2507.00,96.94
2506.00,96.94
2505.00,96.96
2504.00,96.98
2503.00,97.02
2502.00,97.05
2501.00,97.08
2500.00,97.09
2499.00,97.07
2498.00,97.05
2497.00,97.04
2496.00,97.03
2495.00,97.03
2494.00,97.03
2493.00,97.03
2492.00,97.04
2491.00,97.04
2490.00,97.04
2489.00,97.03
2488.00,97.00
2487.00,96.96
2486.00,96.94
2485.00,96.94
2484.00,96.96
2483.00,96.97
2482.00,96.98
2481.00,96.98
2480.00,96.98
2479.00,96.99
2478.00,96.99
2477.00,97.00
2476.00,96.99
2475.00,96.98
2474.00,96.97
2473.00,96.97
2472.00,96.97
2471.00,96.99
2470.00,97.00
2469.00,97.00
2468.00,97.00
2467.00,96.99
2466.00,96.98
2465.00,96.98
2464.00,96.98
2463.00,96.97
2462.00,96.96
2461.00,96.95
2460.00,96.95
2459.00,96.96
2458.00,96.96
2457.00,96.97
2456.00,96.98
2455.00,96.99
2454.00,97.00
2453.00,97.00
2452.00,96.99
2451.00,96.99
2450.00,96.98
2449.00,96.98
2448.00,96.98
2447.00,96.98
2446.00,96.99
2445.00,97.00
2444.00,97.01
2443.00,97.03
2442.00,97.05
2441.00,97.07
2440.00,97.07
2439.00,97.06
2438.00,97.06
2437.00,97.06
2436.00,97.06
2435.00,97.04
2434.00,97.01
2433.00,97.00
2432.00,97.00
2431.00,97.02
2430.00,97.04
2429.00,97.05
2428.00,97.05
2427.00,97.03
2426.00,97.02
2425.00,97.01
2424.00,97.01
2423.00,97.02
2422.00,97.03
2421.00,97.03
2420.00,97.03
2419.00,97.02
2418.00,97.00
2417.00,96.99
2416.00,96.98
2415.00,96.98
2414.00,96.98
2413.00,96.98
2412.00,96.99
2411.00,97.01
2410.00,97.03
2409.00,97.06
2408.00,97.08
2407.00,97.09
2406.00,97.09
2405.00,97.09
2404.00,97.09
2403.00,97.10
2402.00,97.10
2401.00,97.08
2400.00,97.06
2399.00,97.04
2398.00,97.03
2397.00,97.05
2396.00,97.07
2395.00,97.08
2394.00,97.09
2393.00,97.11
2392.00,97.12
2391.00,97.12
2390.00,97.10
2389.00,97.09
2388.00,97.08
2387.00,97.08
2386.00,97.11
2385.00,97.16
2384.00,97.22
2383.00,97.29
2382.00,97.36
2381.00,97.43
2380.00,97.50
2379.00,97.57
2378.00,97.62
2377.00,97.65
2376.00,97.67
2375.00,97.66
2374.00,97.66
2373.00,97.65
2372.00,97.67
2371.00,97.70
2370.00,97.75
2369.00,97.81
2368.00,97.84
2367.00,97.85
2366.00,97.84
2365.00,97.82
2364.00,97.84
2363.00,97.88
2362.00,97.93
2361.00,97.95
2360.00,97.92
2359.00,97.89
2358.00,97.90
2357.00,97.95
2356.00,98.00
2355.00,98.02
2354.00,98.00
2353.00,98.00
2352.00,98.05
2351.00,98.14
2350.00,98.21
2349.00,98.20
2348.00,98.14
2347.00,98.07
2346.00,98.00
2345.00,97.93
2344.00,97.83
2343.00,97.76
2342.00,97.75
2341.00,97.80
2340.00,97.87
2339.00,97.90
2338.00,97.90
2337.00,97.87
2336.00,97.84
2335.00,97.81
2334.00,97.79
2333.00,97.78
2332.00,97.78
2331.00,97.79
2330.00,97.79
2329.00,97.78
2328.00,97.74
2327.00,97.67
2326.00,97.58
2325.00,97.48
2324.00,97.43
2323.00,97.43
2322.00,97.46
2321.00,97.47
2320.00,97.44
2319.00,97.40
2318.00,97.37
2317.00,97.36
2316.00,97.36
2315.00,97.37
2314.00,97.36
2313.00,97.33
2312.00,97.32
2311.00,97.30
2310.00,97.28
2309.00,97.26
2308.00,97.23
2307.00,97.19
2306.00,97.17
2305.00,97.16
2304.00,97.13
2303.00,97.09
2302.00,97.06
2301.00,97.03
2300.00,97.03
2299.00,97.03
2298.00,97.01
2297.00,96.97
2296.00,96.92
2295.00,96.87
2294.00,96.83
2293.00,96.80
2292.00,96.76
2291.00,96.72
2290.00,96.68
2289.00,96.64
2288.00,96.61
2287.00,96.57
2286.00,96.52
2285.00,96.48
2284.00,96.45
2283.00,96.42
2282.00,96.40
2281.00,96.38
2280.00,96.38
2279.00,96.38
2278.00,96.38
2277.00,96.36
2276.00,96.35
2275.00,96.35
2274.00,96.37
2273.00,96.38
2272.00,96.38
2271.00,96.37
2270.00,96.34
2269.00,96.31
2268.00,96.28
2267.00,96.26
2266.00,96.25
2265.00,96.24
2264.00,96.23
2263.00,96.23
2262.00,96.23
2261.00,96.23
2260.00,96.22
2259.00,96.21
2258.00,96.22
2257.00,96.25
2256.00,96.27
2255.00,96.24
2254.00,96.18
2253.00,96.11
2252.00,96.06
2251.00,96.05
2250.00,96.06
2249.00,96.07
2248.00,96.05
2247.00,96.02
2246.00,95.97
2245.00,95.95
2244.00,95.95
2243.00,95.98
2242.00,96.02
2241.00,96.04
2240.00,96.03
2239.00,95.99
2238.00,95.93
2237.00,95.88
2236.00,95.84
2235.00,95.81
2234.00,95.81
2233.00,95.83
2232.00,95.85
2231.00,95.86
2230.00,95.86
2229.00,95.86
2228.00,95.85
2227.00,95.83
2226.00,95.81
2225.00,95.79
2224.00,95.78
2223.00,95.78
2222.00,95.75
2221.00,95.71
2220.00,95.67
2219.00,95.64
2218.00,95.61
2217.00,95.58
2216.00,95.54
2215.00,95.52
2214.00,95.53
2213.00,95.58
2212.00,95.63
2211.00,95.67
2210.00,95.68
2209.00,95.64
2208.00,95.59
2207.00,95.57
2206.00,95.58
2205.00,95.59
2204.00,95.58
2203.00,95.55
2202.00,95.50
2201.00,95.45
2200.00,95.41
2199.00,95.38
2198.00,95.39
2197.00,95.44
2196.00,95.49
2195.00,95.52
2194.00,95.51
2193.00,95.48
2192.00,95.42
2191.00,95.36
2190.00,95.32
2189.00,95.31
2188.00,95.32
2187.00,95.32
2186.00,95.29
2185.00,95.26
2184.00,95.23
2183.00,95.20
2182.00,95.18
2181.00,95.16
2180.00,95.14
2179.00,95.12
2178.00,95.11
2177.00,95.14
2176.00,95.21
2175.00,95.29
2174.00,95.30
2173.00,95.25
2172.00,95.15
2171.00,95.08
2170.00,95.05
2169.00,95.07
2168.00,95.10
2167.00,95.12
2166.00,95.10
2165.00,95.02
2164.00,94.90
2163.00,94.77
2162.00,94.68
2161.00,94.68
2160.00,94.78
2159.00,94.94
2158.00,95.10
2157.00,95.24
2156.00,95.33
2155.00,95.38
2154.00,95.42
2153.00,95.44
2152.00,95.46
2151.00,95.46
2150.00,95.46
2149.00,95.47
2148.00,95.52
2147.00,95.57
2146.00,95.60
2145.00,95.60
2144.00,95.62
2143.00,95.66
2142.00,95.69
2141.00,95.69
2140.00,95.67
2139.00,95.69
2138.00,95.76
2137.00,95.87
2136.00,95.96
2135.00,96.04
2134.00,96.09
2133.00,96.14
2132.00,96.17
2131.00,96.21
2130.00,96.24
2129.00,96.27
2128.00,96.29
2127.00,96.31
2126.00,96.33
2125.00,96.32
2124.00,96.30
2123.00,96.29
2122.00,96.29
2121.00,96.29
2120.00,96.29
2119.00,96.26
2118.00,96.23
2117.00,96.20
2116.00,96.17
2115.00,96.16
2114.00,96.15
2113.00,96.16
2112.00,96.18
2111.00,96.21
2110.00,96.24
2109.00,96.26
2108.00,96.25
2107.00,96.22
2106.00,96.18
2105.00,96.13
2104.00,96.10
2103.00,96.08
2102.00,96.07
2101.00,96.06
2100.00,96.06
2099.00,96.05
2098.00,96.07
2097.00,96.12
2096.00,96.16
2095.00,96.19
2094.00,96.18
2093.00,96.16
2092.00,96.15
2091.00,96.16
2090.00,96.15
2089.00,96.13
2088.00,96.11
2087.00,96.11
2086.00,96.11
2085.00,96.09
2084.00,96.07
2083.00,96.03
2082.00,96.00
2081.00,95.97
2080.00,95.94
2079.00,95.91
2078.00,95.90
2077.00,95.90
2076.00,95.91
2075.00,95.92
2074.00,95.92
2073.00,95.92
2072.00,95.90
2071.00,95.88
2070.00,95.87
2069.00,95.86
2068.00,95.85
2067.00,95.86
2066.00,95.87
2065.00,95.88
2064.00,95.90
2063.00,95.91
2062.00,95.92
2061.00,95.90
2060.00,95.87
2059.00,95.84
2058.00,95.83
2057.00,95.82
2056.00,95.80
2055.00,95.78
2054.00,95.74
2053.00,95.68
2052.00,95.60
2051.00,95.54
2050.00,95.54
2049.00,95.56
2048.00,95.57
2047.00,95.53
2046.00,95.47
2045.00,95.41
2044.00,95.36
2043.00,95.33
2042.00,95.31
2041.00,95.30
2040.00,95.29
2039.00,95.28
2038.00,95.28
2037.00,95.29
2036.00,95.31
2035.00,95.32
2034.00,95.33
2033.00,95.33
2032.00,95.34
2031.00,95.35
2030.00,95.38
2029.00,95.40
2028.00,95.36
2027.00,95.29
2026.00,95.23
2025.00,95.23
2024.00,95.27
2023.00,95.32
2022.00,95.37
2021.00,95.42
2020.00,95.43
2019.00,95.40
2018.00,95.36
2017.00,95.35
2016.00,95.38
2015.00,95.40
2014.00,95.41
2013.00,95.42
2012.00,95.45
2011.00,95.49
2010.00,95.53
2009.00,95.56
2008.00,95.58
2007.00,95.58
2006.00,95.55
2005.00,95.50
2004.00,95.45
2003.00,95.42
2002.00,95.43
2001.00,95.47
2000.00,95.53
1999.00,95.58
1998.00,95.62
1997.00,95.65
1996.00,95.69
1995.00,95.71
1994.00,95.66
1993.00,95.57
1992.00,95.47
1991.00,95.44
1990.00,95.46
1989.00,95.51
1988.00,95.56
1987.00,95.59
1986.00,95.59
1985.00,95.55
1984.00,95.48
1983.00,95.40
1982.00,95.32
1981.00,95.26
1980.00,95.22
1979.00,95.22
1978.00,95.24
1977.00,95.26
1976.00,95.29
1975.00,95.33
1974.00,95.39
1973.00,95.47
1972.00,95.55
1971.00,95.59
1970.00,95.60
1969.00,95.58
1968.00,95.54
1967.00,95.50
1966.00,95.47
1965.00,95.46
1964.00,95.46
1963.00,95.46
1962.00,95.48
1961.00,95.51
1960.00,95.57
1959.00,95.63
1958.00,95.68
1957.00,95.71
1956.00,95.73
1955.00,95.75
1954.00,95.76
1953.00,95.79
1952.00,95.82
1951.00,95.85
1950.00,95.89
1949.00,95.93
1948.00,95.96
1947.00,95.95
1946.00,95.92
1945.00,95.88
1944.00,95.88
1943.00,95.92
1942.00,95.98
1941.00,96.05
1940.00,96.08
1939.00,96.11
1938.00,96.13
1937.00,96.16
1936.00,96.19
1935.00,96.21
1934.00,96.23
1933.00,96.24
1932.00,96.26
1931.00,96.29
1930.00,96.31
1929.00,96.34
1928.00,96.37
1927.00,96.40
1926.00,96.42
1925.00,96.44
1924.00,96.47
1923.00,96.52
1922.00,96.55
1921.00,96.56
1920.00,96.54
1919.00,96.51
1918.00,96.49
1917.00,96.48
1916.00,96.48
1915.00,96.50
1914.00,96.53
1913.00,96.57
1912.00,96.60
1911.00,96.62
1910.00,96.63
1909.00,96.62
1908.00,96.62
1907.00,96.62
1906.00,96.63
1905.00,96.65
1904.00,96.68
1903.00,96.70
1902.00,96.72
1901.00,96.75
1900.00,96.78
1899.00,96.81
1898.00,96.82
1897.00,96.81
1896.00,96.80
1895.00,96.81
1894.00,96.83
1893.00,96.84
1892.00,96.83
1891.00,96.82
1890.00,96.82
1889.00,96.83
1888.00,96.84
1887.00,96.85
1886.00,96.86
1885.00,96.86
1884.00,96.86
1883.00,96.87
1882.00,96.89
1881.00,96.92
1880.00,96.95
1879.00,96.96
1878.00,96.96
1877.00,96.95
1876.00,96.94
1875.00,96.91
1874.00,96.90
1873.00,96.90
1872.00,96.91
1871.00,96.93
1870.00,96.94
1869.00,96.95
1868.00,96.96
1867.00,96.96
1866.00,96.97
1865.00,96.99
1864.00,97.01
1863.00,97.03
1862.00,97.05
1861.00,97.07
1860.00,97.07
1859.00,97.07
1858.00,97.07
1857.00,97.08
1856.00,97.10
1855.00,97.10
1854.00,97.08
1853.00,97.05
1852.00,97.03
1851.00,97.04
1850.00,97.05
1849.00,97.06
1848.00,97.06
1847.00,97.06
1846.00,97.06
1845.00,97.06
1844.00,97.05
1843.00,97.02
1842.00,97.00
1841.00,96.99
1840.00,97.00
1839.00,97.02
1838.00,97.02
1837.00,97.01
1836.00,97.00
1835.00,96.98
1834.00,96.96
1833.00,96.94
1832.00,96.93
1831.00,96.93
1830.00,96.92
1829.00,96.92
1828.00,96.92
1827.00,96.92
1826.00,96.92
1825.00,96.92
1824.00,96.93
1823.00,96.95
1822.00,96.97
1821.00,96.98
1820.00,97.00
1819.00,97.02
1818.00,97.03
1817.00,97.05
1816.00,97.07
1815.00,97.09
1814.00,97.10
1813.00,97.12
1812.00,97.13
1811.00,97.15
1810.00,97.16
1809.00,97.17
1808.00,97.18
1807.00,97.19
1806.00,97.19
1805.00,97.19
1804.00,97.20
1803.00,97.20
1802.00,97.20
1801.00,97.20
1800.00,97.20
1799.00,97.20
1798.00,97.21
1797.00,97.22
1796.00,97.22
1795.00,97.21
1794.00,97.20
1793.00,97.19
1792.00,97.19
1791.00,97.20
1790.00,97.21
1789.00,97.22
1788.00,97.23
1787.00,97.23
1786.00,97.23
1785.00,97.22
1784.00,97.21
1783.00,97.19
1782.00,97.18
1781.00,97.18
1780.00,97.18
1779.00,97.19
1778.00,97.20
1777.00,97.21
1776.00,97.22
1775.00,97.23
1774.00,97.24
1773.00,97.24
1772.00,97.23
1771.00,97.23
1770.00,97.24
1769.00,97.25
1768.00,97.25
1767.00,97.23
1766.00,97.21
1765.00,97.19
1764.00,97.19
1763.00,97.18
1762.00,97.18
1761.00,97.17
1760.00,97.16
1759.00,97.14
1758.00,97.12
1757.00,97.09
1756.00,97.06
1755.00,97.03
1754.00,97.00
1753.00,96.96
1752.00,96.90
1751.00,96.81
1750.00,96.71
1749.00,96.62
1748.00,96.52
1747.00,96.40
1746.00,96.25
1745.00,96.09
1744.00,95.89
1743.00,95.62
1742.00,95.28
1741.00,94.83
1740.00,94.26
1739.00,93.59
1738.00,92.94
1737.00,92.30
1736.00,91.53
1735.00,90.38
1734.00,88.86
1733.00,87.38
1732.00,86.12
1731.00,84.89
1730.00,83.57
1729.00,82.18
1728.00,80.79
1727.00,79.40
1726.00,77.97
1725.00,76.50
1724.00,74.97
1723.00,73.41
1722.00,71.91
1721.00,70.52
1720.00,69.14
1719.00,67.56
1718.00,65.75
1717.00,64.04
1716.00,62.69
1715.00,61.64
1714.00,60.85
1713.00,60.41
1712.00,60.33
1711.00,60.54
1710.00,61.01
1709.00,61.81
1708.00,62.98
1707.00,64.51
1706.00,66.38
1705.00,68.40
1704.00,70.19
1703.00,71.69
1702.00,73.20
1701.00,75.14
1700.00,77.25
1699.00,78.84
1698.00,79.91
1697.00,80.94
1696.00,82.10
1695.00,83.17
1694.00,83.96
1693.00,84.55
1692.00,85.11
1691.00,85.67
1690.00,86.21
1689.00,86.70
1688.00,87.10
1687.00,87.42
1686.00,87.72
1685.00,88.03
1684.00,88.33
1683.00,88.53
1682.00,88.67
1681.00,88.79
1680.00,88.89
1679.00,88.96
1678.00,89.02
1677.00,89.09
1676.00,89.20
1675.00,89.36
1674.00,89.54
1673.00,89.72
1672.00,89.93
1671.00,90.18
1670.00,90.49
1669.00,90.81
1668.00,91.09
1667.00,91.33
1666.00,91.53
1665.00,91.72
1664.00,91.93
1663.00,92.15
1662.00,92.37
1661.00,92.56
1660.00,92.72
1659.00,92.86
1658.00,92.97
1657.00,93.06
1656.00,93.16
1655.00,93.25
1654.00,93.34
1653.00,93.43
1652.00,93.48
1651.00,93.50
1650.00,93.53
1649.00,93.59
1648.00,93.70
1647.00,93.82
1646.00,93.92
1645.00,93.99
1644.00,94.05
1643.00,94.10
1642.00,94.15
1641.00,94.19
1640.00,94.21
1639.00,94.24
1638.00,94.26
1637.00,94.28
1636.00,94.31
1635.00,94.35
1634.00,94.40
1633.00,94.45
1632.00,94.50
1631.00,94.54
1630.00,94.57
1629.00,94.59
1628.00,94.62
1627.00,94.66
1626.00,94.70
1625.00,94.73
1624.00,94.75
1623.00,94.77
1622.00,94.79
1621.00,94.81
1620.00,94.83
1619.00,94.85
1618.00,94.84
1617.00,94.79
1616.00,94.74
1615.00,94.72
1614.00,94.73
1613.00,94.76
1612.00,94.79
1611.00,94.81
1610.00,94.83
1609.00,94.86
1608.00,94.91
1607.00,94.97
1606.00,95.04
1605.00,95.10
1604.00,95.16
1603.00,95.22
1602.00,95.27
1601.00,95.31
1600.00,95.35
1599.00,95.38
1598.00,95.40
1597.00,95.42
1596.00,95.43
1595.00,95.45
1594.00,95.46
1593.00,95.47
1592.00,95.50
1591.00,95.52
1590.00,95.54
1589.00,95.54
1588.00,95.52
1587.00,95.50
1586.00,95.46
1585.00,95.40
1584.00,95.31
1583.00,95.19
1582.00,95.04
1581.00,94.88
1580.00,94.74
1579.00,94.64
1578.00,94.61
1577.00,94.64
1576.00,94.73
1575.00,94.83
1574.00,94.92
1573.00,95.02
1572.00,95.12
1571.00,95.22
1570.00,95.34
1569.00,95.45
1568.00,95.53
1567.00,95.58
1566.00,95.62
1565.00,95.65
1564.00,95.68
1563.00,95.71
1562.00,95.73
1561.00,95.73
1560.00,95.75
1559.00,95.79
1558.00,95.82
1557.00,95.83
1556.00,95.86
1555.00,95.89
1554.00,95.91
1553.00,95.91
1552.00,95.90
1551.00,95.91
1550.00,95.93
1549.00,95.94
1548.00,95.96
1547.00,95.96
1546.00,95.95
1545.00,95.95
1544.00,95.96
1543.00,95.97
1542.00,95.97
1541.00,95.97
1540.00,95.99
1539.00,95.99
1538.00,95.98
1537.00,95.94
1536.00,95.90
1535.00,95.86
1534.00,95.82
1533.00,95.79
1532.00,95.77
1531.00,95.77
1530.00,95.77
1529.00,95.77
1528.00,95.78
1527.00,95.80
1526.00,95.83
1525.00,95.87
1524.00,95.93
1523.00,95.99
1522.00,96.04
1521.00,96.06
1520.00,96.06
1519.00,96.05
1518.00,96.05
1517.00,96.05
1516.00,96.05
1515.00,96.04
1514.00,96.02
1513.00,95.96
1512.00,95.85
1511.00,95.71
1510.00,95.52
1509.00,95.26
1508.00,94.83
1507.00,94.13
1506.00,93.38
1505.00,92.89
1504.00,92.73
1503.00,92.83
1502.00,93.14
1501.00,93.62
1500.00,94.19
1499.00,94.74
1498.00,95.21
1497.00,95.57
1496.00,95.80
1495.00,95.96
1494.00,96.06
1493.00,96.12
1492.00,96.15
1491.00,96.18
1490.00,96.21
1489.00,96.24
1488.00,96.26
1487.00,96.29
1486.00,96.30
1485.00,96.29
1484.00,96.26
1483.00,96.22
1482.00,96.17
1481.00,96.09
1480.00,96.00
1479.00,95.89
1478.00,95.76
1477.00,95.58
1476.00,95.37
1475.00,95.14
1474.00,94.86
1473.00,94.51
1472.00,94.15
1471.00,93.83
1470.00,93.55
1469.00,93.28
1468.00,93.00
1467.00,92.73
1466.00,92.48
1465.00,92.25
1464.00,92.06
1463.00,91.91
1462.00,91.78
1461.00,91.65
1460.00,91.51
1459.00,91.35
1458.00,91.15
1457.00,90.83
1456.00,90.39
1455.00,89.89
1454.00,89.33
1453.00,88.73
1452.00,88.18
1451.00,87.85
1450.00,87.81
1449.00,88.09
1448.00,88.61
1447.00,89.27
1446.00,89.94
1445.00,90.59
1444.00,91.21
1443.00,91.78
1442.00,92.25
1441.00,92.62
1440.00,92.91
1439.00,93.17
1438.00,93.45
1437.00,93.81
1436.00,94.20
1435.00,94.52
1434.00,94.76
1433.00,94.94
1432.00,95.09
1431.00,95.21
1430.00,95.31
1429.00,95.39
1428.00,95.45
1427.00,95.49
1426.00,95.52
1425.00,95.53
1424.00,95.52
1423.00,95.48
1422.00,95.42
1421.00,95.33
1420.00,95.16
1419.00,94.93
1418.00,94.65
1417.00,94.33
1416.00,93.96
1415.00,93.48
1414.00,92.85
1413.00,92.03
1412.00,91.01
1411.00,89.86
1410.00,88.67
1409.00,87.57
1408.00,86.70
1407.00,86.20
1406.00,86.19
1405.00,86.65
1404.00,87.46
1403.00,88.39
1402.00,89.25
1401.00,89.98
1400.00,90.58
1399.00,91.04
1398.00,91.35
1397.00,91.51
1396.00,91.57
1395.00,91.51
1394.00,91.37
1393.00,91.18
1392.00,90.97
1391.00,90.77
1390.00,90.61
1389.00,90.51
1388.00,90.50
1387.00,90.59
1386.00,90.77
1385.00,90.98
1384.00,91.19
1383.00,91.36
1382.00,91.46
1381.00,91.47
1380.00,91.40
1379.00,91.29
1378.00,91.19
1377.00,91.17
1376.00,91.24
1375.00,91.44
1374.00,91.73
1373.00,92.08
1372.00,92.42
1371.00,92.72
1370.00,93.00
1369.00,93.24
1368.00,93.47
1367.00,93.70
1366.00,93.92
1365.00,94.13
1364.00,94.32
1363.00,94.49
1362.00,94.63
1361.00,94.75
1360.00,94.84
1359.00,94.91
1358.00,94.95
1357.00,94.99
1356.00,95.03
1355.00,95.07
1354.00,95.12
1353.00,95.18
1352.00,95.24
1351.00,95.30
1350.00,95.37
1349.00,95.44
1348.00,95.51
1347.00,95.58
1346.00,95.63
1345.00,95.66
1344.00,95.68
1343.00,95.69
1342.00,95.68
1341.00,95.65
1340.00,95.61
1339.00,95.55
1338.00,95.49
1337.00,95.45
1336.00,95.42
1335.00,95.40
1334.00,95.37
1333.00,95.33
1332.00,95.25
1331.00,95.13
1330.00,94.96
1329.00,94.74
1328.00,94.49
1327.00,94.20
1326.00,93.87
1325.00,93.50
1324.00,93.11
1323.00,92.73
1322.00,92.35
1321.00,92.01
1320.00,91.72
1319.00,91.51
1318.00,91.40
1317.00,91.36
1316.00,91.39
1315.00,91.47
1314.00,91.58
1313.00,91.66
1312.00,91.68
1311.00,91.60
1310.00,91.43
1309.00,91.15
1308.00,90.78
1307.00,90.34
1306.00,89.82
1305.00,89.26
1304.00,88.67
1303.00,88.07
1302.00,87.49
1301.00,86.92
1300.00,86.34
1299.00,85.78
1298.00,85.25
1297.00,84.79
1296.00,84.43
1295.00,84.21
1294.00,84.12
1293.00,84.10
1292.00,84.10
1291.00,84.04
1290.00,83.88
1289.00,83.55
1288.00,83.04
1287.00,82.37
1286.00,81.57
1285.00,80.64
1284.00,79.63
1283.00,78.55
1282.00,77.44
1281.00,76.30
1280.00,75.14
1279.00,73.96
1278.00,72.77
1277.00,71.57
1276.00,70.37
1275.00,69.20
1274.00,68.08
1273.00,67.00
1272.00,65.98
1271.00,65.02
1270.00,64.15
1269.00,63.35
1268.00,62.60
1267.00,61.92
1266.00,61.35
1265.00,60.91
1264.00,60.67
1263.00,60.65
1262.00,60.86
1261.00,61.23
1260.00,61.66
1259.00,62.09
1258.00,62.43
1257.00,62.61
1256.00,62.60
1255.00,62.40
1254.00,62.07
1253.00,61.63
1252.00,61.15
1251.00,60.70
1250.00,60.33
1249.00,60.05
1248.00,59.90
1247.00,59.87
1246.00,59.99
1245.00,60.24
1244.00,60.61
1243.00,61.15
1242.00,61.85
1241.00,62.68
1240.00,63.63
1239.00,64.68
1238.00,65.81
1237.00,66.99
1236.00,68.16
1235.00,69.32
1234.00,70.45
1233.00,71.50
1232.00,72.49
1231.00,73.41
1230.00,74.25
1229.00,74.96
1228.00,75.50
1227.00,75.85
1226.00,76.02
1225.00,76.08
1224.00,76.08
1223.00,76.10
1222.00,76.20
1221.00,76.40
1220.00,76.73
1219.00,77.18
1218.00,77.74
1217.00,78.34
1216.00,78.95
1215.00,79.56
1214.00,80.15
1213.00,80.71
1212.00,81.26
1211.00,81.80
1210.00,82.32
1209.00,82.81
1208.00,83.26
1207.00,83.68
1206.00,84.07
1205.00,84.43
1204.00,84.78
1203.00,85.11
1202.00,85.44
1201.00,85.77
1200.00,86.08
1199.00,86.38
1198.00,86.66
1197.00,86.92
1196.00,87.18
1195.00,87.43
1194.00,87.68
1193.00,87.95
1192.00,88.23
1191.00,88.50
1190.00,88.76
1189.00,89.00
1188.00,89.22
1187.00,89.43
1186.00,89.61
1185.00,89.78
1184.00,89.92
1183.00,90.03
1182.00,90.12
1181.00,90.19
1180.00,90.23
1179.00,90.23
1178.00,90.19
1177.00,90.10
1176.00,89.97
1175.00,89.82
1174.00,89.66
1173.00,89.54
1172.00,89.49
1171.00,89.51
1170.00,89.58
1169.00,89.69
1168.00,89.84
1167.00,90.00
1166.00,90.16
1165.00,90.30
1164.00,90.43
1163.00,90.54
1162.00,90.63
1161.00,90.70
1160.00,90.75
1159.00,90.77
1158.00,90.74
1157.00,90.67
1156.00,90.57
1155.00,90.48
1154.00,90.42
1153.00,90.40
1152.00,90.43
1151.00,90.51
1150.00,90.62
1149.00,90.74
1148.00,90.84
1147.00,90.90
1146.00,90.89
1145.00,90.81
1144.00,90.63
1143.00,90.30
1142.00,89.78
1141.00,89.07
1140.00,88.15
1139.00,87.08
1138.00,85.91
1137.00,84.76
1136.00,83.74
1135.00,82.92
1134.00,82.30
1133.00,81.84
1132.00,81.47
1131.00,81.11
1130.00,80.72
1129.00,80.25
1128.00,79.68
1127.00,78.99
1126.00,78.15
1125.00,77.16
1124.00,76.06
1123.00,74.87
1122.00,73.62
1121.00,72.35
1120.00,71.13
1119.00,70.08
1118.00,69.26
1117.00,68.74
1116.00,68.56
1115.00,68.75
1114.00,69.24
1113.00,69.90
1112.00,70.56
1111.00,70.97
1110.00,70.92
1109.00,70.31
1108.00,69.24
1107.00,67.93
1106.00,66.59
1105.00,65.33
1104.00,64.21
1103.00,63.23
1102.00,62.41
1101.00,61.77
1100.00,61.34
1099.00,61.18
1098.00,61.27
1097.00,61.57
1096.00,62.03
1095.00,62.65
1094.00,63.36
1093.00,64.11
1092.00,64.86
1091.00,65.58
1090.00,66.26
1089.00,66.86
1088.00,67.41
1087.00,67.92
1086.00,68.42
1085.00,68.92
1084.00,69.46
1083.00,70.10
1082.00,70.87
1081.00,71.75
1080.00,72.70
1079.00,73.68
1078.00,74.64
1077.00,75.54
1076.00,76.37
1075.00,77.12
1074.00,77.79
1073.00,78.39
1072.00,78.92
1071.00,79.42
1070.00,79.89
1069.00,80.34
1068.00,80.76
1067.00,81.18
1066.00,81.57
1065.00,81.94
1064.00,82.27
1063.00,82.58
1062.00,82.87
1061.00,83.15
1060.00,83.43
1059.00,83.72
1058.00,84.00
1057.00,84.27
1056.00,84.55
1055.00,84.83
1054.00,85.11
1053.00,85.38
1052.00,85.64
1051.00,85.88
1050.00,86.09
1049.00,86.27
1048.00,86.41
1047.00,86.53
1046.00,86.65
1045.00,86.80
1044.00,86.99
1043.00,87.20
1042.00,87.41
1041.00,87.62
1040.00,87.84
1039.00,88.07
1038.00,88.28
1037.00,88.46
1036.00,88.63
1035.00,88.80
1034.00,88.97
1033.00,89.13
1032.00,89.27
1031.00,89.38
1030.00,89.41
1029.00,89.36
1028.00,89.20
1027.00,88.91
1026.00,88.37
1025.00,87.48
1024.00,86.14
1023.00,84.33
1022.00,82.10
1021.00,79.65
1020.00,77.27
1019.00,75.31
1018.00,74.02
1017.00,73.49
1016.00,73.60
1015.00,74.06
1014.00,74.68
1013.00,75.43
1012.00,76.43
1011.00,77.75
1010.00,79.24
1009.00,80.67
1008.00,81.88
1007.00,82.84
1006.00,83.61
1005.00,84.24
1004.00,84.78
1003.00,85.26
1002.00,85.69
1001.00,86.07
1000.00,86.38
999.00,86.64
998.00,86.86
997.00,87.05
996.00,87.19
995.00,87.27
994.00,87.29
993.00,87.24
992.00,87.14
991.00,87.02
990.00,86.90
989.00,86.81
988.00,86.76
987.00,86.77
986.00,86.82
985.00,86.88
984.00,86.94
983.00,86.98
982.00,87.00
981.00,86.94
980.00,86.77
979.00,86.46
978.00,85.97
977.00,85.30
976.00,84.49
975.00,83.62
974.00,82.80
973.00,82.13
972.00,81.69
971.00,81.49
970.00,81.48
969.00,81.60
968.00,81.77
967.00,81.92
966.00,81.98
965.00,81.88
964.00,81.54
963.00,80.92
962.00,80.03
961.00,78.96
960.00,77.86
959.00,76.92
958.00,76.27
957.00,75.93
956.00,75.89
955.00,76.09
954.00,76.45
953.00,76.90
952.00,77.38
951.00,77.86
950.00,78.34
949.00,78.83
948.00,79.33
947.00,79.86
946.00,80.40
945.00,80.96
944.00,81.53
943.00,82.10
942.00,82.63
941.00,83.11
940.00,83.53
939.00,83.90
938.00,84.23
937.00,84.51
936.00,84.75
935.00,84.94
934.00,85.09
933.00,85.21
932.00,85.33
931.00,85.47
930.00,85.63
929.00,85.79
928.00,85.94
927.00,86.07
926.00,86.18
925.00,86.28
924.00,86.38
923.00,86.50
922.00,86.63
921.00,86.76
920.00,86.87
919.00,87.00
918.00,87.14
917.00,87.29
916.00,87.45
915.00,87.61
914.00,87.78
913.00,87.94
912.00,88.09
911.00,88.18
910.00,88.22
909.00,88.18
908.00,88.09
907.00,87.98
906.00,87.87
905.00,87.77
904.00,87.70
903.00,87.66
902.00,87.65
901.00,87.68
900.00,87.74
899.00,87.84
898.00,87.94
897.00,88.04
896.00,88.13
895.00,88.22
894.00,88.31
893.00,88.37
892.00,88.40
891.00,88.42
890.00,88.45
889.00,88.51
888.00,88.57
887.00,88.61
886.00,88.60
885.00,88.50
884.00,88.29
883.00,87.96
882.00,87.47
881.00,86.82
880.00,85.97
879.00,84.94
878.00,83.76
877.00,82.44
876.00,81.05
875.00,79.76
874.00,78.81
873.00,78.45
872.00,78.76
871.00,79.60
870.00,80.70
869.00,81.81
868.00,82.77
867.00,83.57
866.00,84.21
865.00,84.69
864.00,85.02
863.00,85.21
862.00,85.28
861.00,85.24
860.00,85.10
859.00,84.90
858.00,84.68
857.00,84.52
856.00,84.49
855.00,84.61
854.00,84.86
853.00,85.18
852.00,85.52
851.00,85.85
850.00,86.13
849.00,86.37
848.00,86.58
847.00,86.78
846.00,86.97
845.00,87.14
844.00,87.31
843.00,87.47
842.00,87.63
841.00,87.78
840.00,87.89
839.00,87.99
838.00,88.07
837.00,88.13
836.00,88.18
835.00,88.22
834.00,88.27
833.00,88.34
832.00,88.41
831.00,88.49
830.00,88.56
829.00,88.60
828.00,88.62
827.00,88.65
826.00,88.69
825.00,88.73
824.00,88.75
823.00,88.75
822.00,88.72
821.00,88.66
820.00,88.56
819.00,88.44
818.00,88.29
817.00,88.17
816.00,88.09
815.00,88.08
814.00,88.13
813.00,88.22
812.00,88.33
811.00,88.46
810.00,88.59
809.00,88.69
808.00,88.75
807.00,88.79
806.00,88.81
805.00,88.83
804.00,88.85
803.00,88.85
802.00,88.86
801.00,88.87
800.00,88.84
799.00,88.70
798.00,88.39
797.00,87.94
796.00,87.44
795.00,87.05
794.00,86.87
793.00,86.93
792.00,87.18
791.00,87.56
790.00,88.00
789.00,88.41
788.00,88.76
787.00,89.04
786.00,89.26
785.00,89.45
784.00,89.62
783.00,89.78
782.00,89.93
781.00,90.05
780.00,90.13
779.00,90.17
778.00,90.20
777.00,90.21
776.00,90.23
775.00,90.26
774.00,90.30
773.00,90.38
772.00,90.50
771.00,90.63
770.00,90.78
769.00,90.91
768.00,91.05
767.00,91.21
766.00,91.40
765.00,91.59
764.00,91.74
763.00,91.87
762.00,91.98
761.00,92.09
760.00,92.19
759.00,92.29
758.00,92.39
757.00,92.48
756.00,92.58
755.00,92.67
754.00,92.74
753.00,92.80
752.00,92.86
751.00,92.92
750.00,93.01
749.00,93.10
748.00,93.17
747.00,93.22
746.00,93.23
745.00,93.14
744.00,92.92
743.00,92.50
742.00,91.83
741.00,90.81
740.00,89.36
739.00,87.45
738.00,85.10
737.00,82.37
736.00,79.35
735.00,76.07
734.00,72.57
733.00,68.90
732.00,65.13
731.00,61.39
730.00,57.95
729.00,55.15
728.00,53.39
727.00,52.85
726.00,53.51
725.00,55.11
724.00,57.33
723.00,59.89
722.00,62.59
721.00,65.27
720.00,67.78
719.00,69.98
718.00,71.84
717.00,73.41
716.00,74.73
715.00,75.83
714.00,76.69
713.00,77.32
712.00,77.75
711.00,78.05
710.00,78.27
709.00,78.47
708.00,78.69
707.00,78.97
706.00,79.33
705.00,79.77
704.00,80.26
703.00,80.80
702.00,81.36
701.00,81.91
700.00,82.40
699.00,82.81
698.00,83.16
697.00,83.47
696.00,83.74
695.00,83.99
694.00,84.20
693.00,84.38
692.00,84.54
691.00,84.69
690.00,84.84
689.00,84.97
688.00,85.08
687.00,85.17
686.00,85.26
685.00,85.35
684.00,85.40
683.00,85.41
682.00,85.38
681.00,85.39
680.00,85.46
679.00,85.60
678.00,85.73
677.00,85.81
676.00,85.86
675.00,85.92
674.00,86.03
673.00,86.20
672.00,86.40
671.00,86.57
670.00,86.69
669.00,86.73
668.00,86.63
667.00,86.49
666.00,86.50
665.00,86.57
664.00,86.65
663.00,86.72
662.00,86.83
661.00,86.95
660.00,87.08
659.00,87.21
658.00,87.33
657.00,87.41
656.00,87.47
655.00,87.53
654.00,87.59
653.00,87.60
652.00,87.52
651.00,87.36
650.00,87.20
649.00,87.11
648.00,87.08
647.00,87.08
646.00,87.09
645.00,87.11
644.00,87.17
643.00,87.28
642.00,87.45
641.00,87.66
640.00,87.81
639.00,87.79
638.00,87.62
637.00,87.43
636.00,87.31
635.00,87.23
634.00,87.15
633.00,87.06
632.00,87.06
631.00,87.16
630.00,87.30
629.00,87.38
628.00,87.42
627.00,87.48
626.00,87.57
625.00,87.75
624.00,88.03
623.00,88.42
622.00,88.79
621.00,89.01
620.00,89.03
619.00,88.94
618.00,88.93
617.00,89.08
616.00,89.30
615.00,89.46
614.00,89.50
613.00,89.49
612.00,89.45
611.00,89.28
610.00,88.91
609.00,88.41
608.00,87.91
607.00,87.44
606.00,86.84
605.00,85.98
604.00,84.98
603.00,84.17
602.00,83.79
601.00,83.75
600.00,83.81
599.00,83.85
598.00,83.93
597.00,84.15
596.00,84.53
595.00,84.94
594.00,85.28
593.00,85.57
592.00,85.94
591.00,86.43
590.00,86.95
589.00,87.38
588.00,87.65
587.00,87.80
586.00,87.92
585.00,88.04
584.00,88.16
583.00,88.22
582.00,88.14
581.00,87.97
580.00,87.92
579.00,88.13
578.00,88.53
577.00,88.85
576.00,88.87
575.00,88.50
574.00,87.85
573.00,87.24
572.00,87.07
571.00,87.54
570.00,88.45
569.00,89.24
568.00,89.50
567.00,89.22
566.00,88.72
565.00,88.30
564.00,88.10
563.00,88.05
562.00,87.97
561.00,87.69
560.00,87.21
559.00,86.83
558.00,86.77
557.00,86.96
556.00,87.07
555.00,86.76
554.00,86.09
553.00,85.41
552.00,85.07
551.00,85.13
550.00,85.39
