Created as New Dataset,144 Enka
cm-1,%T
4000.00,100.71
3999.00,100.69
3998.00,100.66
3997.00,100.62
3996.00,100.60
3995.00,100.59
3994.00,100.60
3993.00,100.62
3992.00,100.63
3991.00,100.64
3990.00,100.65
3989.00,100.66
3988.00,100.67
3987.00,100.66
3986.00,100.65
3985.00,100.62
3984.00,100.59
3983.00,100.57
3982.00,100.57
3981.00,100.60
3980.00,100.62
3979.00,100.64
3978.00,100.64
3977.00,100.64
3976.00,100.63
3975.00,100.63
3974.00,100.62
3973.00,100.60
3972.00,100.59
3971.00,100.58
3970.00,100.57
3969.00,100.57
3968.00,100.58
3967.00,100.60
3966.00,100.61
3965.00,100.63
3964.00,100.64
3963.00,100.64
3962.00,100.64
3961.00,100.65
3960.00,100.65
3959.00,100.65
3958.00,100.65
3957.00,100.65
3956.00,100.64
3955.00,100.64
3954.00,100.64
3953.00,100.65
3952.00,100.66
3951.00,100.66
3950.00,100.66
3949.00,100.65
3948.00,100.63
3947.00,100.62
3946.00,100.60
3945.00,100.59
3944.00,100.59
3943.00,100.61
3942.00,100.63
3941.00,100.65
3940.00,100.66
3939.00,100.66
3938.00,100.65
3937.00,100.63
3936.00,100.62
3935.00,100.62
3934.00,100.62
3933.00,100.61
3932.00,100.61
3931.00,100.60
3930.00,100.60
3929.00,100.60
3928.00,100.59
3927.00,100.57
3926.00,100.55
3925.00,100.54
3924.00,100.53
3923.00,100.52
3922.00,100.51
3921.00,100.52
3920.00,100.53
3919.00,100.54
3918.00,100.56
3917.00,100.57
3916.00,100.57
3915.00,100.56
3914.00,100.56
3913.00,100.56
3912.00,100.57
3911.00,100.58
3910.00,100.60
3909.00,100.62
3908.00,100.63
3907.00,100.63
3906.00,100.61
3905.00,100.59
3904.00,100.56
3903.00,100.53
3902.00,100.49
3901.00,100.46
3900.00,100.45
3899.00,100.45
3898.00,100.48
3897.00,100.50
3896.00,100.52
3895.00,100.52
3894.00,100.52
3893.00,100.52
3892.00,100.53
3891.00,100.54
3890.00,100.52
3889.00,100.50
3888.00,100.48
3887.00,100.48
3886.00,100.51
3885.00,100.53
3884.00,100.52
3883.00,100.51
3882.00,100.51
3881.00,100.52
3880.00,100.52
3879.00,100.51
3878.00,100.48
3877.00,100.46
3876.00,100.44
3875.00,100.44
3874.00,100.44
3873.00,100.43
3872.00,100.43
3871.00,100.44
3870.00,100.47
3869.00,100.48
3868.00,100.46
3867.00,100.45
3866.00,100.45
3865.00,100.46
3864.00,100.46
3863.00,100.46
3862.00,100.47
3861.00,100.50
3860.00,100.52
3859.00,100.54
3858.00,100.53
3857.00,100.50
3856.00,100.47
3855.00,100.49
3854.00,100.52
3853.00,100.52
3852.00,100.49
3851.00,100.46
3850.00,100.46
3849.00,100.47
3848.00,100.48
3847.00,100.49
3846.00,100.49
3845.00,100.50
3844.00,100.51
3843.00,100.52
3842.00,100.52
3841.00,100.51
3840.00,100.49
3839.00,100.47
3838.00,100.44
3837.00,100.40
3836.00,100.38
3835.00,100.37
3834.00,100.38
3833.00,100.40
3832.00,100.43
3831.00,100.43
3830.00,100.41
3829.00,100.37
3828.00,100.35
3827.00,100.36
3826.00,100.37
3825.00,100.36
3824.00,100.35
3823.00,100.34
3822.00,100.36
3821.00,100.39
3820.00,100.39
3819.00,100.38
3818.00,100.37
3817.00,100.38
3816.00,100.41
3815.00,100.42
3814.00,100.42
3813.00,100.42
3812.00,100.43
3811.00,100.42
3810.00,100.40
3809.00,100.38
3808.00,100.38
3807.00,100.38
3806.00,100.37
3805.00,100.34
3804.00,100.31
3803.00,100.33
3802.00,100.37
3801.00,100.39
3800.00,100.37
3799.00,100.34
3798.00,100.32
3797.00,100.34
3796.00,100.37
3795.00,100.40
3794.00,100.41
3793.00,100.42
3792.00,100.42
3791.00,100.43
3790.00,100.44
3789.00,100.44
3788.00,100.43
3787.00,100.41
3786.00,100.38
3785.00,100.35
3784.00,100.34
3783.00,100.33
3782.00,100.33
3781.00,100.35
3780.00,100.37
3779.00,100.38
3778.00,100.37
3777.00,100.36
3776.00,100.36
3775.00,100.37
3774.00,100.38
3773.00,100.37
3772.00,100.34
3771.00,100.31
3770.00,100.29
3769.00,100.27
3768.00,100.26
3767.00,100.26
3766.00,100.28
3765.00,100.30
3764.00,100.31
3763.00,100.31
3762.00,100.30
3761.00,100.28
3760.00,100.26
3759.00,100.24
3758.00,100.25
3757.00,100.27
3756.00,100.28
3755.00,100.27
3754.00,100.25
3753.00,100.23
3752.00,100.20
3751.00,100.18
3750.00,100.17
3749.00,100.17
3748.00,100.16
3747.00,100.14
3746.00,100.16
3745.00,100.22
3744.00,100.29
3743.00,100.32
3742.00,100.32
3741.00,100.31
3740.00,100.29
3739.00,100.26
3738.00,100.22
3737.00,100.20
3736.00,100.19
3735.00,100.17
3734.00,100.17
3733.00,100.19
3732.00,100.22
3731.00,100.26
3730.00,100.27
3729.00,100.27
3728.00,100.27
3727.00,100.27
3726.00,100.27
3725.00,100.25
3724.00,100.24
3723.00,100.23
3722.00,100.22
3721.00,100.21
3720.00,100.20
3719.00,100.20
3718.00,100.21
3717.00,100.22
3716.00,100.21
3715.00,100.20
3714.00,100.19
3713.00,100.18
3712.00,100.17
3711.00,100.16
3710.00,100.16
3709.00,100.18
3708.00,100.21
3707.00,100.23
3706.00,100.23
3705.00,100.22
3704.00,100.20
3703.00,100.19
3702.00,100.19
3701.00,100.18
3700.00,100.18
3699.00,100.18
3698.00,100.18
3697.00,100.18
3696.00,100.17
3695.00,100.14
3694.00,100.12
3693.00,100.11
3692.00,100.11
3691.00,100.10
3690.00,100.09
3689.00,100.09
3688.00,100.08
3687.00,100.09
3686.00,100.09
3685.00,100.11
3684.00,100.12
3683.00,100.13
3682.00,100.12
3681.00,100.11
3680.00,100.10
3679.00,100.07
3678.00,100.04
3677.00,100.03
3676.00,100.03
3675.00,100.02
3674.00,99.98
3673.00,99.93
3672.00,99.91
3671.00,99.92
3670.00,99.95
3669.00,99.99
3668.00,100.01
3667.00,100.04
3666.00,100.06
3665.00,100.08
3664.00,100.08
3663.00,100.08
3662.00,100.07
3661.00,100.06
3660.00,100.04
3659.00,100.01
3658.00,99.99
3657.00,99.96
3656.00,99.94
3655.00,99.90
3654.00,99.87
3653.00,99.84
3652.00,99.83
3651.00,99.82
3650.00,99.79
3649.00,99.74
3648.00,99.72
3647.00,99.75
3646.00,99.78
3645.00,99.82
3644.00,99.84
3643.00,99.86
3642.00,99.88
3641.00,99.90
3640.00,99.92
3639.00,99.93
3638.00,99.93
3637.00,99.92
3636.00,99.91
3635.00,99.92
3634.00,99.93
3633.00,99.94
3632.00,99.92
3631.00,99.91
3630.00,99.90
3629.00,99.89
3628.00,99.86
3627.00,99.84
3626.00,99.85
3625.00,99.87
3624.00,99.90
3623.00,99.91
3622.00,99.90
3621.00,99.88
3620.00,99.86
3619.00,99.85
3618.00,99.85
3617.00,99.85
3616.00,99.85
3615.00,99.88
3614.00,99.91
3613.00,99.94
3612.00,99.94
3611.00,99.92
3610.00,99.88
3609.00,99.87
3608.00,99.87
3607.00,99.88
3606.00,99.89
3605.00,99.90
3604.00,99.91
3603.00,99.92
3602.00,99.94
3601.00,99.95
3600.00,99.95
3599.00,99.93
3598.00,99.92
3597.00,99.92
3596.00,99.93
3595.00,99.94
3594.00,99.95
3593.00,99.96
3592.00,99.96
3591.00,99.95
3590.00,99.95
3589.00,99.95
3588.00,99.95
3587.00,99.96
3586.00,99.95
3585.00,99.95
3584.00,99.96
3583.00,99.97
3582.00,99.97
3581.00,99.97
3580.00,99.96
3579.00,99.94
3578.00,99.93
3577.00,99.92
3576.00,99.91
3575.00,99.90
3574.00,99.91
3573.00,99.92
3572.00,99.93
3571.00,99.92
3570.00,99.90
3569.00,99.90
3568.00,99.90
3567.00,99.90
3566.00,99.88
3565.00,99.86
3564.00,99.84
3563.00,99.85
3562.00,99.86
3561.00,99.88
3560.00,99.90
3559.00,99.90
3558.00,99.90
3557.00,99.89
3556.00,99.89
3555.00,99.89
3554.00,99.88
3553.00,99.86
3552.00,99.84
3551.00,99.84
3550.00,99.86
3549.00,99.91
3548.00,99.95
3547.00,99.97
3546.00,99.95
3545.00,99.92
3544.00,99.89
3543.00,99.86
3542.00,99.84
3541.00,99.83
3540.00,99.81
3539.00,99.81
3538.00,99.82
3537.00,99.85
3536.00,99.87
3535.00,99.90
3534.00,99.91
3533.00,99.91
3532.00,99.90
3531.00,99.89
3530.00,99.88
3529.00,99.88
3528.00,99.89
3527.00,99.89
3526.00,99.89
3525.00,99.90
3524.00,99.94
3523.00,99.98
3522.00,100.01
3521.00,100.02
3520.00,100.02
3519.00,100.01
3518.00,100.00
3517.00,99.99
3516.00,99.98
3515.00,99.98
3514.00,99.98
3513.00,99.98
3512.00,99.96
3511.00,99.94
3510.00,99.91
3509.00,99.90
3508.00,99.91
3507.00,99.93
3506.00,99.97
3505.00,100.01
3504.00,100.03
3503.00,100.02
3502.00,100.00
3501.00,99.98
3500.00,99.96
3499.00,99.94
3498.00,99.93
3497.00,99.91
3496.00,99.90
3495.00,99.91
3494.00,99.93
3493.00,99.95
3492.00,99.97
3491.00,99.98
3490.00,99.99
3489.00,100.00
3488.00,100.00
3487.00,99.99
3486.00,99.98
3485.00,99.97
3484.00,99.98
3483.00,99.99
3482.00,100.00
3481.00,99.98
3480.00,99.96
3479.00,99.93
3478.00,99.91
3477.00,99.90
3476.00,99.90
3475.00,99.90
3474.00,99.91
3473.00,99.92
3472.00,99.95
3471.00,99.97
3470.00,99.99
3469.00,99.98
3468.00,99.96
3467.00,99.93
3466.00,99.91
3465.00,99.89
3464.00,99.88
3463.00,99.87
3462.00,99.86
3461.00,99.85
3460.00,99.84
3459.00,99.83
3458.00,99.83
3457.00,99.82
3456.00,99.81
3455.00,99.79
3454.00,99.77
3453.00,99.74
3452.00,99.73
3451.00,99.72
3450.00,99.73
3449.00,99.74
3448.00,99.74
3447.00,99.72
3446.00,99.69
3445.00,99.64
3444.00,99.61
3443.00,99.58
3442.00,99.55
3441.00,99.52
3440.00,99.50
3439.00,99.49
3438.00,99.48
3437.00,99.47
3436.00,99.46
3435.00,99.45
3434.00,99.44
3433.00,99.43
3432.00,99.43
3431.00,99.43
3430.00,99.45
3429.00,99.47
3428.00,99.50
3427.00,99.52
3426.00,99.53
3425.00,99.54
3424.00,99.55
3423.00,99.58
3422.00,99.61
3421.00,99.64
3420.00,99.66
3419.00,99.66
3418.00,99.66
3417.00,99.67
3416.00,99.70
3415.00,99.74
3414.00,99.79
3413.00,99.83
3412.00,99.85
3411.00,99.85
3410.00,99.84
3409.00,99.83
3408.00,99.83
3407.00,99.84
3406.00,99.85
3405.00,99.87
3404.00,99.89
3403.00,99.91
3402.00,99.93
3401.00,99.94
3400.00,99.93
3399.00,99.92
3398.00,99.91
3397.00,99.92
3396.00,99.95
3395.00,99.97
3394.00,99.98
3393.00,99.98
3392.00,99.96
3391.00,99.93
3390.00,99.91
3389.00,99.91
3388.00,99.91
3387.00,99.92
3386.00,99.93
3385.00,99.93
3384.00,99.93
3383.00,99.92
3382.00,99.92
3381.00,99.90
3380.00,99.89
3379.00,99.88
3378.00,99.89
3377.00,99.92
3376.00,99.94
3375.00,99.95
3374.00,99.94
3373.00,99.93
3372.00,99.93
3371.00,99.93
3370.00,99.92
3369.00,99.92
3368.00,99.91
3367.00,99.90
3366.00,99.89
3365.00,99.89
3364.00,99.89
3363.00,99.89
3362.00,99.90
3361.00,99.90
3360.00,99.90
3359.00,99.90
3358.00,99.89
3357.00,99.88
3356.00,99.88
3355.00,99.90
3354.00,99.92
3353.00,99.94
3352.00,99.94
3351.00,99.93
3350.00,99.92
3349.00,99.91
3348.00,99.90
3347.00,99.90
3346.00,99.91
3345.00,99.91
3344.00,99.90
3343.00,99.89
3342.00,99.90
3341.00,99.92
3340.00,99.93
3339.00,99.93
3338.00,99.91
3337.00,99.89
3336.00,99.89
3335.00,99.89
3334.00,99.88
3333.00,99.88
3332.00,99.87
3331.00,99.87
3330.00,99.88
3329.00,99.89
3328.00,99.87
3327.00,99.85
3326.00,99.84
3325.00,99.83
3324.00,99.84
3323.00,99.85
3322.00,99.85
3321.00,99.85
3320.00,99.84
3319.00,99.84
3318.00,99.84
3317.00,99.83
3316.00,99.83
3315.00,99.83
3314.00,99.84
3313.00,99.87
3312.00,99.89
3311.00,99.90
3310.00,99.90
3309.00,99.88
3308.00,99.86
3307.00,99.85
3306.00,99.84
3305.00,99.84
3304.00,99.85
3303.00,99.86
3302.00,99.87
3301.00,99.87
3300.00,99.84
3299.00,99.81
3298.00,99.80
3297.00,99.80
3296.00,99.81
3295.00,99.82
3294.00,99.82
3293.00,99.82
3292.00,99.82
3291.00,99.83
3290.00,99.84
3289.00,99.85
3288.00,99.85
3287.00,99.85
3286.00,99.85
3285.00,99.84
3284.00,99.83
3283.00,99.80
3282.00,99.79
3281.00,99.78
3280.00,99.79
3279.00,99.81
3278.00,99.83
3277.00,99.85
3276.00,99.86
3275.00,99.86
3274.00,99.85
3273.00,99.83
3272.00,99.80
3271.00,99.78
3270.00,99.79
3269.00,99.81
3268.00,99.84
3267.00,99.87
3266.00,99.88
3265.00,99.88
3264.00,99.87
3263.00,99.86
3262.00,99.85
3261.00,99.85
3260.00,99.85
3259.00,99.86
3258.00,99.86
3257.00,99.86
3256.00,99.85
3255.00,99.84
3254.00,99.82
3253.00,99.80
3252.00,99.79
3251.00,99.78
3250.00,99.79
3249.00,99.81
3248.00,99.84
3247.00,99.85
3246.00,99.85
3245.00,99.84
3244.00,99.83
3243.00,99.83
3242.00,99.84
3241.00,99.85
3240.00,99.86
3239.00,99.86
3238.00,99.84
3237.00,99.83
3236.00,99.81
3235.00,99.80
3234.00,99.79
3233.00,99.78
3232.00,99.77
3231.00,99.77
3230.00,99.77
3229.00,99.77
3228.00,99.78
3227.00,99.79
3226.00,99.79
3225.00,99.79
3224.00,99.78
3223.00,99.78
3222.00,99.79
3221.00,99.81
3220.00,99.84
3219.00,99.85
3218.00,99.86
3217.00,99.85
3216.00,99.84
3215.00,99.83
3214.00,99.83
3213.00,99.83
3212.00,99.83
3211.00,99.84
3210.00,99.84
3209.00,99.84
3208.00,99.85
3207.00,99.85
3206.00,99.85
3205.00,99.84
3204.00,99.83
3203.00,99.83
3202.00,99.83
3201.00,99.84
3200.00,99.85
3199.00,99.86
3198.00,99.86
3197.00,99.85
3196.00,99.84
3195.00,99.83
3194.00,99.81
3193.00,99.79
3192.00,99.77
3191.00,99.77
3190.00,99.77
3189.00,99.78
3188.00,99.79
3187.00,99.80
3186.00,99.81
3185.00,99.82
3184.00,99.82
3183.00,99.83
3182.00,99.84
3181.00,99.85
3180.00,99.85
3179.00,99.85
3178.00,99.84
3177.00,99.83
3176.00,99.81
3175.00,99.80
3174.00,99.80
3173.00,99.79
3172.00,99.79
3171.00,99.79
3170.00,99.80
3169.00,99.81
3168.00,99.81
3167.00,99.80
3166.00,99.79
3165.00,99.79
3164.00,99.79
3163.00,99.81
3162.00,99.82
3161.00,99.82
3160.00,99.82
3159.00,99.82
3158.00,99.82
3157.00,99.83
3156.00,99.84
3155.00,99.84
3154.00,99.84
3153.00,99.83
3152.00,99.81
3151.00,99.80
3150.00,99.80
3149.00,99.81
3148.00,99.82
3147.00,99.81
3146.00,99.81
3145.00,99.82
3144.00,99.83
3143.00,99.84
3142.00,99.83
3141.00,99.81
3140.00,99.80
3139.00,99.79
3138.00,99.79
3137.00,99.79
3136.00,99.78
3135.00,99.76
3134.00,99.73
3133.00,99.72
3132.00,99.71
3131.00,99.72
3130.00,99.72
3129.00,99.73
3128.00,99.73
3127.00,99.72
3126.00,99.70
3125.00,99.67
3124.00,99.64
3123.00,99.63
3122.00,99.64
3121.00,99.66
3120.00,99.68
3119.00,99.68
3118.00,99.67
3117.00,99.65
3116.00,99.63
3115.00,99.62
3114.00,99.61
3113.00,99.60
3112.00,99.60
3111.00,99.59
3110.00,99.58
3109.00,99.57
3108.00,99.54
3107.00,99.53
3106.00,99.51
3105.00,99.51
3104.00,99.52
3103.00,99.55
3102.00,99.57
3101.00,99.57
3100.00,99.57
3099.00,99.55
3098.00,99.52
3097.00,99.51
3096.00,99.50
3095.00,99.51
3094.00,99.51
3093.00,99.52
3092.00,99.52
3091.00,99.52
3090.00,99.52
3089.00,99.51
3088.00,99.49
3087.00,99.47
3086.00,99.46
3085.00,99.45
3084.00,99.46
3083.00,99.45
3082.00,99.45
3081.00,99.44
3080.00,99.43
3079.00,99.42
3078.00,99.42
3077.00,99.41
3076.00,99.40
3075.00,99.38
3074.00,99.36
3073.00,99.35
3072.00,99.36
3071.00,99.37
3070.00,99.39
3069.00,99.41
3068.00,99.42
3067.00,99.43
3066.00,99.43
3065.00,99.43
3064.00,99.43
3063.00,99.42
3062.00,99.42
3061.00,99.41
3060.00,99.41
3059.00,99.40
3058.00,99.39
3057.00,99.37
3056.00,99.36
3055.00,99.34
3054.00,99.34
3053.00,99.36
3052.00,99.38
3051.00,99.41
3050.00,99.44
3049.00,99.46
3048.00,99.49
3047.00,99.54
3046.00,99.59
3045.00,99.63
3044.00,99.66
3043.00,99.67
3042.00,99.67
3041.00,99.68
3040.00,99.70
3039.00,99.72
3038.00,99.73
3037.00,99.72
3036.00,99.70
3035.00,99.66
3034.00,99.63
3033.00,99.61
3032.00,99.60
3031.00,99.60
3030.00,99.61
3029.00,99.62
3028.00,99.62
3027.00,99.60
3026.00,99.58
3025.00,99.55
3024.00,99.52
3023.00,99.49
3022.00,99.47
3021.00,99.43
3020.00,99.41
3019.00,99.38
3018.00,99.36
3017.00,99.33
3016.00,99.30
3015.00,99.26
3014.00,99.23
3013.00,99.20
3012.00,99.17
3011.00,99.14
3010.00,99.11
3009.00,99.08
3008.00,99.05
3007.00,99.03
3006.00,99.02
3005.00,99.00
3004.00,98.98
3003.00,98.96
3002.00,98.95
3001.00,98.94
3000.00,98.94
2999.00,98.94
2998.00,98.94
2997.00,98.94
2996.00,98.93
2995.00,98.91
2994.00,98.88
2993.00,98.86
2992.00,98.82
2991.00,98.79
2990.00,98.74
2989.00,98.70
2988.00,98.65
2987.00,98.61
2986.00,98.57
2985.00,98.53
2984.00,98.48
2983.00,98.43
2982.00,98.37
2981.00,98.30
2980.00,98.23
2979.00,98.16
2978.00,98.09
2977.00,98.01
2976.00,97.93
2975.00,97.85
2974.00,97.78
2973.00,97.73
2972.00,97.71
2971.00,97.70
2970.00,97.69
2969.00,97.69
2968.00,97.68
2967.00,97.70
2966.00,97.72
2965.00,97.75
2964.00,97.78
2963.00,97.82
2962.00,97.87
2961.00,97.91
2960.00,97.96
2959.00,98.01
2958.00,98.05
2957.00,98.09
2956.00,98.14
2955.00,98.20
2954.00,98.26
2953.00,98.31
2952.00,98.36
2951.00,98.40
2950.00,98.45
2949.00,98.50
2948.00,98.55
2947.00,98.60
2946.00,98.65
2945.00,98.70
2944.00,98.77
2943.00,98.83
2942.00,98.88
2941.00,98.92
2940.00,98.94
2939.00,98.97
2938.00,98.99
2937.00,99.01
2936.00,99.02
2935.00,99.03
2934.00,99.04
2933.00,99.06
2932.00,99.07
2931.00,99.06
2930.00,99.05
2929.00,99.04
2928.00,99.03
2927.00,99.03
2926.00,99.03
2925.00,99.02
2924.00,99.00
2923.00,98.99
2922.00,98.97
2921.00,98.96
2920.00,98.94
2919.00,98.91
2918.00,98.87
2917.00,98.83
2916.00,98.78
2915.00,98.75
2914.00,98.71
2913.00,98.66
2912.00,98.61
2911.00,98.57
2910.00,98.54
2909.00,98.54
2908.00,98.55
2907.00,98.58
2906.00,98.61
2905.00,98.65
2904.00,98.69
2903.00,98.74
2902.00,98.80
2901.00,98.85
2900.00,98.89
2899.00,98.91
2898.00,98.92
2897.00,98.92
2896.00,98.92
2895.00,98.93
2894.00,98.95
2893.00,98.98
2892.00,99.00
2891.00,99.02
2890.00,99.04
2889.00,99.06
2888.00,99.07
2887.00,99.08
2886.00,99.09
2885.00,99.10
2884.00,99.11
2883.00,99.12
2882.00,99.12
2881.00,99.13
2880.00,99.14
2879.00,99.14
2878.00,99.15
2877.00,99.15
2876.00,99.14
2875.00,99.15
2874.00,99.16
2873.00,99.18
2872.00,99.19
2871.00,99.20
2870.00,99.20
2869.00,99.21
2868.00,99.23
2867.00,99.24
2866.00,99.25
2865.00,99.25
2864.00,99.25
2863.00,99.25
2862.00,99.26
2861.00,99.27
2860.00,99.27
2859.00,99.26
2858.00,99.25
2857.00,99.24
2856.00,99.23
2855.00,99.23
2854.00,99.25
2853.00,99.28
2852.00,99.30
2851.00,99.32
2850.00,99.34
2849.00,99.36
2848.00,99.38
2847.00,99.40
2846.00,99.41
2845.00,99.43
2844.00,99.44
2843.00,99.45
2842.00,99.47
2841.00,99.49
2840.00,99.51
2839.00,99.54
2838.00,99.57
2837.00,99.58
2836.00,99.58
2835.00,99.58
2834.00,99.58
2833.00,99.58
2832.00,99.60
2831.00,99.62
2830.00,99.65
2829.00,99.67
2828.00,99.68
2827.00,99.69
2826.00,99.70
2825.00,99.71
2824.00,99.71
2823.00,99.71
2822.00,99.69
2821.00,99.69
2820.00,99.69
2819.00,99.69
2818.00,99.69
2817.00,99.68
2816.00,99.67
2815.00,99.66
2814.00,99.67
2813.00,99.68
2812.00,99.68
2811.00,99.68
2810.00,99.67
2809.00,99.67
2808.00,99.67
2807.00,99.67
2806.00,99.66
2805.00,99.66
2804.00,99.66
2803.00,99.66
2802.00,99.67
2801.00,99.68
2800.00,99.68
2799.00,99.68
2798.00,99.67
2797.00,99.67
2796.00,99.67
2795.00,99.67
2794.00,99.67
2793.00,99.68
2792.00,99.68
2791.00,99.68
2790.00,99.68
2789.00,99.67
2788.00,99.67
2787.00,99.67
2786.00,99.69
2785.00,99.71
2784.00,99.73
2783.00,99.74
2782.00,99.75
2781.00,99.76
2780.00,99.77
2779.00,99.79
2778.00,99.80
2777.00,99.79
2776.00,99.77
2775.00,99.75
2774.00,99.75
2773.00,99.76
2772.00,99.78
2771.00,99.79
2770.00,99.79
2769.00,99.78
2768.00,99.78
2767.00,99.79
2766.00,99.79
2765.00,99.80
2764.00,99.81
2763.00,99.81
2762.00,99.80
2761.00,99.80
2760.00,99.80
2759.00,99.80
2758.00,99.81
2757.00,99.82
2756.00,99.81
2755.00,99.80
2754.00,99.79
2753.00,99.78
2752.00,99.78
2751.00,99.78
2750.00,99.79
2749.00,99.78
2748.00,99.78
2747.00,99.77
2746.00,99.78
2745.00,99.80
2744.00,99.81
2743.00,99.82
2742.00,99.82
2741.00,99.81
2740.00,99.80
2739.00,99.80
2738.00,99.80
2737.00,99.79
2736.00,99.79
2735.00,99.79
2734.00,99.80
2733.00,99.80
2732.00,99.81
2731.00,99.82
2730.00,99.83
2729.00,99.84
2728.00,99.85
2727.00,99.85
2726.00,99.85
2725.00,99.84
2724.00,99.83
2723.00,99.83
2722.00,99.83
2721.00,99.83
2720.00,99.83
2719.00,99.83
2718.00,99.82
2717.00,99.82
2716.00,99.82
2715.00,99.83
2714.00,99.84
2713.00,99.84
2712.00,99.85
2711.00,99.85
2710.00,99.86
2709.00,99.86
2708.00,99.86
2707.00,99.86
2706.00,99.86
2705.00,99.85
2704.00,99.85
2703.00,99.84
2702.00,99.83
2701.00,99.83
2700.00,99.82
2699.00,99.83
2698.00,99.84
2697.00,99.85
2696.00,99.86
2695.00,99.86
2694.00,99.86
2693.00,99.84
2692.00,99.83
2691.00,99.83
2690.00,99.83
2689.00,99.83
2688.00,99.82
2687.00,99.81
2686.00,99.81
2685.00,99.82
2684.00,99.83
2683.00,99.84
2682.00,99.85
2681.00,99.86
2680.00,99.85
2679.00,99.84
2678.00,99.84
2677.00,99.84
2676.00,99.83
2675.00,99.83
2674.00,99.82
2673.00,99.81
2672.00,99.80
2671.00,99.80
2670.00,99.81
2669.00,99.82
2668.00,99.83
2667.00,99.84
2666.00,99.85
2665.00,99.86
2664.00,99.84
2663.00,99.82
2662.00,99.79
2661.00,99.78
2660.00,99.78
2659.00,99.79
2658.00,99.79
2657.00,99.79
2656.00,99.78
2655.00,99.76
2654.00,99.75
2653.00,99.73
2652.00,99.72
2651.00,99.71
2650.00,99.69
2649.00,99.67
2648.00,99.66
2647.00,99.66
2646.00,99.66
2645.00,99.66
2644.00,99.65
2643.00,99.64
2642.00,99.62
2641.00,99.61
2640.00,99.60
2639.00,99.58
2638.00,99.56
2637.00,99.54
2636.00,99.52
2635.00,99.52
2634.00,99.52
2633.00,99.52
2632.00,99.52
2631.00,99.52
2630.00,99.51
2629.00,99.50
2628.00,99.48
2627.00,99.46
2626.00,99.44
2625.00,99.42
2624.00,99.42
2623.00,99.43
2622.00,99.44
2621.00,99.44
2620.00,99.43
2619.00,99.42
2618.00,99.40
2617.00,99.39
2616.00,99.39
2615.00,99.39
2614.00,99.39
2613.00,99.38
2612.00,99.37
2611.00,99.37
2610.00,99.36
2609.00,99.36
2608.00,99.35
2607.00,99.33
2606.00,99.32
2605.00,99.31
2604.00,99.31
2603.00,99.32
2602.00,99.33
2601.00,99.33
2600.00,99.34
2599.00,99.33
2598.00,99.31
2597.00,99.28
2596.00,99.26
2595.00,99.25
2594.00,99.24
2593.00,99.24
2592.00,99.24
2591.00,99.24
2590.00,99.23
2589.00,99.22
2588.00,99.21
2587.00,99.21
2586.00,99.19
2585.00,99.18
2584.00,99.17
2583.00,99.17
2582.00,99.18
2581.00,99.18
2580.00,99.16
2579.00,99.13
2578.00,99.11
2577.00,99.11
2576.00,99.12
2575.00,99.14
2574.00,99.15
2573.00,99.15
2572.00,99.15
2571.00,99.15
2570.00,99.15
2569.00,99.14
2568.00,99.13
2567.00,99.11
2566.00,99.10
2565.00,99.09
2564.00,99.11
2563.00,99.15
2562.00,99.17
2561.00,99.17
2560.00,99.14
2559.00,99.10
2558.00,99.07
2557.00,99.05
2556.00,99.06
2555.00,99.08
2554.00,99.10
2553.00,99.11
2552.00,99.11
2551.00,99.12
2550.00,99.13
2549.00,99.15
2548.00,99.17
2547.00,99.17
2546.00,99.16
2545.00,99.16
2544.00,99.14
2543.00,99.12
2542.00,99.10
2541.00,99.07
2540.00,99.06
2539.00,99.05
2538.00,99.07
2537.00,99.10
2536.00,99.13
2535.00,99.14
2534.00,99.14
2533.00,99.11
2532.00,99.07
2531.00,99.05
2530.00,99.04
2529.00,99.04
2528.00,99.05
2527.00,99.06
2526.00,99.06
2525.00,99.06
2524.00,99.06
2523.00,99.06
2522.00,99.07
2521.00,99.07
2520.00,99.08
2519.00,99.07
2518.00,99.06
2517.00,99.05
2516.00,99.05
2515.00,99.06
2514.00,99.08
2513.00,99.10
2512.00,99.10
2511.00,99.10
2510.00,99.10
2509.00,99.11
2508.00,99.13
2507.00,99.15
2506.00,99.15
2505.00,99.15
2504.00,99.13
2503.00,99.12
2502.00,99.11
2501.00,99.11
2500.00,99.14
2499.00,99.15
2498.00,99.14
2497.00,99.13
2496.00,99.13
2495.00,99.14
2494.00,99.16
2493.00,99.17
2492.00,99.17
2491.00,99.18
2490.00,99.20
2489.00,99.21
2488.00,99.20
2487.00,99.18
2486.00,99.16
2485.00,99.16
2484.00,99.15
2483.00,99.15
2482.00,99.15
2481.00,99.13
2480.00,99.13
2479.00,99.14
2478.00,99.16
2477.00,99.20
2476.00,99.22
2475.00,99.22
2474.00,99.21
2473.00,99.19
2472.00,99.18
2471.00,99.18
2470.00,99.19
2469.00,99.19
2468.00,99.19
2467.00,99.20
2466.00,99.20
2465.00,99.20
2464.00,99.19
2463.00,99.17
2462.00,99.16
2461.00,99.17
2460.00,99.18
2459.00,99.20
2458.00,99.21
2457.00,99.20
2456.00,99.18
2455.00,99.17
2454.00,99.16
2453.00,99.17
2452.00,99.17
2451.00,99.19
2450.00,99.19
2449.00,99.19
2448.00,99.18
2447.00,99.17
2446.00,99.18
2445.00,99.18
2444.00,99.19
2443.00,99.20
2442.00,99.21
2441.00,99.22
2440.00,99.21
2439.00,99.20
2438.00,99.18
2437.00,99.16
2436.00,99.14
2435.00,99.14
2434.00,99.14
2433.00,99.15
2432.00,99.15
2431.00,99.16
2430.00,99.16
2429.00,99.17
2428.00,99.17
2427.00,99.18
2426.00,99.17
2425.00,99.17
2424.00,99.18
2423.00,99.19
2422.00,99.18
2421.00,99.16
2420.00,99.12
2419.00,99.11
2418.00,99.13
2417.00,99.16
2416.00,99.17
2415.00,99.15
2414.00,99.12
2413.00,99.09
2412.00,99.08
2411.00,99.11
2410.00,99.15
2409.00,99.18
2408.00,99.20
2407.00,99.22
2406.00,99.24
2405.00,99.25
2404.00,99.25
2403.00,99.24
2402.00,99.22
2401.00,99.20
2400.00,99.20
2399.00,99.20
2398.00,99.22
2397.00,99.23
2396.00,99.24
2395.00,99.24
2394.00,99.24
2393.00,99.23
2392.00,99.22
2391.00,99.22
2390.00,99.25
2389.00,99.29
2388.00,99.32
2387.00,99.33
2386.00,99.33
2385.00,99.32
2384.00,99.33
2383.00,99.34
2382.00,99.37
2381.00,99.41
2380.00,99.45
2379.00,99.47
2378.00,99.48
2377.00,99.48
2376.00,99.47
2375.00,99.49
2374.00,99.52
2373.00,99.55
2372.00,99.55
2371.00,99.53
2370.00,99.50
2369.00,99.49
2368.00,99.49
2367.00,99.52
2366.00,99.58
2365.00,99.66
2364.00,99.71
2363.00,99.71
2362.00,99.67
2361.00,99.58
2360.00,99.49
2359.00,99.44
2358.00,99.46
2357.00,99.54
2356.00,99.61
2355.00,99.65
2354.00,99.67
2353.00,99.68
2352.00,99.67
2351.00,99.66
2350.00,99.67
2349.00,99.70
2348.00,99.75
2347.00,99.80
2346.00,99.81
2345.00,99.78
2344.00,99.75
2343.00,99.72
2342.00,99.71
2341.00,99.68
2340.00,99.64
2339.00,99.62
2338.00,99.61
2337.00,99.62
2336.00,99.64
2335.00,99.66
2334.00,99.67
2333.00,99.67
2332.00,99.64
2331.00,99.61
2330.00,99.58
2329.00,99.57
2328.00,99.56
2327.00,99.53
2326.00,99.48
2325.00,99.43
2324.00,99.40
2323.00,99.40
2322.00,99.41
2321.00,99.42
2320.00,99.41
2319.00,99.39
2318.00,99.35
2317.00,99.31
2316.00,99.29
2315.00,99.29
2314.00,99.32
2313.00,99.34
2312.00,99.33
2311.00,99.30
2310.00,99.26
2309.00,99.22
2308.00,99.20
2307.00,99.19
2306.00,99.18
2305.00,99.17
2304.00,99.16
2303.00,99.14
2302.00,99.12
2301.00,99.11
2300.00,99.10
2299.00,99.09
2298.00,99.05
2297.00,99.00
2296.00,98.94
2295.00,98.91
2294.00,98.89
2293.00,98.88
2292.00,98.85
2291.00,98.82
2290.00,98.77
2289.00,98.73
2288.00,98.69
2287.00,98.67
2286.00,98.65
2285.00,98.64
2284.00,98.64
2283.00,98.66
2282.00,98.68
2281.00,98.68
2280.00,98.66
2279.00,98.65
2278.00,98.64
2277.00,98.64
2276.00,98.63
2275.00,98.62
2274.00,98.61
2273.00,98.58
2272.00,98.55
2271.00,98.51
2270.00,98.47
2269.00,98.45
2268.00,98.47
2267.00,98.50
2266.00,98.52
2265.00,98.51
2264.00,98.50
2263.00,98.48
2262.00,98.46
2261.00,98.43
2260.00,98.39
2259.00,98.36
2258.00,98.35
2257.00,98.37
2256.00,98.38
2255.00,98.36
2254.00,98.32
2253.00,98.29
2252.00,98.27
2251.00,98.27
2250.00,98.27
2249.00,98.27
2248.00,98.26
2247.00,98.25
2246.00,98.23
2245.00,98.23
2244.00,98.24
2243.00,98.27
2242.00,98.29
2241.00,98.32
2240.00,98.33
2239.00,98.33
2238.00,98.33
2237.00,98.31
2236.00,98.29
2235.00,98.28
2234.00,98.27
2233.00,98.27
2232.00,98.25
2231.00,98.23
2230.00,98.20
2229.00,98.16
2228.00,98.11
2227.00,98.06
2226.00,98.03
2225.00,98.03
2224.00,98.05
2223.00,98.04
2222.00,98.02
2221.00,97.99
2220.00,97.99
2219.00,98.01
2218.00,98.04
2217.00,98.05
2216.00,98.04
2215.00,98.01
2214.00,97.98
2213.00,97.94
2212.00,97.92
2211.00,97.90
2210.00,97.88
2209.00,97.84
2208.00,97.79
2207.00,97.75
2206.00,97.75
2205.00,97.76
2204.00,97.79
2203.00,97.81
2202.00,97.84
2201.00,97.85
2200.00,97.84
2199.00,97.82
2198.00,97.78
2197.00,97.73
2196.00,97.68
2195.00,97.64
2194.00,97.63
2193.00,97.65
2192.00,97.69
2191.00,97.73
2190.00,97.75
2189.00,97.75
2188.00,97.72
2187.00,97.68
2186.00,97.65
2185.00,97.62
2184.00,97.60
2183.00,97.58
2182.00,97.54
2181.00,97.50
2180.00,97.46
2179.00,97.43
2178.00,97.42
2177.00,97.42
2176.00,97.44
2175.00,97.46
2174.00,97.45
2173.00,97.42
2172.00,97.36
2171.00,97.28
2170.00,97.18
2169.00,97.11
2168.00,97.06
2167.00,97.04
2166.00,97.01
2165.00,96.95
2164.00,96.87
2163.00,96.81
2162.00,96.80
2161.00,96.86
2160.00,96.98
2159.00,97.15
2158.00,97.33
2157.00,97.48
2156.00,97.60
2155.00,97.69
2154.00,97.74
2153.00,97.72
2152.00,97.66
2151.00,97.59
2150.00,97.55
2149.00,97.55
2148.00,97.58
2147.00,97.63
2146.00,97.69
2145.00,97.75
2144.00,97.83
2143.00,97.92
2142.00,97.97
2141.00,97.97
2140.00,97.94
2139.00,97.93
2138.00,97.98
2137.00,98.07
2136.00,98.16
2135.00,98.22
2134.00,98.25
2133.00,98.27
2132.00,98.30
2131.00,98.32
2130.00,98.34
2129.00,98.37
2128.00,98.41
2127.00,98.47
2126.00,98.52
2125.00,98.54
2124.00,98.52
2123.00,98.48
2122.00,98.45
2121.00,98.42
2120.00,98.40
2119.00,98.38
2118.00,98.36
2117.00,98.33
2116.00,98.31
2115.00,98.31
2114.00,98.31
2113.00,98.31
2112.00,98.31
2111.00,98.30
2110.00,98.31
2109.00,98.31
2108.00,98.32
2107.00,98.32
2106.00,98.31
2105.00,98.30
2104.00,98.28
2103.00,98.25
2102.00,98.24
2101.00,98.25
2100.00,98.28
2099.00,98.29
2098.00,98.29
2097.00,98.30
2096.00,98.32
2095.00,98.36
2094.00,98.38
2093.00,98.38
2092.00,98.36
2091.00,98.36
2090.00,98.38
2089.00,98.39
2088.00,98.38
2087.00,98.36
2086.00,98.36
2085.00,98.38
2084.00,98.41
2083.00,98.41
2082.00,98.38
2081.00,98.34
2080.00,98.31
2079.00,98.29
2078.00,98.26
2077.00,98.21
2076.00,98.17
2075.00,98.17
2074.00,98.21
2073.00,98.25
2072.00,98.27
2071.00,98.25
2070.00,98.23
2069.00,98.21
2068.00,98.22
2067.00,98.26
2066.00,98.30
2065.00,98.31
2064.00,98.27
2063.00,98.23
2062.00,98.20
2061.00,98.20
2060.00,98.21
2059.00,98.20
2058.00,98.20
2057.00,98.21
2056.00,98.22
2055.00,98.23
2054.00,98.19
2053.00,98.11
2052.00,98.01
2051.00,97.92
2050.00,97.87
2049.00,97.86
2048.00,97.85
2047.00,97.82
2046.00,97.76
2045.00,97.68
2044.00,97.62
2043.00,97.61
2042.00,97.62
2041.00,97.63
2040.00,97.63
2039.00,97.62
2038.00,97.59
2037.00,97.55
2036.00,97.51
2035.00,97.53
2034.00,97.59
2033.00,97.65
2032.00,97.65
2031.00,97.60
2030.00,97.53
2029.00,97.47
2028.00,97.43
2027.00,97.42
2026.00,97.43
2025.00,97.46
2024.00,97.50
2023.00,97.53
2022.00,97.56
2021.00,97.58
2020.00,97.60
2019.00,97.60
2018.00,97.58
2017.00,97.56
2016.00,97.54
2015.00,97.55
2014.00,97.58
2013.00,97.63
2012.00,97.64
2011.00,97.62
2010.00,97.60
2009.00,97.61
2008.00,97.67
2007.00,97.75
2006.00,97.83
2005.00,97.87
2004.00,97.89
2003.00,97.89
2002.00,97.88
2001.00,97.88
2000.00,97.91
1999.00,97.95
1998.00,97.96
1997.00,97.95
1996.00,97.93
1995.00,97.90
1994.00,97.87
1993.00,97.83
1992.00,97.80
1991.00,97.80
1990.00,97.83
1989.00,97.85
1988.00,97.84
1987.00,97.82
1986.00,97.78
1985.00,97.71
1984.00,97.62
1983.00,97.50
1982.00,97.39
1981.00,97.31
1980.00,97.29
1979.00,97.33
1978.00,97.38
1977.00,97.40
1976.00,97.39
1975.00,97.37
1974.00,97.38
1973.00,97.41
1972.00,97.45
1971.00,97.47
1970.00,97.48
1969.00,97.47
1968.00,97.47
1967.00,97.48
1966.00,97.48
1965.00,97.46
1964.00,97.44
1963.00,97.42
1962.00,97.43
1961.00,97.46
1960.00,97.48
1959.00,97.51
1958.00,97.53
1957.00,97.55
1956.00,97.56
1955.00,97.60
1954.00,97.67
1953.00,97.77
1952.00,97.85
1951.00,97.91
1950.00,97.95
1949.00,97.97
1948.00,97.98
1947.00,97.97
1946.00,97.95
1945.00,97.94
1944.00,97.97
1943.00,98.03
1942.00,98.12
1941.00,98.18
1940.00,98.21
1939.00,98.22
1938.00,98.23
1937.00,98.26
1936.00,98.32
1935.00,98.40
1934.00,98.47
1933.00,98.51
1932.00,98.52
1931.00,98.54
1930.00,98.58
1929.00,98.62
1928.00,98.64
1927.00,98.66
1926.00,98.67
1925.00,98.69
1924.00,98.71
1923.00,98.70
1922.00,98.69
1921.00,98.69
1920.00,98.70
1919.00,98.73
1918.00,98.76
1917.00,98.79
1916.00,98.82
1915.00,98.85
1914.00,98.87
1913.00,98.89
1912.00,98.89
1911.00,98.89
1910.00,98.89
1909.00,98.90
1908.00,98.91
1907.00,98.93
1906.00,98.94
1905.00,98.95
1904.00,98.97
1903.00,98.99
1902.00,99.02
1901.00,99.03
1900.00,99.04
1899.00,99.05
1898.00,99.06
1897.00,99.06
1896.00,99.06
1895.00,99.08
1894.00,99.12
1893.00,99.17
1892.00,99.20
1891.00,99.21
1890.00,99.18
1889.00,99.14
1888.00,99.11
1887.00,99.09
1886.00,99.11
1885.00,99.13
1884.00,99.15
1883.00,99.18
1882.00,99.22
1881.00,99.25
1880.00,99.26
1879.00,99.24
1878.00,99.22
1877.00,99.21
1876.00,99.21
1875.00,99.23
1874.00,99.26
1873.00,99.27
1872.00,99.28
1871.00,99.28
1870.00,99.27
1869.00,99.25
1868.00,99.23
1867.00,99.22
1866.00,99.23
1865.00,99.25
1864.00,99.26
1863.00,99.25
1862.00,99.24
1861.00,99.23
1860.00,99.23
1859.00,99.24
1858.00,99.25
1857.00,99.25
1856.00,99.25
1855.00,99.25
1854.00,99.24
1853.00,99.22
1852.00,99.20
1851.00,99.20
1850.00,99.21
1849.00,99.21
1848.00,99.21
1847.00,99.21
1846.00,99.20
1845.00,99.18
1844.00,99.13
1843.00,99.07
1842.00,99.03
1841.00,99.01
1840.00,99.01
1839.00,99.00
1838.00,98.98
1837.00,98.95
1836.00,98.94
1835.00,98.94
1834.00,98.93
1833.00,98.92
1832.00,98.90
1831.00,98.88
1830.00,98.86
1829.00,98.86
1828.00,98.87
1827.00,98.87
1826.00,98.87
1825.00,98.86
1824.00,98.84
1823.00,98.82
1822.00,98.82
1821.00,98.83
1820.00,98.85
1819.00,98.86
1818.00,98.87
1817.00,98.88
1816.00,98.89
1815.00,98.88
1814.00,98.88
1813.00,98.87
1812.00,98.87
1811.00,98.86
1810.00,98.85
1809.00,98.85
1808.00,98.86
1807.00,98.88
1806.00,98.90
1805.00,98.93
1804.00,98.96
1803.00,98.98
1802.00,98.98
1801.00,98.96
1800.00,98.95
1799.00,98.94
1798.00,98.94
1797.00,98.95
1796.00,98.96
1795.00,98.96
1794.00,98.96
1793.00,98.96
1792.00,98.95
1791.00,98.93
1790.00,98.91
1789.00,98.90
1788.00,98.90
1787.00,98.92
1786.00,98.93
1785.00,98.92
1784.00,98.90
1783.00,98.87
1782.00,98.85
1781.00,98.84
1780.00,98.84
1779.00,98.84
1778.00,98.83
1777.00,98.83
1776.00,98.84
1775.00,98.84
1774.00,98.82
1773.00,98.79
1772.00,98.76
1771.00,98.74
1770.00,98.73
1769.00,98.70
1768.00,98.65
1767.00,98.58
1766.00,98.52
1765.00,98.49
1764.00,98.46
1763.00,98.40
1762.00,98.32
1761.00,98.24
1760.00,98.15
1759.00,98.06
1758.00,97.94
1757.00,97.80
1756.00,97.65
1755.00,97.50
1754.00,97.36
1753.00,97.18
1752.00,96.93
1751.00,96.55
1750.00,96.08
1749.00,95.55
1748.00,94.98
1747.00,94.32
1746.00,93.59
1745.00,92.75
1744.00,91.82
1743.00,90.79
1742.00,89.71
1741.00,88.54
1740.00,87.27
1739.00,86.02
1738.00,84.94
1737.00,84.03
1736.00,83.06
1735.00,81.79
1734.00,80.27
1733.00,78.85
1732.00,77.68
1731.00,76.59
1730.00,75.46
1729.00,74.29
1728.00,73.16
1727.00,72.05
1726.00,70.94
1725.00,69.83
1724.00,68.70
1723.00,67.57
1722.00,66.49
1721.00,65.49
1720.00,64.52
1719.00,63.41
1718.00,62.14
1717.00,60.95
1716.00,60.02
1715.00,59.31
1714.00,58.81
1713.00,58.62
1712.00,58.76
1711.00,59.18
1710.00,59.83
1709.00,60.74
1708.00,61.86
1707.00,63.20
1706.00,64.75
1705.00,66.38
1704.00,67.82
1703.00,69.03
1702.00,70.26
1701.00,71.87
1700.00,73.70
1699.00,75.10
1698.00,76.07
1697.00,77.03
1696.00,78.16
1695.00,79.24
1694.00,80.04
1693.00,80.66
1692.00,81.25
1691.00,81.86
1690.00,82.47
1689.00,83.02
1688.00,83.49
1687.00,83.86
1686.00,84.19
1685.00,84.55
1684.00,84.96
1683.00,85.31
1682.00,85.61
1681.00,85.94
1680.00,86.32
1679.00,86.69
1678.00,87.04
1677.00,87.38
1676.00,87.76
1675.00,88.17
1674.00,88.52
1673.00,88.79
1672.00,89.04
1671.00,89.32
1670.00,89.66
1669.00,90.03
1668.00,90.38
1667.00,90.68
1666.00,90.94
1665.00,91.21
1664.00,91.52
1663.00,91.85
1662.00,92.15
1661.00,92.40
1660.00,92.63
1659.00,92.84
1658.00,93.05
1657.00,93.27
1656.00,93.48
1655.00,93.64
1654.00,93.80
1653.00,94.00
1652.00,94.14
1651.00,94.17
1650.00,94.18
1649.00,94.24
1648.00,94.36
1647.00,94.51
1646.00,94.64
1645.00,94.73
1644.00,94.81
1643.00,94.87
1642.00,94.94
1641.00,95.02
1640.00,95.11
1639.00,95.19
1638.00,95.24
1637.00,95.29
1636.00,95.36
1635.00,95.45
1634.00,95.53
1633.00,95.59
1632.00,95.64
1631.00,95.70
1630.00,95.74
1629.00,95.80
1628.00,95.87
1627.00,95.94
1626.00,96.00
1625.00,96.03
1624.00,96.04
1623.00,96.06
1622.00,96.08
1621.00,96.09
1620.00,96.09
1619.00,96.08
1618.00,96.02
1617.00,95.93
1616.00,95.84
1615.00,95.80
1614.00,95.80
1613.00,95.86
1612.00,95.96
1611.00,96.08
1610.00,96.21
1609.00,96.34
1608.00,96.47
1607.00,96.58
1606.00,96.68
1605.00,96.78
1604.00,96.88
1603.00,96.97
1602.00,97.06
1601.00,97.13
1600.00,97.19
1599.00,97.24
1598.00,97.28
1597.00,97.31
1596.00,97.35
1595.00,97.38
1594.00,97.40
1593.00,97.42
1592.00,97.42
1591.00,97.41
1590.00,97.38
1589.00,97.34
1588.00,97.29
1587.00,97.22
1586.00,97.11
1585.00,96.95
1584.00,96.74
1583.00,96.49
1582.00,96.24
1581.00,96.02
1580.00,95.86
1579.00,95.79
1578.00,95.80
1577.00,95.90
1576.00,96.09
1575.00,96.31
1574.00,96.50
1573.00,96.66
1572.00,96.82
1571.00,96.98
1570.00,97.15
1569.00,97.30
1568.00,97.42
1567.00,97.49
1566.00,97.55
1565.00,97.62
1564.00,97.71
1563.00,97.81
1562.00,97.91
1561.00,97.95
1560.00,97.96
1559.00,98.01
1558.00,98.07
1557.00,98.09
1556.00,98.11
1555.00,98.13
1554.00,98.14
1553.00,98.16
1552.00,98.18
1551.00,98.20
1550.00,98.20
1549.00,98.19
1548.00,98.21
1547.00,98.24
1546.00,98.28
1545.00,98.32
1544.00,98.33
1543.00,98.33
1542.00,98.33
1541.00,98.33
1540.00,98.35
1539.00,98.35
1538.00,98.31
1537.00,98.27
1536.00,98.24
1535.00,98.21
1534.00,98.18
1533.00,98.15
1532.00,98.11
1531.00,98.08
1530.00,98.05
1529.00,98.03
1528.00,98.01
1527.00,97.97
1526.00,97.93
1525.00,97.91
1524.00,97.93
1523.00,97.99
1522.00,98.07
1521.00,98.12
1520.00,98.12
1519.00,98.09
1518.00,98.08
1517.00,98.09
1516.00,98.10
1515.00,98.07
1514.00,97.98
1513.00,97.81
1512.00,97.57
1511.00,97.26
1510.00,96.85
1509.00,96.28
1508.00,95.40
1507.00,94.34
1506.00,93.61
1505.00,93.48
1504.00,93.79
1503.00,94.35
1502.00,95.02
1501.00,95.71
1500.00,96.34
1499.00,96.88
1498.00,97.32
1497.00,97.64
1496.00,97.83
1495.00,97.91
1494.00,97.95
1493.00,97.96
1492.00,97.95
1491.00,97.92
1490.00,97.85
1489.00,97.72
1488.00,97.55
1487.00,97.38
1486.00,97.19
1485.00,96.98
1484.00,96.75
1483.00,96.52
1482.00,96.26
1481.00,96.00
1480.00,95.74
1479.00,95.51
1478.00,95.28
1477.00,95.04
1476.00,94.80
1475.00,94.55
1474.00,94.25
1473.00,93.94
1472.00,93.74
1471.00,93.74
1470.00,93.90
1469.00,94.14
1468.00,94.39
1467.00,94.58
1466.00,94.71
1465.00,94.76
1464.00,94.75
1463.00,94.71
1462.00,94.65
1461.00,94.61
1460.00,94.59
1459.00,94.58
1458.00,94.55
1457.00,94.47
1456.00,94.38
1455.00,94.29
1454.00,94.25
1453.00,94.26
1452.00,94.33
1451.00,94.41
1450.00,94.50
1449.00,94.59
1448.00,94.69
1447.00,94.78
1446.00,94.86
1445.00,94.92
1444.00,94.96
1443.00,95.01
1442.00,95.07
1441.00,95.16
1440.00,95.27
1439.00,95.41
1438.00,95.58
1437.00,95.76
1436.00,95.92
1435.00,96.05
1434.00,96.17
1433.00,96.32
1432.00,96.49
1431.00,96.65
1430.00,96.79
1429.00,96.90
1428.00,96.97
1427.00,97.01
1426.00,97.01
1425.00,96.97
1424.00,96.89
1423.00,96.76
1422.00,96.61
1421.00,96.36
1420.00,95.93
1419.00,95.26
1418.00,94.38
1417.00,93.37
1416.00,92.20
1415.00,90.87
1414.00,89.37
1413.00,87.78
1412.00,86.25
1411.00,84.96
1410.00,84.09
1409.00,83.69
1408.00,83.78
1407.00,84.35
1406.00,85.32
1405.00,86.51
1404.00,87.73
1403.00,88.85
1402.00,89.81
1401.00,90.67
1400.00,91.45
1399.00,92.15
1398.00,92.72
1397.00,93.16
1396.00,93.51
1395.00,93.79
1394.00,94.01
1393.00,94.16
1392.00,94.25
1391.00,94.32
1390.00,94.39
1389.00,94.43
1388.00,94.43
1387.00,94.39
1386.00,94.32
1385.00,94.27
1384.00,94.25
1383.00,94.24
1382.00,94.25
1381.00,94.25
1380.00,94.24
1379.00,94.22
1378.00,94.17
1377.00,94.10
1376.00,94.02
1375.00,93.94
1374.00,93.86
1373.00,93.79
1372.00,93.75
1371.00,93.74
1370.00,93.79
1369.00,93.90
1368.00,94.05
1367.00,94.26
1366.00,94.52
1365.00,94.81
1364.00,95.11
1363.00,95.36
1362.00,95.54
1361.00,95.63
1360.00,95.67
1359.00,95.68
1358.00,95.66
1357.00,95.62
1356.00,95.53
1355.00,95.40
1354.00,95.20
1353.00,94.92
1352.00,94.55
1351.00,94.08
1350.00,93.49
1349.00,92.75
1348.00,91.84
1347.00,90.78
1346.00,89.58
1345.00,88.28
1344.00,86.98
1343.00,85.79
1342.00,84.82
1341.00,84.13
1340.00,83.78
1339.00,83.83
1338.00,84.27
1337.00,85.06
1336.00,86.11
1335.00,87.35
1334.00,88.67
1333.00,89.98
1332.00,91.19
1331.00,92.23
1330.00,93.06
1329.00,93.66
1328.00,94.08
1327.00,94.35
1326.00,94.50
1325.00,94.56
1324.00,94.55
1323.00,94.49
1322.00,94.41
1321.00,94.30
1320.00,94.19
1319.00,94.05
1318.00,93.88
1317.00,93.70
1316.00,93.50
1315.00,93.30
1314.00,93.09
1313.00,92.83
1312.00,92.55
1311.00,92.25
1310.00,91.94
1309.00,91.63
1308.00,91.32
1307.00,91.00
1306.00,90.68
1305.00,90.34
1304.00,89.97
1303.00,89.57
1302.00,89.12
1301.00,88.61
1300.00,88.04
1299.00,87.42
1298.00,86.77
1297.00,86.11
1296.00,85.44
1295.00,84.77
1294.00,84.11
1293.00,83.46
1292.00,82.81
1291.00,82.18
1290.00,81.57
1289.00,80.98
1288.00,80.39
1287.00,79.83
1286.00,79.30
1285.00,78.77
1284.00,78.26
1283.00,77.75
1282.00,77.26
1281.00,76.76
1280.00,76.26
1279.00,75.75
1278.00,75.24
1277.00,74.70
1276.00,74.14
1275.00,73.56
1274.00,72.95
1273.00,72.29
1272.00,71.57
1271.00,70.82
1270.00,70.05
1269.00,69.26
1268.00,68.48
1267.00,67.72
1266.00,67.00
1265.00,66.32
1264.00,65.67
1263.00,65.08
1262.00,64.56
1261.00,64.13
1260.00,63.77
1259.00,63.48
1258.00,63.24
1257.00,63.01
1256.00,62.79
1255.00,62.55
1254.00,62.30
1253.00,62.02
1252.00,61.71
1251.00,61.39
1250.00,61.07
1249.00,60.73
1248.00,60.39
1247.00,60.07
1246.00,59.80
1245.00,59.60
1244.00,59.47
1243.00,59.42
1242.00,59.48
1241.00,59.63
1240.00,59.90
1239.00,60.32
1238.00,60.89
1237.00,61.60
1236.00,62.40
1235.00,63.31
1234.00,64.29
1233.00,65.32
1232.00,66.35
1231.00,67.36
1230.00,68.32
1229.00,69.23
1228.00,70.07
1227.00,70.85
1226.00,71.57
1225.00,72.24
1224.00,72.89
1223.00,73.55
1222.00,74.23
1221.00,74.94
1220.00,75.66
1219.00,76.38
1218.00,77.10
1217.00,77.79
1216.00,78.46
1215.00,79.11
1214.00,79.71
1213.00,80.28
1212.00,80.82
1211.00,81.34
1210.00,81.84
1209.00,82.31
1208.00,82.77
1207.00,83.22
1206.00,83.65
1205.00,84.08
1204.00,84.51
1203.00,84.93
1202.00,85.36
1201.00,85.79
1200.00,86.22
1199.00,86.64
1198.00,87.03
1197.00,87.40
1196.00,87.76
1195.00,88.12
1194.00,88.49
1193.00,88.84
1192.00,89.17
1191.00,89.47
1190.00,89.72
1189.00,89.95
1188.00,90.14
1187.00,90.29
1186.00,90.39
1185.00,90.42
1184.00,90.41
1183.00,90.35
1182.00,90.26
1181.00,90.15
1180.00,90.02
1179.00,89.89
1178.00,89.77
1177.00,89.66
1176.00,89.59
1175.00,89.59
1174.00,89.68
1173.00,89.86
1172.00,90.12
1171.00,90.45
1170.00,90.82
1169.00,91.19
1168.00,91.55
1167.00,91.86
1166.00,92.10
1165.00,92.27
1164.00,92.36
1163.00,92.41
1162.00,92.42
1161.00,92.40
1160.00,92.35
1159.00,92.28
1158.00,92.18
1157.00,92.06
1156.00,91.90
1155.00,91.70
1154.00,91.46
1153.00,91.18
1152.00,90.86
1151.00,90.51
1150.00,90.13
1149.00,89.74
1148.00,89.33
1147.00,88.87
1146.00,88.36
1145.00,87.80
1144.00,87.21
1143.00,86.57
1142.00,85.90
1141.00,85.16
1140.00,84.37
1139.00,83.53
1138.00,82.64
1137.00,81.72
1136.00,80.77
1135.00,79.78
1134.00,78.76
1133.00,77.70
1132.00,76.64
1131.00,75.62
1130.00,74.64
1129.00,73.72
1128.00,72.85
1127.00,72.04
1126.00,71.29
1125.00,70.60
1124.00,69.98
1123.00,69.46
1122.00,69.01
1121.00,68.63
1120.00,68.32
1119.00,68.12
1118.00,68.02
1117.00,68.00
1116.00,68.02
1115.00,68.06
1114.00,68.07
1113.00,68.01
1112.00,67.87
1111.00,67.64
1110.00,67.29
1109.00,66.81
1108.00,66.19
1107.00,65.49
1106.00,64.76
1105.00,64.03
1104.00,63.32
1103.00,62.67
1102.00,62.08
1101.00,61.58
1100.00,61.16
1099.00,60.84
1098.00,60.60
1097.00,60.43
1096.00,60.32
1095.00,60.31
1094.00,60.39
1093.00,60.55
1092.00,60.78
1091.00,61.07
1090.00,61.41
1089.00,61.79
1088.00,62.21
1087.00,62.67
1086.00,63.15
1085.00,63.67
1084.00,64.24
1083.00,64.91
1082.00,65.66
1081.00,66.47
1080.00,67.34
1079.00,68.28
1078.00,69.27
1077.00,70.26
1076.00,71.23
1075.00,72.19
1074.00,73.10
1073.00,73.95
1072.00,74.74
1071.00,75.48
1070.00,76.19
1069.00,76.84
1068.00,77.44
1067.00,77.99
1066.00,78.51
1065.00,79.01
1064.00,79.48
1063.00,79.91
1062.00,80.29
1061.00,80.61
1060.00,80.90
1059.00,81.15
1058.00,81.36
1057.00,81.53
1056.00,81.67
1055.00,81.80
1054.00,81.89
1053.00,81.95
1052.00,81.97
1051.00,81.96
1050.00,81.90
1049.00,81.83
1048.00,81.76
1047.00,81.71
1046.00,81.69
1045.00,81.69
1044.00,81.73
1043.00,81.81
1042.00,81.93
1041.00,82.10
1040.00,82.31
1039.00,82.53
1038.00,82.77
1037.00,82.99
1036.00,83.22
1035.00,83.46
1034.00,83.71
1033.00,83.95
1032.00,84.16
1031.00,84.31
1030.00,84.33
1029.00,84.15
1028.00,83.66
1027.00,82.80
1026.00,81.56
1025.00,80.05
1024.00,78.42
1023.00,76.79
1022.00,75.19
1021.00,73.65
1020.00,72.22
1019.00,71.06
1018.00,70.37
1017.00,70.30
1016.00,70.94
1015.00,72.19
1014.00,73.83
1013.00,75.58
1012.00,77.24
1011.00,78.69
1010.00,79.92
1009.00,80.96
1008.00,81.84
1007.00,82.58
1006.00,83.21
1005.00,83.73
1004.00,84.17
1003.00,84.54
1002.00,84.86
1001.00,85.13
1000.00,85.36
999.00,85.57
998.00,85.76
997.00,85.93
996.00,86.07
995.00,86.20
994.00,86.31
993.00,86.37
992.00,86.39
991.00,86.39
990.00,86.38
989.00,86.38
988.00,86.38
987.00,86.39
986.00,86.40
985.00,86.37
984.00,86.30
983.00,86.19
982.00,86.04
981.00,85.85
980.00,85.62
979.00,85.36
978.00,85.07
977.00,84.74
976.00,84.39
975.00,84.04
974.00,83.72
973.00,83.45
972.00,83.27
971.00,83.19
970.00,83.20
969.00,83.32
968.00,83.53
967.00,83.82
966.00,84.16
965.00,84.51
964.00,84.87
963.00,85.20
962.00,85.51
961.00,85.80
960.00,86.08
959.00,86.36
958.00,86.64
957.00,86.91
956.00,87.16
955.00,87.39
954.00,87.60
953.00,87.80
952.00,87.99
951.00,88.18
950.00,88.36
949.00,88.52
948.00,88.65
947.00,88.77
946.00,88.90
945.00,89.03
944.00,89.19
943.00,89.36
942.00,89.51
941.00,89.64
940.00,89.74
939.00,89.82
938.00,89.90
937.00,89.99
936.00,90.07
935.00,90.15
934.00,90.21
933.00,90.26
932.00,90.32
931.00,90.39
930.00,90.46
929.00,90.53
928.00,90.58
927.00,90.63
926.00,90.68
925.00,90.74
924.00,90.79
923.00,90.83
922.00,90.87
921.00,90.90
920.00,90.92
919.00,90.95
918.00,90.96
917.00,90.94
916.00,90.90
915.00,90.83
914.00,90.74
913.00,90.66
912.00,90.56
911.00,90.46
910.00,90.34
909.00,90.20
908.00,90.06
907.00,89.90
906.00,89.72
905.00,89.52
904.00,89.34
903.00,89.17
902.00,89.04
901.00,88.93
900.00,88.83
899.00,88.76
898.00,88.72
897.00,88.72
896.00,88.78
895.00,88.86
894.00,88.95
893.00,88.99
892.00,89.01
891.00,89.00
890.00,88.98
889.00,88.92
888.00,88.78
887.00,88.58
886.00,88.30
885.00,87.93
884.00,87.45
883.00,86.84
882.00,86.10
881.00,85.26
880.00,84.32
879.00,83.32
878.00,82.23
877.00,80.97
876.00,79.47
875.00,77.75
874.00,76.02
873.00,74.73
872.00,74.31
871.00,74.93
870.00,76.37
869.00,78.19
868.00,79.95
867.00,81.41
866.00,82.51
865.00,83.28
864.00,83.79
863.00,84.12
862.00,84.34
861.00,84.47
860.00,84.54
859.00,84.55
858.00,84.49
857.00,84.38
856.00,84.23
855.00,84.05
854.00,83.85
853.00,83.59
852.00,83.31
851.00,83.00
850.00,82.70
849.00,82.42
848.00,82.19
847.00,82.09
846.00,82.16
845.00,82.39
844.00,82.73
843.00,83.13
842.00,83.55
841.00,83.94
840.00,84.31
839.00,84.67
838.00,85.03
837.00,85.37
836.00,85.70
835.00,86.02
834.00,86.34
833.00,86.65
832.00,86.93
831.00,87.20
830.00,87.45
829.00,87.69
828.00,87.91
827.00,88.11
826.00,88.29
825.00,88.43
824.00,88.54
823.00,88.62
822.00,88.71
821.00,88.81
820.00,88.90
819.00,88.96
818.00,88.99
817.00,89.03
816.00,89.07
815.00,89.10
814.00,89.10
813.00,89.08
812.00,89.07
811.00,89.10
810.00,89.16
809.00,89.21
808.00,89.23
807.00,89.23
806.00,89.24
805.00,89.28
804.00,89.33
803.00,89.39
802.00,89.43
801.00,89.44
800.00,89.40
799.00,89.30
798.00,89.05
797.00,88.62
796.00,88.06
795.00,87.49
794.00,87.03
793.00,86.78
792.00,86.76
791.00,86.93
790.00,87.23
789.00,87.58
788.00,87.94
787.00,88.31
786.00,88.69
785.00,89.06
784.00,89.38
783.00,89.64
782.00,89.85
781.00,90.03
780.00,90.20
779.00,90.38
778.00,90.54
777.00,90.69
776.00,90.81
775.00,90.95
774.00,91.09
773.00,91.25
772.00,91.41
771.00,91.55
770.00,91.69
769.00,91.80
768.00,91.93
767.00,92.09
766.00,92.29
765.00,92.48
764.00,92.64
763.00,92.75
762.00,92.85
761.00,92.94
760.00,93.05
759.00,93.17
758.00,93.29
757.00,93.41
756.00,93.51
755.00,93.60
754.00,93.67
753.00,93.71
752.00,93.72
751.00,93.73
750.00,93.74
749.00,93.75
748.00,93.74
747.00,93.69
746.00,93.55
745.00,93.28
744.00,92.86
743.00,92.25
742.00,91.39
741.00,90.19
740.00,88.62
739.00,86.69
738.00,84.46
737.00,82.02
736.00,79.45
735.00,76.80
734.00,74.11
733.00,71.42
732.00,68.75
731.00,66.15
730.00,63.58
729.00,61.04
728.00,58.54
727.00,56.15
726.00,53.99
725.00,52.24
724.00,51.06
723.00,50.56
722.00,50.72
721.00,51.45
720.00,52.62
719.00,54.04
718.00,55.59
717.00,57.18
716.00,58.78
715.00,60.33
714.00,61.78
713.00,63.11
712.00,64.31
711.00,65.38
710.00,66.34
709.00,67.24
708.00,68.12
707.00,68.96
706.00,69.73
705.00,70.46
704.00,71.20
703.00,71.97
702.00,72.78
701.00,73.63
700.00,74.52
699.00,75.41
698.00,76.25
697.00,77.01
696.00,77.70
695.00,78.31
694.00,78.86
693.00,79.33
692.00,79.75
691.00,80.12
690.00,80.42
689.00,80.66
688.00,80.85
687.00,81.02
686.00,81.16
685.00,81.29
684.00,81.39
683.00,81.47
682.00,81.53
681.00,81.57
680.00,81.65
679.00,81.81
678.00,82.08
677.00,82.42
676.00,82.78
675.00,83.09
674.00,83.35
673.00,83.55
672.00,83.70
671.00,83.81
670.00,83.93
669.00,84.16
668.00,84.51
667.00,84.80
666.00,84.95
665.00,85.02
664.00,85.03
663.00,85.05
662.00,85.14
661.00,85.32
660.00,85.54
659.00,85.73
658.00,85.83
657.00,85.85
656.00,85.85
655.00,85.90
654.00,86.06
653.00,86.27
652.00,86.44
651.00,86.51
650.00,86.50
649.00,86.48
648.00,86.50
647.00,86.55
646.00,86.63
645.00,86.74
644.00,86.91
643.00,87.10
642.00,87.26
641.00,87.37
640.00,87.40
639.00,87.36
638.00,87.31
637.00,87.26
636.00,87.16
635.00,86.90
634.00,86.46
633.00,86.03
632.00,85.84
631.00,85.97
630.00,86.28
629.00,86.62
628.00,86.95
627.00,87.27
626.00,87.52
625.00,87.66
624.00,87.77
623.00,87.88
622.00,87.93
621.00,87.88
620.00,87.85
619.00,88.02
618.00,88.33
617.00,88.56
616.00,88.57
615.00,88.44
614.00,88.27
613.00,88.14
612.00,88.10
611.00,88.22
610.00,88.39
609.00,88.44
608.00,88.35
607.00,88.27
606.00,88.28
605.00,88.34
604.00,88.47
603.00,88.92
602.00,89.76
601.00,90.63
600.00,90.87
599.00,90.30
598.00,89.43
597.00,88.85
596.00,88.69
595.00,88.76
594.00,88.88
593.00,89.02
592.00,89.08
591.00,88.91
590.00,88.51
589.00,88.18
588.00,88.17
587.00,88.49
586.00,88.92
585.00,89.33
584.00,89.64
583.00,89.76
582.00,89.56
581.00,89.15
580.00,88.80
579.00,88.79
578.00,89.09
577.00,89.45
576.00,89.60
575.00,89.55
574.00,89.49
573.00,89.56
572.00,89.66
571.00,89.58
570.00,89.28
569.00,88.98
568.00,88.84
567.00,88.75
566.00,88.53
565.00,88.22
564.00,88.04
563.00,88.13
562.00,88.29
561.00,88.19
560.00,87.76
559.00,87.25
558.00,87.01
557.00,87.19
556.00,87.67
555.00,88.11
554.00,88.20
553.00,87.96
552.00,87.69
551.00,87.67
550.00,87.77
