Created as New Dataset,Spun Polyester (Black)
cm-1,%T
4000.00,99.68
3999.00,99.68
3998.00,99.68
3997.00,99.68
3996.00,99.68
3995.00,99.68
3994.00,99.68
3993.00,99.67
3992.00,99.68
3991.00,99.68
3990.00,99.68
3989.00,99.68
3988.00,99.67
3987.00,99.67
3986.00,99.69
3985.00,99.71
3984.00,99.73
3983.00,99.73
3982.00,99.71
3981.00,99.69
3980.00,99.67
3979.00,99.66
3978.00,99.66
3977.00,99.66
3976.00,99.67
3975.00,99.66
3974.00,99.67
3973.00,99.68
3972.00,99.69
3971.00,99.70
3970.00,99.70
3969.00,99.70
3968.00,99.68
3967.00,99.67
3966.00,99.67
3965.00,99.67
3964.00,99.68
3963.00,99.69
3962.00,99.71
3961.00,99.72
3960.00,99.72
3959.00,99.72
3958.00,99.71
3957.00,99.70
3956.00,99.67
3955.00,99.64
3954.00,99.61
3953.00,99.59
3952.00,99.59
3951.00,99.61
3950.00,99.63
3949.00,99.64
3948.00,99.65
3947.00,99.64
3946.00,99.63
3945.00,99.61
3944.00,99.59
3943.00,99.58
3942.00,99.58
3941.00,99.60
3940.00,99.63
3939.00,99.67
3938.00,99.69
3937.00,99.69
3936.00,99.68
3935.00,99.67
3934.00,99.66
3933.00,99.65
3932.00,99.63
3931.00,99.62
3930.00,99.62
3929.00,99.64
3928.00,99.65
3927.00,99.66
3926.00,99.65
3925.00,99.62
3924.00,99.61
3923.00,99.60
3922.00,99.62
3921.00,99.64
3920.00,99.66
3919.00,99.67
3918.00,99.67
3917.00,99.64
3916.00,99.61
3915.00,99.59
3914.00,99.58
3913.00,99.59
3912.00,99.60
3911.00,99.61
3910.00,99.60
3909.00,99.59
3908.00,99.59
3907.00,99.59
3906.00,99.60
3905.00,99.60
3904.00,99.60
3903.00,99.60
3902.00,99.62
3901.00,99.65
3900.00,99.67
3899.00,99.67
3898.00,99.65
3897.00,99.63
3896.00,99.61
3895.00,99.60
3894.00,99.61
3893.00,99.62
3892.00,99.63
3891.00,99.63
3890.00,99.62
3889.00,99.61
3888.00,99.62
3887.00,99.64
3886.00,99.65
3885.00,99.63
3884.00,99.61
3883.00,99.59
3882.00,99.59
3881.00,99.59
3880.00,99.59
3879.00,99.58
3878.00,99.58
3877.00,99.59
3876.00,99.61
3875.00,99.62
3874.00,99.62
3873.00,99.61
3872.00,99.59
3871.00,99.58
3870.00,99.57
3869.00,99.56
3868.00,99.55
3867.00,99.54
3866.00,99.54
3865.00,99.55
3864.00,99.56
3863.00,99.56
3862.00,99.57
3861.00,99.57
3860.00,99.56
3859.00,99.56
3858.00,99.56
3857.00,99.57
3856.00,99.58
3855.00,99.60
3854.00,99.61
3853.00,99.59
3852.00,99.58
3851.00,99.58
3850.00,99.59
3849.00,99.59
3848.00,99.59
3847.00,99.59
3846.00,99.57
3845.00,99.55
3844.00,99.53
3843.00,99.50
3842.00,99.48
3841.00,99.47
3840.00,99.47
3839.00,99.47
3838.00,99.46
3837.00,99.46
3836.00,99.48
3835.00,99.51
3834.00,99.53
3833.00,99.54
3832.00,99.52
3831.00,99.50
3830.00,99.48
3829.00,99.47
3828.00,99.48
3827.00,99.48
3826.00,99.49
3825.00,99.48
3824.00,99.47
3823.00,99.47
3822.00,99.47
3821.00,99.47
3820.00,99.45
3819.00,99.43
3818.00,99.42
3817.00,99.43
3816.00,99.45
3815.00,99.48
3814.00,99.50
3813.00,99.51
3812.00,99.51
3811.00,99.49
3810.00,99.47
3809.00,99.45
3808.00,99.42
3807.00,99.40
3806.00,99.38
3805.00,99.36
3804.00,99.36
3803.00,99.37
3802.00,99.38
3801.00,99.38
3800.00,99.38
3799.00,99.38
3798.00,99.40
3797.00,99.42
3796.00,99.43
3795.00,99.44
3794.00,99.45
3793.00,99.45
3792.00,99.46
3791.00,99.46
3790.00,99.46
3789.00,99.45
3788.00,99.45
3787.00,99.45
3786.00,99.46
3785.00,99.45
3784.00,99.43
3783.00,99.41
3782.00,99.39
3781.00,99.37
3780.00,99.36
3779.00,99.36
3778.00,99.35
3777.00,99.35
3776.00,99.36
3775.00,99.36
3774.00,99.36
3773.00,99.36
3772.00,99.35
3771.00,99.33
3770.00,99.31
3769.00,99.29
3768.00,99.30
3767.00,99.31
3766.00,99.33
3765.00,99.34
3764.00,99.33
3763.00,99.32
3762.00,99.31
3761.00,99.30
3760.00,99.29
3759.00,99.28
3758.00,99.26
3757.00,99.24
3756.00,99.21
3755.00,99.17
3754.00,99.12
3753.00,99.09
3752.00,99.09
3751.00,99.13
3750.00,99.17
3749.00,99.21
3748.00,99.22
3747.00,99.23
3746.00,99.25
3745.00,99.28
3744.00,99.29
3743.00,99.29
3742.00,99.28
3741.00,99.27
3740.00,99.26
3739.00,99.27
3738.00,99.29
3737.00,99.31
3736.00,99.34
3735.00,99.35
3734.00,99.35
3733.00,99.35
3732.00,99.35
3731.00,99.34
3730.00,99.33
3729.00,99.30
3728.00,99.28
3727.00,99.27
3726.00,99.26
3725.00,99.26
3724.00,99.26
3723.00,99.25
3722.00,99.24
3721.00,99.24
3720.00,99.27
3719.00,99.30
3718.00,99.34
3717.00,99.35
3716.00,99.35
3715.00,99.32
3714.00,99.29
3713.00,99.26
3712.00,99.24
3711.00,99.23
3710.00,99.24
3709.00,99.25
3708.00,99.25
3707.00,99.24
3706.00,99.21
3705.00,99.18
3704.00,99.17
3703.00,99.17
3702.00,99.18
3701.00,99.18
3700.00,99.19
3699.00,99.21
3698.00,99.22
3697.00,99.22
3696.00,99.19
3695.00,99.14
3694.00,99.09
3693.00,99.05
3692.00,99.02
3691.00,99.01
3690.00,99.02
3689.00,99.04
3688.00,99.06
3687.00,99.08
3686.00,99.10
3685.00,99.11
3684.00,99.11
3683.00,99.09
3682.00,99.06
3681.00,99.03
3680.00,99.01
3679.00,99.00
3678.00,98.98
3677.00,98.95
3676.00,98.91
3675.00,98.88
3674.00,98.87
3673.00,98.89
3672.00,98.92
3671.00,98.95
3670.00,98.95
3669.00,98.93
3668.00,98.90
3667.00,98.89
3666.00,98.88
3665.00,98.88
3664.00,98.89
3663.00,98.91
3662.00,98.92
3661.00,98.93
3660.00,98.92
3659.00,98.89
3658.00,98.85
3657.00,98.83
3656.00,98.81
3655.00,98.81
3654.00,98.80
3653.00,98.81
3652.00,98.81
3651.00,98.80
3650.00,98.76
3649.00,98.71
3648.00,98.67
3647.00,98.66
3646.00,98.67
3645.00,98.67
3644.00,98.68
3643.00,98.68
3642.00,98.69
3641.00,98.69
3640.00,98.70
3639.00,98.71
3638.00,98.70
3637.00,98.69
3636.00,98.68
3635.00,98.67
3634.00,98.66
3633.00,98.64
3632.00,98.63
3631.00,98.61
3630.00,98.60
3629.00,98.60
3628.00,98.59
3627.00,98.59
3626.00,98.62
3625.00,98.64
3624.00,98.67
3623.00,98.67
3622.00,98.66
3621.00,98.65
3620.00,98.65
3619.00,98.67
3618.00,98.68
3617.00,98.68
3616.00,98.67
3615.00,98.65
3614.00,98.64
3613.00,98.63
3612.00,98.65
3611.00,98.69
3610.00,98.72
3609.00,98.72
3608.00,98.69
3607.00,98.65
3606.00,98.64
3605.00,98.66
3604.00,98.69
3603.00,98.70
3602.00,98.69
3601.00,98.65
3600.00,98.62
3599.00,98.61
3598.00,98.63
3597.00,98.66
3596.00,98.68
3595.00,98.69
3594.00,98.68
3593.00,98.67
3592.00,98.68
3591.00,98.69
3590.00,98.71
3589.00,98.72
3588.00,98.72
3587.00,98.71
3586.00,98.70
3585.00,98.70
3584.00,98.71
3583.00,98.72
3582.00,98.72
3581.00,98.72
3580.00,98.72
3579.00,98.70
3578.00,98.68
3577.00,98.67
3576.00,98.66
3575.00,98.67
3574.00,98.69
3573.00,98.71
3572.00,98.72
3571.00,98.72
3570.00,98.70
3569.00,98.65
3568.00,98.59
3567.00,98.52
3566.00,98.47
3565.00,98.45
3564.00,98.46
3563.00,98.48
3562.00,98.50
3561.00,98.51
3560.00,98.51
3559.00,98.50
3558.00,98.50
3557.00,98.50
3556.00,98.51
3555.00,98.50
3554.00,98.48
3553.00,98.47
3552.00,98.46
3551.00,98.46
3550.00,98.46
3549.00,98.46
3548.00,98.46
3547.00,98.46
3546.00,98.46
3545.00,98.47
3544.00,98.49
3543.00,98.51
3542.00,98.51
3541.00,98.49
3540.00,98.47
3539.00,98.45
3538.00,98.45
3537.00,98.47
3536.00,98.50
3535.00,98.52
3534.00,98.50
3533.00,98.47
3532.00,98.42
3531.00,98.40
3530.00,98.39
3529.00,98.40
3528.00,98.43
3527.00,98.47
3526.00,98.50
3525.00,98.51
3524.00,98.52
3523.00,98.52
3522.00,98.53
3521.00,98.54
3520.00,98.54
3519.00,98.55
3518.00,98.55
3517.00,98.56
3516.00,98.57
3515.00,98.58
3514.00,98.57
3513.00,98.55
3512.00,98.52
3511.00,98.50
3510.00,98.50
3509.00,98.52
3508.00,98.55
3507.00,98.59
3506.00,98.62
3505.00,98.63
3504.00,98.62
3503.00,98.60
3502.00,98.59
3501.00,98.58
3500.00,98.58
3499.00,98.58
3498.00,98.57
3497.00,98.56
3496.00,98.55
3495.00,98.56
3494.00,98.57
3493.00,98.60
3492.00,98.61
3491.00,98.62
3490.00,98.61
3489.00,98.60
3488.00,98.59
3487.00,98.58
3486.00,98.57
3485.00,98.55
3484.00,98.53
3483.00,98.53
3482.00,98.54
3481.00,98.55
3480.00,98.55
3479.00,98.54
3478.00,98.55
3477.00,98.56
3476.00,98.58
3475.00,98.59
3474.00,98.59
3473.00,98.57
3472.00,98.53
3471.00,98.50
3470.00,98.48
3469.00,98.47
3468.00,98.46
3467.00,98.46
3466.00,98.44
3465.00,98.43
3464.00,98.41
3463.00,98.39
3462.00,98.39
3461.00,98.39
3460.00,98.40
3459.00,98.40
3458.00,98.39
3457.00,98.37
3456.00,98.36
3455.00,98.36
3454.00,98.37
3453.00,98.38
3452.00,98.38
3451.00,98.37
3450.00,98.36
3449.00,98.34
3448.00,98.31
3447.00,98.26
3446.00,98.21
3445.00,98.15
3444.00,98.11
3443.00,98.09
3442.00,98.08
3441.00,98.06
3440.00,98.03
3439.00,97.99
3438.00,97.96
3437.00,97.93
3436.00,97.92
3435.00,97.90
3434.00,97.89
3433.00,97.87
3432.00,97.86
3431.00,97.87
3430.00,97.89
3429.00,97.91
3428.00,97.93
3427.00,97.94
3426.00,97.95
3425.00,97.96
3424.00,97.98
3423.00,98.00
3422.00,98.03
3421.00,98.07
3420.00,98.10
3419.00,98.14
3418.00,98.17
3417.00,98.21
3416.00,98.24
3415.00,98.27
3414.00,98.30
3413.00,98.32
3412.00,98.32
3411.00,98.32
3410.00,98.33
3409.00,98.35
3408.00,98.38
3407.00,98.40
3406.00,98.41
3405.00,98.41
3404.00,98.42
3403.00,98.44
3402.00,98.46
3401.00,98.46
3400.00,98.47
3399.00,98.46
3398.00,98.45
3397.00,98.45
3396.00,98.45
3395.00,98.47
3394.00,98.50
3393.00,98.53
3392.00,98.54
3391.00,98.54
3390.00,98.53
3389.00,98.52
3388.00,98.51
3387.00,98.49
3386.00,98.48
3385.00,98.47
3384.00,98.48
3383.00,98.49
3382.00,98.50
3381.00,98.49
3380.00,98.49
3379.00,98.48
3378.00,98.48
3377.00,98.49
3376.00,98.50
3375.00,98.50
3374.00,98.50
3373.00,98.49
3372.00,98.48
3371.00,98.49
3370.00,98.49
3369.00,98.50
3368.00,98.50
3367.00,98.49
3366.00,98.49
3365.00,98.48
3364.00,98.48
3363.00,98.49
3362.00,98.51
3361.00,98.52
3360.00,98.52
3359.00,98.52
3358.00,98.52
3357.00,98.52
3356.00,98.52
3355.00,98.53
3354.00,98.53
3353.00,98.52
3352.00,98.50
3351.00,98.49
3350.00,98.48
3349.00,98.48
3348.00,98.50
3347.00,98.53
3346.00,98.54
3345.00,98.55
3344.00,98.54
3343.00,98.52
3342.00,98.51
3341.00,98.50
3340.00,98.51
3339.00,98.51
3338.00,98.52
3337.00,98.53
3336.00,98.54
3335.00,98.54
3334.00,98.54
3333.00,98.52
3332.00,98.50
3331.00,98.48
3330.00,98.47
3329.00,98.47
3328.00,98.47
3327.00,98.49
3326.00,98.49
3325.00,98.49
3324.00,98.48
3323.00,98.45
3322.00,98.44
3321.00,98.45
3320.00,98.47
3319.00,98.49
3318.00,98.50
3317.00,98.50
3316.00,98.50
3315.00,98.49
3314.00,98.48
3313.00,98.47
3312.00,98.46
3311.00,98.47
3310.00,98.48
3309.00,98.49
3308.00,98.51
3307.00,98.52
3306.00,98.53
3305.00,98.54
3304.00,98.55
3303.00,98.55
3302.00,98.53
3301.00,98.50
3300.00,98.48
3299.00,98.49
3298.00,98.50
3297.00,98.52
3296.00,98.52
3295.00,98.52
3294.00,98.50
3293.00,98.50
3292.00,98.50
3291.00,98.50
3290.00,98.50
3289.00,98.48
3288.00,98.46
3287.00,98.45
3286.00,98.46
3285.00,98.46
3284.00,98.48
3283.00,98.49
3282.00,98.52
3281.00,98.54
3280.00,98.55
3279.00,98.53
3278.00,98.51
3277.00,98.50
3276.00,98.50
3275.00,98.51
3274.00,98.52
3273.00,98.53
3272.00,98.53
3271.00,98.51
3270.00,98.50
3269.00,98.48
3268.00,98.48
3267.00,98.49
3266.00,98.50
3265.00,98.50
3264.00,98.49
3263.00,98.48
3262.00,98.49
3261.00,98.50
3260.00,98.51
3259.00,98.51
3258.00,98.51
3257.00,98.51
3256.00,98.51
3255.00,98.51
3254.00,98.51
3253.00,98.52
3252.00,98.53
3251.00,98.54
3250.00,98.56
3249.00,98.58
3248.00,98.58
3247.00,98.57
3246.00,98.53
3245.00,98.50
3244.00,98.48
3243.00,98.49
3242.00,98.50
3241.00,98.53
3240.00,98.54
3239.00,98.54
3238.00,98.53
3237.00,98.51
3236.00,98.48
3235.00,98.47
3234.00,98.46
3233.00,98.47
3232.00,98.49
3231.00,98.51
3230.00,98.54
3229.00,98.55
3228.00,98.54
3227.00,98.52
3226.00,98.49
3225.00,98.47
3224.00,98.46
3223.00,98.47
3222.00,98.49
3221.00,98.52
3220.00,98.55
3219.00,98.56
3218.00,98.57
3217.00,98.56
3216.00,98.56
3215.00,98.55
3214.00,98.55
3213.00,98.55
3212.00,98.55
3211.00,98.54
3210.00,98.54
3209.00,98.55
3208.00,98.57
3207.00,98.60
3206.00,98.61
3205.00,98.61
3204.00,98.60
3203.00,98.58
3202.00,98.55
3201.00,98.53
3200.00,98.50
3199.00,98.49
3198.00,98.49
3197.00,98.50
3196.00,98.52
3195.00,98.54
3194.00,98.54
3193.00,98.53
3192.00,98.52
3191.00,98.50
3190.00,98.49
3189.00,98.48
3188.00,98.47
3187.00,98.49
3186.00,98.51
3185.00,98.53
3184.00,98.54
3183.00,98.53
3182.00,98.50
3181.00,98.48
3180.00,98.47
3179.00,98.47
3178.00,98.47
3177.00,98.47
3176.00,98.48
3175.00,98.49
3174.00,98.50
3173.00,98.51
3172.00,98.52
3171.00,98.52
3170.00,98.51
3169.00,98.51
3168.00,98.52
3167.00,98.53
3166.00,98.53
3165.00,98.52
3164.00,98.51
3163.00,98.49
3162.00,98.48
3161.00,98.48
3160.00,98.49
3159.00,98.50
3158.00,98.51
3157.00,98.52
3156.00,98.53
3155.00,98.54
3154.00,98.54
3153.00,98.51
3152.00,98.48
3151.00,98.46
3150.00,98.46
3149.00,98.47
3148.00,98.48
3147.00,98.49
3146.00,98.50
3145.00,98.50
3144.00,98.50
3143.00,98.49
3142.00,98.48
3141.00,98.47
3140.00,98.46
3139.00,98.43
3138.00,98.40
3137.00,98.38
3136.00,98.37
3135.00,98.37
3134.00,98.37
3133.00,98.37
3132.00,98.37
3131.00,98.37
3130.00,98.37
3129.00,98.36
3128.00,98.34
3127.00,98.32
3126.00,98.31
3125.00,98.30
3124.00,98.30
3123.00,98.31
3122.00,98.32
3121.00,98.33
3120.00,98.33
3119.00,98.31
3118.00,98.30
3117.00,98.28
3116.00,98.27
3115.00,98.26
3114.00,98.24
3113.00,98.21
3112.00,98.19
3111.00,98.17
3110.00,98.16
3109.00,98.15
3108.00,98.14
3107.00,98.12
3106.00,98.10
3105.00,98.07
3104.00,98.05
3103.00,98.03
3102.00,98.02
3101.00,98.03
3100.00,98.05
3099.00,98.07
3098.00,98.09
3097.00,98.11
3096.00,98.13
3095.00,98.14
3094.00,98.13
3093.00,98.12
3092.00,98.11
3091.00,98.11
3090.00,98.11
3089.00,98.09
3088.00,98.07
3087.00,98.04
3086.00,98.02
3085.00,98.00
3084.00,97.99
3083.00,97.99
3082.00,97.99
3081.00,97.98
3080.00,97.97
3079.00,97.96
3078.00,97.95
3077.00,97.94
3076.00,97.94
3075.00,97.95
3074.00,97.94
3073.00,97.93
3072.00,97.92
3071.00,97.90
3070.00,97.89
3069.00,97.89
3068.00,97.90
3067.00,97.92
3066.00,97.94
3065.00,97.95
3064.00,97.95
3063.00,97.95
3062.00,97.94
3061.00,97.94
3060.00,97.92
3059.00,97.91
3058.00,97.91
3057.00,97.91
3056.00,97.91
3055.00,97.92
3054.00,97.93
3053.00,97.94
3052.00,97.97
3051.00,98.01
3050.00,98.06
3049.00,98.10
3048.00,98.14
3047.00,98.18
3046.00,98.21
3045.00,98.24
3044.00,98.26
3043.00,98.27
3042.00,98.28
3041.00,98.27
3040.00,98.27
3039.00,98.26
3038.00,98.26
3037.00,98.27
3036.00,98.28
3035.00,98.28
3034.00,98.28
3033.00,98.28
3032.00,98.27
3031.00,98.27
3030.00,98.25
3029.00,98.23
3028.00,98.19
3027.00,98.15
3026.00,98.11
3025.00,98.07
3024.00,98.02
3023.00,97.96
3022.00,97.90
3021.00,97.85
3020.00,97.81
3019.00,97.78
3018.00,97.76
3017.00,97.73
3016.00,97.69
3015.00,97.64
3014.00,97.60
3013.00,97.57
3012.00,97.54
3011.00,97.51
3010.00,97.48
3009.00,97.46
3008.00,97.43
3007.00,97.40
3006.00,97.38
3005.00,97.36
3004.00,97.33
3003.00,97.31
3002.00,97.28
3001.00,97.26
3000.00,97.24
2999.00,97.22
2998.00,97.21
2997.00,97.20
2996.00,97.18
2995.00,97.15
2994.00,97.12
2993.00,97.07
2992.00,97.02
2991.00,96.97
2990.00,96.91
2989.00,96.84
2988.00,96.76
2987.00,96.69
2986.00,96.61
2985.00,96.54
2984.00,96.47
2983.00,96.38
2982.00,96.27
2981.00,96.16
2980.00,96.04
2979.00,95.91
2978.00,95.78
2977.00,95.64
2976.00,95.49
2975.00,95.32
2974.00,95.14
2973.00,94.96
2972.00,94.79
2971.00,94.64
2970.00,94.50
2969.00,94.37
2968.00,94.26
2967.00,94.18
2966.00,94.12
2965.00,94.09
2964.00,94.07
2963.00,94.08
2962.00,94.10
2961.00,94.15
2960.00,94.21
2959.00,94.30
2958.00,94.42
2957.00,94.57
2956.00,94.74
2955.00,94.93
2954.00,95.12
2953.00,95.30
2952.00,95.48
2951.00,95.65
2950.00,95.82
2949.00,95.97
2948.00,96.10
2947.00,96.19
2946.00,96.24
2945.00,96.27
2944.00,96.29
2943.00,96.30
2942.00,96.29
2941.00,96.26
2940.00,96.22
2939.00,96.16
2938.00,96.09
2937.00,96.01
2936.00,95.91
2935.00,95.80
2934.00,95.67
2933.00,95.52
2932.00,95.36
2931.00,95.18
2930.00,94.99
2929.00,94.76
2928.00,94.50
2927.00,94.19
2926.00,93.84
2925.00,93.46
2924.00,93.05
2923.00,92.61
2922.00,92.18
2921.00,91.75
2920.00,91.37
2919.00,91.05
2918.00,90.84
2917.00,90.79
2916.00,90.94
2915.00,91.28
2914.00,91.77
2913.00,92.30
2912.00,92.80
2911.00,93.22
2910.00,93.55
2909.00,93.82
2908.00,94.04
2907.00,94.24
2906.00,94.42
2905.00,94.60
2904.00,94.77
2903.00,94.91
2902.00,95.03
2901.00,95.14
2900.00,95.23
2899.00,95.33
2898.00,95.44
2897.00,95.53
2896.00,95.62
2895.00,95.69
2894.00,95.76
2893.00,95.82
2892.00,95.88
2891.00,95.95
2890.00,96.02
2889.00,96.09
2888.00,96.16
2887.00,96.22
2886.00,96.27
2885.00,96.34
2884.00,96.41
2883.00,96.47
2882.00,96.51
2881.00,96.55
2880.00,96.57
2879.00,96.59
2878.00,96.60
2877.00,96.61
2876.00,96.62
2875.00,96.64
2874.00,96.65
2873.00,96.65
2872.00,96.65
2871.00,96.67
2870.00,96.70
2869.00,96.76
2868.00,96.82
2867.00,96.86
2866.00,96.87
2865.00,96.84
2864.00,96.78
2863.00,96.69
2862.00,96.58
2861.00,96.46
2860.00,96.36
2859.00,96.25
2858.00,96.12
2857.00,95.93
2856.00,95.67
2855.00,95.31
2854.00,94.85
2853.00,94.29
2852.00,93.70
2851.00,93.16
2850.00,92.83
2849.00,92.82
2848.00,93.17
2847.00,93.78
2846.00,94.50
2845.00,95.20
2844.00,95.79
2843.00,96.26
2842.00,96.63
2841.00,96.90
2840.00,97.11
2839.00,97.27
2838.00,97.38
2837.00,97.46
2836.00,97.52
2835.00,97.58
2834.00,97.64
2833.00,97.70
2832.00,97.76
2831.00,97.81
2830.00,97.84
2829.00,97.86
2828.00,97.88
2827.00,97.90
2826.00,97.92
2825.00,97.94
2824.00,97.96
2823.00,97.99
2822.00,98.01
2821.00,98.04
2820.00,98.05
2819.00,98.06
2818.00,98.07
2817.00,98.08
2816.00,98.09
2815.00,98.09
2814.00,98.08
2813.00,98.08
2812.00,98.09
2811.00,98.11
2810.00,98.12
2809.00,98.12
2808.00,98.12
2807.00,98.13
2806.00,98.13
2805.00,98.13
2804.00,98.12
2803.00,98.13
2802.00,98.15
2801.00,98.18
2800.00,98.22
2799.00,98.24
2798.00,98.26
2797.00,98.26
2796.00,98.25
2795.00,98.24
2794.00,98.24
2793.00,98.24
2792.00,98.24
2791.00,98.25
2790.00,98.27
2789.00,98.29
2788.00,98.32
2787.00,98.34
2786.00,98.34
2785.00,98.34
2784.00,98.34
2783.00,98.35
2782.00,98.35
2781.00,98.36
2780.00,98.37
2779.00,98.38
2778.00,98.39
2777.00,98.41
2776.00,98.41
2775.00,98.40
2774.00,98.39
2773.00,98.39
2772.00,98.41
2771.00,98.43
2770.00,98.44
2769.00,98.44
2768.00,98.44
2767.00,98.44
2766.00,98.44
2765.00,98.45
2764.00,98.46
2763.00,98.47
2762.00,98.47
2761.00,98.47
2760.00,98.47
2759.00,98.48
2758.00,98.48
2757.00,98.48
2756.00,98.47
2755.00,98.46
2754.00,98.46
2753.00,98.47
2752.00,98.47
2751.00,98.46
2750.00,98.45
2749.00,98.43
2748.00,98.41
2747.00,98.41
2746.00,98.41
2745.00,98.43
2744.00,98.45
2743.00,98.46
2742.00,98.47
2741.00,98.48
2740.00,98.48
2739.00,98.47
2738.00,98.46
2737.00,98.45
2736.00,98.44
2735.00,98.44
2734.00,98.43
2733.00,98.42
2732.00,98.42
2731.00,98.42
2730.00,98.43
2729.00,98.45
2728.00,98.47
2727.00,98.48
2726.00,98.48
2725.00,98.48
2724.00,98.49
2723.00,98.51
2722.00,98.54
2721.00,98.55
2720.00,98.54
2719.00,98.52
2718.00,98.51
2717.00,98.50
2716.00,98.51
2715.00,98.51
2714.00,98.52
2713.00,98.53
2712.00,98.53
2711.00,98.54
2710.00,98.55
2709.00,98.56
2708.00,98.56
2707.00,98.56
2706.00,98.55
2705.00,98.54
2704.00,98.53
2703.00,98.53
2702.00,98.54
2701.00,98.55
2700.00,98.56
2699.00,98.57
2698.00,98.58
2697.00,98.58
2696.00,98.57
2695.00,98.57
2694.00,98.56
2693.00,98.55
2692.00,98.55
2691.00,98.55
2690.00,98.55
2689.00,98.55
2688.00,98.56
2687.00,98.56
2686.00,98.57
2685.00,98.58
2684.00,98.58
2683.00,98.58
2682.00,98.57
2681.00,98.55
2680.00,98.54
2679.00,98.53
2678.00,98.53
2677.00,98.53
2676.00,98.53
2675.00,98.55
2674.00,98.57
2673.00,98.59
2672.00,98.59
2671.00,98.58
2670.00,98.57
2669.00,98.56
2668.00,98.55
2667.00,98.55
2666.00,98.54
2665.00,98.53
2664.00,98.53
2663.00,98.53
2662.00,98.53
2661.00,98.53
2660.00,98.52
2659.00,98.50
2658.00,98.48
2657.00,98.45
2656.00,98.43
2655.00,98.42
2654.00,98.42
2653.00,98.41
2652.00,98.40
2651.00,98.39
2650.00,98.38
2649.00,98.38
2648.00,98.37
2647.00,98.36
2646.00,98.34
2645.00,98.31
2644.00,98.29
2643.00,98.28
2642.00,98.27
2641.00,98.26
2640.00,98.26
2639.00,98.24
2638.00,98.22
2637.00,98.19
2636.00,98.17
2635.00,98.16
2634.00,98.17
2633.00,98.19
2632.00,98.20
2631.00,98.18
2630.00,98.15
2629.00,98.12
2628.00,98.11
2627.00,98.11
2626.00,98.11
2625.00,98.12
2624.00,98.11
2623.00,98.10
2622.00,98.09
2621.00,98.09
2620.00,98.10
2619.00,98.11
2618.00,98.11
2617.00,98.11
2616.00,98.10
2615.00,98.09
2614.00,98.09
2613.00,98.09
2612.00,98.09
2611.00,98.08
2610.00,98.06
2609.00,98.03
2608.00,98.01
2607.00,98.01
2606.00,98.02
2605.00,98.02
2604.00,98.02
2603.00,98.01
2602.00,98.00
2601.00,97.99
2600.00,97.98
2599.00,97.98
2598.00,97.97
2597.00,97.96
2596.00,97.94
2595.00,97.92
2594.00,97.91
2593.00,97.91
2592.00,97.93
2591.00,97.96
2590.00,97.98
2589.00,97.98
2588.00,97.96
2587.00,97.92
2586.00,97.88
2585.00,97.85
2584.00,97.85
2583.00,97.85
2582.00,97.86
2581.00,97.84
2580.00,97.82
2579.00,97.81
2578.00,97.80
2577.00,97.80
2576.00,97.81
2575.00,97.83
2574.00,97.84
2573.00,97.85
2572.00,97.85
2571.00,97.84
2570.00,97.83
2569.00,97.84
2568.00,97.85
2567.00,97.86
2566.00,97.86
2565.00,97.85
2564.00,97.84
2563.00,97.82
2562.00,97.80
2561.00,97.77
2560.00,97.75
2559.00,97.77
2558.00,97.80
2557.00,97.81
2556.00,97.79
2555.00,97.75
2554.00,97.74
2553.00,97.76
2552.00,97.79
2551.00,97.81
2550.00,97.81
2549.00,97.79
2548.00,97.79
2547.00,97.78
2546.00,97.78
2545.00,97.77
2544.00,97.77
2543.00,97.77
2542.00,97.77
2541.00,97.76
2540.00,97.75
2539.00,97.75
2538.00,97.76
2537.00,97.77
2536.00,97.78
2535.00,97.78
2534.00,97.78
2533.00,97.78
2532.00,97.78
2531.00,97.78
2530.00,97.78
2529.00,97.79
2528.00,97.80
2527.00,97.81
2526.00,97.81
2525.00,97.80
2524.00,97.79
2523.00,97.79
2522.00,97.80
2521.00,97.82
2520.00,97.83
2519.00,97.83
2518.00,97.83
2517.00,97.83
2516.00,97.84
2515.00,97.86
2514.00,97.86
2513.00,97.86
2512.00,97.86
2511.00,97.86
2510.00,97.87
2509.00,97.88
2508.00,97.89
2507.00,97.90
2506.00,97.91
2505.00,97.91
2504.00,97.90
2503.00,97.90
2502.00,97.89
2501.00,97.89
2500.00,97.90
2499.00,97.91
2498.00,97.92
2497.00,97.92
2496.00,97.90
2495.00,97.90
2494.00,97.90
2493.00,97.91
2492.00,97.92
2491.00,97.93
2490.00,97.93
2489.00,97.91
2488.00,97.88
2487.00,97.87
2486.00,97.87
2485.00,97.88
2484.00,97.89
2483.00,97.90
2482.00,97.91
2481.00,97.91
2480.00,97.91
2479.00,97.90
2478.00,97.89
2477.00,97.87
2476.00,97.87
2475.00,97.88
2474.00,97.90
2473.00,97.92
2472.00,97.93
2471.00,97.95
2470.00,97.98
2469.00,98.01
2468.00,98.02
2467.00,98.01
2466.00,98.00
2465.00,98.00
2464.00,97.99
2463.00,97.98
2462.00,97.98
2461.00,97.98
2460.00,97.99
2459.00,98.00
2458.00,98.01
2457.00,98.02
2456.00,98.03
2455.00,98.04
2454.00,98.04
2453.00,98.03
2452.00,98.01
2451.00,97.98
2450.00,97.97
2449.00,97.96
2448.00,97.95
2447.00,97.94
2446.00,97.94
2445.00,97.94
2444.00,97.95
2443.00,97.97
2442.00,98.00
2441.00,98.02
2440.00,98.02
2439.00,97.99
2438.00,97.97
2437.00,97.96
2436.00,97.96
2435.00,97.97
2434.00,97.97
2433.00,97.97
2432.00,97.97
2431.00,97.96
2430.00,97.93
2429.00,97.91
2428.00,97.92
2427.00,97.95
2426.00,97.96
2425.00,97.95
2424.00,97.92
2423.00,97.90
2422.00,97.88
2421.00,97.89
2420.00,97.91
2419.00,97.94
2418.00,97.95
2417.00,97.95
2416.00,97.95
2415.00,97.96
2414.00,97.96
2413.00,97.96
2412.00,97.95
2411.00,97.95
2410.00,97.94
2409.00,97.94
2408.00,97.94
2407.00,97.94
2406.00,97.93
2405.00,97.93
2404.00,97.92
2403.00,97.93
2402.00,97.95
2401.00,97.97
2400.00,97.99
2399.00,98.00
2398.00,98.01
2397.00,98.00
2396.00,97.98
2395.00,97.98
2394.00,97.99
2393.00,97.99
2392.00,97.98
2391.00,97.97
2390.00,97.97
2389.00,97.99
2388.00,98.01
2387.00,98.04
2386.00,98.05
2385.00,98.06
2384.00,98.06
2383.00,98.09
2382.00,98.13
2381.00,98.17
2380.00,98.20
2379.00,98.22
2378.00,98.22
2377.00,98.20
2376.00,98.19
2375.00,98.20
2374.00,98.24
2373.00,98.27
2372.00,98.28
2371.00,98.29
2370.00,98.31
2369.00,98.34
2368.00,98.37
2367.00,98.37
2366.00,98.32
2365.00,98.25
2364.00,98.19
2363.00,98.20
2362.00,98.27
2361.00,98.34
2360.00,98.38
2359.00,98.38
2358.00,98.36
2357.00,98.34
2356.00,98.35
2355.00,98.38
2354.00,98.40
2353.00,98.39
2352.00,98.39
2351.00,98.40
2350.00,98.42
2349.00,98.44
2348.00,98.46
2347.00,98.47
2346.00,98.46
2345.00,98.42
2344.00,98.36
2343.00,98.32
2342.00,98.32
2341.00,98.33
2340.00,98.35
2339.00,98.37
2338.00,98.40
2337.00,98.41
2336.00,98.40
2335.00,98.37
2334.00,98.35
2333.00,98.33
2332.00,98.31
2331.00,98.30
2330.00,98.28
2329.00,98.25
2328.00,98.19
2327.00,98.12
2326.00,98.05
2325.00,97.99
2324.00,97.96
2323.00,97.96
2322.00,97.98
2321.00,98.00
2320.00,98.02
2319.00,98.03
2318.00,98.02
2317.00,98.02
2316.00,98.01
2315.00,98.01
2314.00,98.01
2313.00,98.01
2312.00,97.99
2311.00,97.98
2310.00,97.98
2309.00,97.98
2308.00,97.97
2307.00,97.93
2306.00,97.89
2305.00,97.85
2304.00,97.82
2303.00,97.81
2302.00,97.80
2301.00,97.81
2300.00,97.81
2299.00,97.79
2298.00,97.76
2297.00,97.71
2296.00,97.67
2295.00,97.63
2294.00,97.59
2293.00,97.55
2292.00,97.51
2291.00,97.48
2290.00,97.46
2289.00,97.44
2288.00,97.42
2287.00,97.39
2286.00,97.36
2285.00,97.33
2284.00,97.31
2283.00,97.31
2282.00,97.33
2281.00,97.34
2280.00,97.33
2279.00,97.31
2278.00,97.29
2277.00,97.29
2276.00,97.28
2275.00,97.26
2274.00,97.24
2273.00,97.23
2272.00,97.21
2271.00,97.19
2270.00,97.16
2269.00,97.14
2268.00,97.13
2267.00,97.14
2266.00,97.17
2265.00,97.20
2264.00,97.21
2263.00,97.19
2262.00,97.15
2261.00,97.13
2260.00,97.12
2259.00,97.13
2258.00,97.14
2257.00,97.13
2256.00,97.10
2255.00,97.06
2254.00,97.01
2253.00,96.98
2252.00,96.98
2251.00,97.00
2250.00,97.02
2249.00,97.05
2248.00,97.05
2247.00,97.01
2246.00,96.95
2245.00,96.91
2244.00,96.90
2243.00,96.91
2242.00,96.93
2241.00,96.95
2240.00,96.97
2239.00,96.99
2238.00,97.01
2237.00,97.02
2236.00,97.00
2235.00,96.98
2234.00,96.97
2233.00,96.98
2232.00,96.98
2231.00,96.96
2230.00,96.94
2229.00,96.93
2228.00,96.94
2227.00,96.95
2226.00,96.94
2225.00,96.91
2224.00,96.88
2223.00,96.85
2222.00,96.82
2221.00,96.82
2220.00,96.82
2219.00,96.85
2218.00,96.88
2217.00,96.91
2216.00,96.91
2215.00,96.89
2214.00,96.86
2213.00,96.82
2212.00,96.80
2211.00,96.79
2210.00,96.77
2209.00,96.74
2208.00,96.74
2207.00,96.77
2206.00,96.78
2205.00,96.76
2204.00,96.71
2203.00,96.67
2202.00,96.65
2201.00,96.62
2200.00,96.58
2199.00,96.54
2198.00,96.52
2197.00,96.52
2196.00,96.53
2195.00,96.56
2194.00,96.60
2193.00,96.64
2192.00,96.65
2191.00,96.62
2190.00,96.57
2189.00,96.51
2188.00,96.45
2187.00,96.42
2186.00,96.41
2185.00,96.41
2184.00,96.42
2183.00,96.43
2182.00,96.46
2181.00,96.47
2180.00,96.47
2179.00,96.47
2178.00,96.47
2177.00,96.48
2176.00,96.49
2175.00,96.50
2174.00,96.49
2173.00,96.45
2172.00,96.38
2171.00,96.29
2170.00,96.21
2169.00,96.14
2168.00,96.11
2167.00,96.10
2166.00,96.11
2165.00,96.10
2164.00,96.02
2163.00,95.91
2162.00,95.82
2161.00,95.82
2160.00,95.97
2159.00,96.21
2158.00,96.45
2157.00,96.61
2156.00,96.67
2155.00,96.70
2154.00,96.72
2153.00,96.73
2152.00,96.74
2151.00,96.74
2150.00,96.75
2149.00,96.77
2148.00,96.80
2147.00,96.85
2146.00,96.88
2145.00,96.88
2144.00,96.88
2143.00,96.91
2142.00,96.97
2141.00,97.02
2140.00,97.03
2139.00,97.01
2138.00,97.01
2137.00,97.04
2136.00,97.11
2135.00,97.19
2134.00,97.24
2133.00,97.27
2132.00,97.27
2131.00,97.25
2130.00,97.24
2129.00,97.24
2128.00,97.25
2127.00,97.26
2126.00,97.24
2125.00,97.23
2124.00,97.24
2123.00,97.26
2122.00,97.27
2121.00,97.25
2120.00,97.19
2119.00,97.14
2118.00,97.10
2117.00,97.10
2116.00,97.11
2115.00,97.12
2114.00,97.12
2113.00,97.09
2112.00,97.04
2111.00,97.00
2110.00,96.98
2109.00,96.98
2108.00,96.99
2107.00,97.00
2106.00,97.01
2105.00,97.03
2104.00,97.03
2103.00,97.02
2102.00,97.01
2101.00,96.99
2100.00,96.99
2099.00,97.02
2098.00,97.06
2097.00,97.11
2096.00,97.16
2095.00,97.20
2094.00,97.24
2093.00,97.27
2092.00,97.27
2091.00,97.23
2090.00,97.17
2089.00,97.11
2088.00,97.09
2087.00,97.09
2086.00,97.11
2085.00,97.13
2084.00,97.14
2083.00,97.15
2082.00,97.15
2081.00,97.12
2080.00,97.07
2079.00,97.02
2078.00,97.00
2077.00,97.00
2076.00,97.00
2075.00,97.00
2074.00,97.01
2073.00,97.02
2072.00,97.04
2071.00,97.06
2070.00,97.06
2069.00,97.07
2068.00,97.06
2067.00,97.06
2066.00,97.05
2065.00,97.04
2064.00,97.02
2063.00,97.03
2062.00,97.07
2061.00,97.11
2060.00,97.12
2059.00,97.11
2058.00,97.08
2057.00,97.04
2056.00,97.02
2055.00,97.03
2054.00,97.05
2053.00,97.02
2052.00,96.93
2051.00,96.85
2050.00,96.81
2049.00,96.80
2048.00,96.77
2047.00,96.72
2046.00,96.68
2045.00,96.65
2044.00,96.62
2043.00,96.61
2042.00,96.60
2041.00,96.55
2040.00,96.47
2039.00,96.38
2038.00,96.32
2037.00,96.31
2036.00,96.33
2035.00,96.35
2034.00,96.42
2033.00,96.53
2032.00,96.63
2031.00,96.66
2030.00,96.61
2029.00,96.55
2028.00,96.51
2027.00,96.52
2026.00,96.54
2025.00,96.57
2024.00,96.60
2023.00,96.63
2022.00,96.67
2021.00,96.68
2020.00,96.66
2019.00,96.61
2018.00,96.55
2017.00,96.53
2016.00,96.54
2015.00,96.56
2014.00,96.60
2013.00,96.63
2012.00,96.64
2011.00,96.66
2010.00,96.67
2009.00,96.67
2008.00,96.65
2007.00,96.64
2006.00,96.66
2005.00,96.72
2004.00,96.78
2003.00,96.82
2002.00,96.83
2001.00,96.83
2000.00,96.79
1999.00,96.73
1998.00,96.67
1997.00,96.64
1996.00,96.65
1995.00,96.69
1994.00,96.73
1993.00,96.75
1992.00,96.76
1991.00,96.75
1990.00,96.71
1989.00,96.67
1988.00,96.63
1987.00,96.59
1986.00,96.53
1985.00,96.46
1984.00,96.37
1983.00,96.29
1982.00,96.21
1981.00,96.14
1980.00,96.11
1979.00,96.13
1978.00,96.20
1977.00,96.30
1976.00,96.40
1975.00,96.47
1974.00,96.50
1973.00,96.49
1972.00,96.44
1971.00,96.39
1970.00,96.36
1969.00,96.36
1968.00,96.38
1967.00,96.41
1966.00,96.42
1965.00,96.40
1964.00,96.34
1963.00,96.30
1962.00,96.27
1961.00,96.25
1960.00,96.23
1959.00,96.23
1958.00,96.26
1957.00,96.31
1956.00,96.35
1955.00,96.38
1954.00,96.43
1953.00,96.49
1952.00,96.55
1951.00,96.57
1950.00,96.56
1949.00,96.55
1948.00,96.56
1947.00,96.61
1946.00,96.66
1945.00,96.71
1944.00,96.76
1943.00,96.83
1942.00,96.91
1941.00,96.98
1940.00,97.03
1939.00,97.07
1938.00,97.11
1937.00,97.15
1936.00,97.19
1935.00,97.24
1934.00,97.31
1933.00,97.38
1932.00,97.45
1931.00,97.50
1930.00,97.52
1929.00,97.50
1928.00,97.48
1927.00,97.47
1926.00,97.50
1925.00,97.54
1924.00,97.59
1923.00,97.62
1922.00,97.63
1921.00,97.61
1920.00,97.60
1919.00,97.62
1918.00,97.67
1917.00,97.70
1916.00,97.72
1915.00,97.73
1914.00,97.75
1913.00,97.78
1912.00,97.78
1911.00,97.77
1910.00,97.77
1909.00,97.78
1908.00,97.80
1907.00,97.80
1906.00,97.79
1905.00,97.77
1904.00,97.76
1903.00,97.77
1902.00,97.80
1901.00,97.83
1900.00,97.85
1899.00,97.87
1898.00,97.89
1897.00,97.90
1896.00,97.91
1895.00,97.92
1894.00,97.92
1893.00,97.93
1892.00,97.94
1891.00,97.94
1890.00,97.96
1889.00,97.98
1888.00,98.00
1887.00,98.02
1886.00,98.02
1885.00,98.02
1884.00,98.01
1883.00,98.00
1882.00,98.00
1881.00,98.01
1880.00,98.02
1879.00,98.03
1878.00,98.03
1877.00,98.03
1876.00,98.03
1875.00,98.04
1874.00,98.05
1873.00,98.07
1872.00,98.08
1871.00,98.10
1870.00,98.12
1869.00,98.14
1868.00,98.13
1867.00,98.12
1866.00,98.11
1865.00,98.09
1864.00,98.08
1863.00,98.08
1862.00,98.08
1861.00,98.08
1860.00,98.07
1859.00,98.04
1858.00,98.01
1857.00,97.98
1856.00,97.96
1855.00,97.96
1854.00,97.95
1853.00,97.94
1852.00,97.93
1851.00,97.92
1850.00,97.95
1849.00,97.98
1848.00,97.99
1847.00,97.96
1846.00,97.91
1845.00,97.86
1844.00,97.83
1843.00,97.80
1842.00,97.77
1841.00,97.75
1840.00,97.73
1839.00,97.73
1838.00,97.74
1837.00,97.73
1836.00,97.72
1835.00,97.70
1834.00,97.66
1833.00,97.62
1832.00,97.58
1831.00,97.55
1830.00,97.54
1829.00,97.52
1828.00,97.48
1827.00,97.43
1826.00,97.40
1825.00,97.40
1824.00,97.41
1823.00,97.41
1822.00,97.41
1821.00,97.42
1820.00,97.44
1819.00,97.47
1818.00,97.49
1817.00,97.51
1816.00,97.50
1815.00,97.49
1814.00,97.47
1813.00,97.46
1812.00,97.44
1811.00,97.42
1810.00,97.41
1809.00,97.41
1808.00,97.43
1807.00,97.45
1806.00,97.48
1805.00,97.49
1804.00,97.49
1803.00,97.49
1802.00,97.50
1801.00,97.52
1800.00,97.53
1799.00,97.54
1798.00,97.56
1797.00,97.58
1796.00,97.60
1795.00,97.59
1794.00,97.58
1793.00,97.59
1792.00,97.59
1791.00,97.59
1790.00,97.59
1789.00,97.59
1788.00,97.59
1787.00,97.58
1786.00,97.58
1785.00,97.57
1784.00,97.56
1783.00,97.54
1782.00,97.52
1781.00,97.51
1780.00,97.50
1779.00,97.49
1778.00,97.49
1777.00,97.50
1776.00,97.51
1775.00,97.49
1774.00,97.45
1773.00,97.41
1772.00,97.36
1771.00,97.31
1770.00,97.25
1769.00,97.21
1768.00,97.16
1767.00,97.10
1766.00,97.05
1765.00,97.00
1764.00,96.94
1763.00,96.87
1762.00,96.79
1761.00,96.73
1760.00,96.65
1759.00,96.52
1758.00,96.35
1757.00,96.17
1756.00,96.00
1755.00,95.81
1754.00,95.61
1753.00,95.36
1752.00,95.04
1751.00,94.58
1750.00,93.99
1749.00,93.30
1748.00,92.53
1747.00,91.67
1746.00,90.72
1745.00,89.66
1744.00,88.44
1743.00,87.08
1742.00,85.63
1741.00,84.08
1740.00,82.37
1739.00,80.66
1738.00,79.20
1737.00,77.96
1736.00,76.63
1735.00,74.78
1734.00,72.43
1733.00,70.25
1732.00,68.52
1731.00,66.91
1730.00,65.22
1729.00,63.47
1728.00,61.79
1727.00,60.18
1726.00,58.59
1725.00,56.98
1724.00,55.34
1723.00,53.70
1722.00,52.15
1721.00,50.75
1720.00,49.37
1719.00,47.66
1718.00,45.51
1717.00,43.37
1716.00,41.69
1715.00,40.39
1714.00,39.40
1713.00,38.87
1712.00,38.82
1711.00,39.14
1710.00,39.80
1709.00,40.84
1708.00,42.29
1707.00,44.13
1706.00,46.34
1705.00,48.70
1704.00,50.86
1703.00,52.70
1702.00,54.63
1701.00,57.21
1700.00,60.13
1699.00,62.39
1698.00,63.98
1697.00,65.53
1696.00,67.29
1695.00,68.94
1694.00,70.19
1693.00,71.20
1692.00,72.18
1691.00,73.19
1690.00,74.16
1689.00,75.02
1688.00,75.75
1687.00,76.34
1686.00,76.84
1685.00,77.32
1684.00,77.75
1683.00,78.15
1682.00,78.57
1681.00,79.07
1680.00,79.63
1679.00,80.19
1678.00,80.70
1677.00,81.22
1676.00,81.80
1675.00,82.40
1674.00,82.92
1673.00,83.34
1672.00,83.74
1671.00,84.18
1670.00,84.67
1669.00,85.19
1668.00,85.68
1667.00,86.12
1666.00,86.50
1665.00,86.90
1664.00,87.34
1663.00,87.81
1662.00,88.24
1661.00,88.59
1660.00,88.90
1659.00,89.17
1658.00,89.43
1657.00,89.68
1656.00,89.92
1655.00,90.16
1654.00,90.42
1653.00,90.70
1652.00,90.91
1651.00,91.00
1650.00,91.04
1649.00,91.15
1648.00,91.32
1647.00,91.50
1646.00,91.63
1645.00,91.72
1644.00,91.81
1643.00,91.89
1642.00,91.98
1641.00,92.09
1640.00,92.21
1639.00,92.34
1638.00,92.45
1637.00,92.53
1636.00,92.59
1635.00,92.66
1634.00,92.73
1633.00,92.79
1632.00,92.83
1631.00,92.87
1630.00,92.91
1629.00,92.97
1628.00,93.05
1627.00,93.13
1626.00,93.18
1625.00,93.22
1624.00,93.27
1623.00,93.31
1622.00,93.34
1621.00,93.34
1620.00,93.33
1619.00,93.31
1618.00,93.26
1617.00,93.16
1616.00,93.05
1615.00,92.95
1614.00,92.90
1613.00,92.90
1612.00,92.95
1611.00,93.02
1610.00,93.11
1609.00,93.19
1608.00,93.25
1607.00,93.32
1606.00,93.37
1605.00,93.43
1604.00,93.48
1603.00,93.51
1602.00,93.54
1601.00,93.60
1600.00,93.67
1599.00,93.78
1598.00,93.90
1597.00,94.03
1596.00,94.18
1595.00,94.31
1594.00,94.43
1593.00,94.51
1592.00,94.57
1591.00,94.59
1590.00,94.58
1589.00,94.54
1588.00,94.47
1587.00,94.37
1586.00,94.23
1585.00,94.03
1584.00,93.79
1583.00,93.51
1582.00,93.22
1581.00,92.98
1580.00,92.82
1579.00,92.78
1578.00,92.84
1577.00,93.03
1576.00,93.29
1575.00,93.54
1574.00,93.72
1573.00,93.88
1572.00,94.03
1571.00,94.21
1570.00,94.42
1569.00,94.63
1568.00,94.81
1567.00,94.95
1566.00,95.05
1565.00,95.15
1564.00,95.25
1563.00,95.35
1562.00,95.39
1561.00,95.41
1560.00,95.49
1559.00,95.55
1558.00,95.58
1557.00,95.61
1556.00,95.62
1555.00,95.62
1554.00,95.61
1553.00,95.62
1552.00,95.63
1551.00,95.63
1550.00,95.60
1549.00,95.56
1548.00,95.52
1547.00,95.48
1546.00,95.47
1545.00,95.47
1544.00,95.46
1543.00,95.46
1542.00,95.48
1541.00,95.47
1540.00,95.39
1539.00,95.29
1538.00,95.21
1537.00,95.12
1536.00,95.06
1535.00,95.02
1534.00,94.98
1533.00,94.91
1532.00,94.84
1531.00,94.76
1530.00,94.68
1529.00,94.60
1528.00,94.53
1527.00,94.47
1526.00,94.43
1525.00,94.43
1524.00,94.46
1523.00,94.51
1522.00,94.56
1521.00,94.59
1520.00,94.61
1519.00,94.61
1518.00,94.60
1517.00,94.57
1516.00,94.51
1515.00,94.42
1514.00,94.30
1513.00,94.11
1512.00,93.85
1511.00,93.51
1510.00,93.07
1509.00,92.43
1508.00,91.41
1507.00,90.12
1506.00,89.32
1505.00,89.36
1504.00,89.91
1503.00,90.69
1502.00,91.58
1501.00,92.46
1500.00,93.28
1499.00,93.97
1498.00,94.54
1497.00,94.93
1496.00,95.16
1495.00,95.28
1494.00,95.31
1493.00,95.30
1492.00,95.26
1491.00,95.23
1490.00,95.14
1489.00,94.92
1488.00,94.62
1487.00,94.31
1486.00,94.01
1485.00,93.71
1484.00,93.41
1483.00,93.09
1482.00,92.74
1481.00,92.36
1480.00,91.97
1479.00,91.60
1478.00,91.20
1477.00,90.71
1476.00,90.12
1475.00,89.43
1474.00,88.72
1473.00,88.16
1472.00,88.01
1471.00,88.27
1470.00,88.73
1469.00,89.23
1468.00,89.67
1467.00,89.98
1466.00,90.13
1465.00,90.10
1464.00,89.98
1463.00,89.91
1462.00,89.93
1461.00,90.04
1460.00,90.23
1459.00,90.42
1458.00,90.52
1457.00,90.54
1456.00,90.53
1455.00,90.53
1454.00,90.54
1453.00,90.59
1452.00,90.68
1451.00,90.79
1450.00,90.90
1449.00,91.03
1448.00,91.18
1447.00,91.32
1446.00,91.45
1445.00,91.58
1444.00,91.70
1443.00,91.81
1442.00,91.92
1441.00,92.03
1440.00,92.15
1439.00,92.26
1438.00,92.42
1437.00,92.64
1436.00,92.88
1435.00,93.09
1434.00,93.26
1433.00,93.42
1432.00,93.60
1431.00,93.78
1430.00,93.93
1429.00,94.05
1428.00,94.11
1427.00,94.13
1426.00,94.10
1425.00,94.01
1424.00,93.86
1423.00,93.64
1422.00,93.35
1421.00,92.95
1420.00,92.30
1419.00,91.33
1418.00,90.12
1417.00,88.74
1416.00,87.17
1415.00,85.38
1414.00,83.42
1413.00,81.37
1412.00,79.43
1411.00,77.87
1410.00,76.87
1409.00,76.51
1408.00,76.78
1407.00,77.64
1406.00,78.99
1405.00,80.59
1404.00,82.21
1403.00,83.64
1402.00,84.84
1401.00,85.90
1400.00,86.90
1399.00,87.80
1398.00,88.53
1397.00,89.07
1396.00,89.49
1395.00,89.84
1394.00,90.10
1393.00,90.26
1392.00,90.36
1391.00,90.42
1390.00,90.47
1389.00,90.50
1388.00,90.51
1387.00,90.49
1386.00,90.46
1385.00,90.44
1384.00,90.44
1383.00,90.46
1382.00,90.48
1381.00,90.47
1380.00,90.46
1379.00,90.44
1378.00,90.42
1377.00,90.39
1376.00,90.34
1375.00,90.25
1374.00,90.13
1373.00,90.02
1372.00,89.95
1371.00,89.92
1370.00,89.96
1369.00,90.05
1368.00,90.21
1367.00,90.43
1366.00,90.70
1365.00,91.01
1364.00,91.34
1363.00,91.64
1362.00,91.87
1361.00,92.02
1360.00,92.10
1359.00,92.12
1358.00,92.09
1357.00,92.01
1356.00,91.84
1355.00,91.60
1354.00,91.28
1353.00,90.85
1352.00,90.28
1351.00,89.56
1350.00,88.65
1349.00,87.50
1348.00,86.11
1347.00,84.49
1346.00,82.69
1345.00,80.81
1344.00,79.00
1343.00,77.44
1342.00,76.24
1341.00,75.49
1340.00,75.26
1339.00,75.59
1338.00,76.43
1337.00,77.67
1336.00,79.19
1335.00,80.90
1334.00,82.66
1333.00,84.36
1332.00,85.91
1331.00,87.23
1330.00,88.30
1329.00,89.10
1328.00,89.67
1327.00,90.03
1326.00,90.24
1325.00,90.33
1324.00,90.35
1323.00,90.32
1322.00,90.24
1321.00,90.12
1320.00,89.97
1319.00,89.80
1318.00,89.61
1317.00,89.41
1316.00,89.18
1315.00,88.92
1314.00,88.63
1313.00,88.30
1312.00,87.96
1311.00,87.59
1310.00,87.22
1309.00,86.83
1308.00,86.43
1307.00,86.02
1306.00,85.58
1305.00,85.11
1304.00,84.60
1303.00,84.03
1302.00,83.41
1301.00,82.73
1300.00,81.98
1299.00,81.17
1298.00,80.31
1297.00,79.42
1296.00,78.51
1295.00,77.63
1294.00,76.78
1293.00,75.94
1292.00,75.10
1291.00,74.26
1290.00,73.44
1289.00,72.62
1288.00,71.80
1287.00,71.00
1286.00,70.22
1285.00,69.45
1284.00,68.67
1283.00,67.90
1282.00,67.14
1281.00,66.38
1280.00,65.60
1279.00,64.81
1278.00,64.01
1277.00,63.17
1276.00,62.30
1275.00,61.42
1274.00,60.51
1273.00,59.53
1272.00,58.48
1271.00,57.39
1270.00,56.25
1269.00,55.07
1268.00,53.83
1267.00,52.56
1266.00,51.30
1265.00,50.05
1264.00,48.87
1263.00,47.83
1262.00,46.94
1261.00,46.21
1260.00,45.64
1259.00,45.25
1258.00,45.01
1257.00,44.84
1256.00,44.70
1255.00,44.58
1254.00,44.44
1253.00,44.26
1252.00,44.02
1251.00,43.76
1250.00,43.49
1249.00,43.21
1248.00,42.95
1247.00,42.74
1246.00,42.63
1245.00,42.58
1244.00,42.63
1243.00,42.82
1242.00,43.19
1241.00,43.72
1240.00,44.44
1239.00,45.37
1238.00,46.51
1237.00,47.82
1236.00,49.26
1235.00,50.82
1234.00,52.45
1233.00,54.10
1232.00,55.72
1231.00,57.31
1230.00,58.81
1229.00,60.17
1228.00,61.38
1227.00,62.47
1226.00,63.45
1225.00,64.35
1224.00,65.20
1223.00,66.04
1222.00,66.90
1221.00,67.78
1220.00,68.69
1219.00,69.64
1218.00,70.60
1217.00,71.53
1216.00,72.42
1215.00,73.26
1214.00,74.07
1213.00,74.83
1212.00,75.55
1211.00,76.22
1210.00,76.86
1209.00,77.47
1208.00,78.06
1207.00,78.67
1206.00,79.27
1205.00,79.84
1204.00,80.38
1203.00,80.90
1202.00,81.39
1201.00,81.87
1200.00,82.34
1199.00,82.79
1198.00,83.22
1197.00,83.63
1196.00,84.03
1195.00,84.40
1194.00,84.75
1193.00,85.09
1192.00,85.43
1191.00,85.74
1190.00,86.03
1189.00,86.27
1188.00,86.46
1187.00,86.59
1186.00,86.65
1185.00,86.64
1184.00,86.54
1183.00,86.39
1182.00,86.18
1181.00,85.92
1180.00,85.62
1179.00,85.31
1178.00,85.00
1177.00,84.73
1176.00,84.52
1175.00,84.39
1174.00,84.34
1173.00,84.39
1172.00,84.53
1171.00,84.75
1170.00,85.03
1169.00,85.36
1168.00,85.70
1167.00,86.01
1166.00,86.29
1165.00,86.51
1164.00,86.66
1163.00,86.75
1162.00,86.78
1161.00,86.75
1160.00,86.68
1159.00,86.58
1158.00,86.42
1157.00,86.20
1156.00,85.92
1155.00,85.58
1154.00,85.19
1153.00,84.74
1152.00,84.26
1151.00,83.75
1150.00,83.21
1149.00,82.66
1148.00,82.09
1147.00,81.53
1146.00,80.96
1145.00,80.36
1144.00,79.71
1143.00,78.97
1142.00,78.13
1141.00,77.17
1140.00,76.11
1139.00,74.95
1138.00,73.70
1137.00,72.35
1136.00,70.91
1135.00,69.43
1134.00,67.96
1133.00,66.52
1132.00,65.13
1131.00,63.81
1130.00,62.57
1129.00,61.40
1128.00,60.29
1127.00,59.29
1126.00,58.40
1125.00,57.62
1124.00,56.92
1123.00,56.31
1122.00,55.80
1121.00,55.35
1120.00,54.97
1119.00,54.69
1118.00,54.50
1117.00,54.36
1116.00,54.26
1115.00,54.15
1114.00,54.00
1113.00,53.74
1112.00,53.35
1111.00,52.86
1110.00,52.26
1109.00,51.53
1108.00,50.67
1107.00,49.74
1106.00,48.78
1105.00,47.80
1104.00,46.83
1103.00,45.95
1102.00,45.16
1101.00,44.47
1100.00,43.88
1099.00,43.46
1098.00,43.21
1097.00,43.10
1096.00,43.09
1095.00,43.21
1094.00,43.45
1093.00,43.77
1092.00,44.14
1091.00,44.58
1090.00,45.09
1089.00,45.62
1088.00,46.17
1087.00,46.79
1086.00,47.48
1085.00,48.21
1084.00,49.01
1083.00,49.93
1082.00,50.97
1081.00,52.09
1080.00,53.28
1079.00,54.55
1078.00,55.86
1077.00,57.17
1076.00,58.44
1075.00,59.67
1074.00,60.85
1073.00,61.96
1072.00,63.00
1071.00,64.00
1070.00,64.96
1069.00,65.82
1068.00,66.61
1067.00,67.34
1066.00,68.03
1065.00,68.66
1064.00,69.24
1063.00,69.79
1062.00,70.29
1061.00,70.76
1060.00,71.19
1059.00,71.56
1058.00,71.87
1057.00,72.10
1056.00,72.27
1055.00,72.39
1054.00,72.46
1053.00,72.45
1052.00,72.39
1051.00,72.32
1050.00,72.25
1049.00,72.18
1048.00,72.10
1047.00,72.05
1046.00,72.04
1045.00,72.07
1044.00,72.10
1043.00,72.14
1042.00,72.21
1041.00,72.33
1040.00,72.50
1039.00,72.68
1038.00,72.84
1037.00,72.98
1036.00,73.12
1035.00,73.29
1034.00,73.47
1033.00,73.64
1032.00,73.75
1031.00,73.75
1030.00,73.55
1029.00,73.02
1028.00,72.03
1027.00,70.55
1026.00,68.67
1025.00,66.57
1024.00,64.47
1023.00,62.53
1022.00,60.75
1021.00,59.08
1020.00,57.56
1019.00,56.40
1018.00,55.85
1017.00,56.10
1016.00,57.23
1015.00,59.10
1014.00,61.43
1013.00,63.89
1012.00,66.22
1011.00,68.31
1010.00,70.13
1009.00,71.69
1008.00,73.03
1007.00,74.21
1006.00,75.23
1005.00,76.11
1004.00,76.88
1003.00,77.55
1002.00,78.16
1001.00,78.70
1000.00,79.18
999.00,79.64
998.00,80.06
997.00,80.45
996.00,80.77
995.00,81.03
994.00,81.23
993.00,81.37
992.00,81.46
991.00,81.52
990.00,81.56
989.00,81.60
988.00,81.66
987.00,81.72
986.00,81.78
985.00,81.80
984.00,81.75
983.00,81.65
982.00,81.47
981.00,81.22
980.00,80.90
979.00,80.50
978.00,80.03
977.00,79.52
976.00,78.97
975.00,78.43
974.00,77.95
973.00,77.57
972.00,77.36
971.00,77.32
970.00,77.46
969.00,77.74
968.00,78.14
967.00,78.63
966.00,79.18
965.00,79.75
964.00,80.31
963.00,80.85
962.00,81.38
961.00,81.88
960.00,82.35
959.00,82.78
958.00,83.18
957.00,83.56
956.00,83.91
955.00,84.23
954.00,84.53
953.00,84.80
952.00,85.06
951.00,85.30
950.00,85.53
949.00,85.72
948.00,85.90
947.00,86.05
946.00,86.20
945.00,86.33
944.00,86.46
943.00,86.59
942.00,86.72
941.00,86.85
940.00,86.95
939.00,87.05
938.00,87.15
937.00,87.25
936.00,87.35
935.00,87.45
934.00,87.56
933.00,87.66
932.00,87.76
931.00,87.86
930.00,87.95
929.00,88.04
928.00,88.13
927.00,88.22
926.00,88.32
925.00,88.40
924.00,88.46
923.00,88.51
922.00,88.56
921.00,88.61
920.00,88.66
919.00,88.70
918.00,88.72
917.00,88.72
916.00,88.71
915.00,88.67
914.00,88.61
913.00,88.51
912.00,88.38
911.00,88.24
910.00,88.09
909.00,87.92
908.00,87.73
907.00,87.51
906.00,87.27
905.00,87.03
904.00,86.80
903.00,86.61
902.00,86.47
901.00,86.36
900.00,86.27
899.00,86.21
898.00,86.17
897.00,86.14
896.00,86.11
895.00,86.09
894.00,86.09
893.00,86.09
892.00,86.07
891.00,86.01
890.00,85.89
889.00,85.72
888.00,85.50
887.00,85.23
886.00,84.86
885.00,84.34
884.00,83.67
883.00,82.82
882.00,81.82
881.00,80.67
880.00,79.39
879.00,77.99
878.00,76.42
877.00,74.56
876.00,72.29
875.00,69.61
874.00,66.87
873.00,64.76
872.00,64.04
871.00,65.00
870.00,67.24
869.00,69.99
868.00,72.54
867.00,74.61
866.00,76.17
865.00,77.30
864.00,78.08
863.00,78.58
862.00,78.86
861.00,78.95
860.00,78.90
859.00,78.76
858.00,78.56
857.00,78.31
856.00,78.03
855.00,77.76
854.00,77.46
853.00,77.08
852.00,76.56
851.00,75.92
850.00,75.26
849.00,74.71
848.00,74.41
847.00,74.42
846.00,74.73
845.00,75.27
844.00,75.94
843.00,76.65
842.00,77.35
841.00,78.02
840.00,78.62
839.00,79.16
838.00,79.63
837.00,80.06
836.00,80.45
835.00,80.82
834.00,81.16
833.00,81.45
832.00,81.70
831.00,81.91
830.00,82.06
829.00,82.14
828.00,82.13
827.00,82.05
826.00,81.89
825.00,81.69
824.00,81.47
823.00,81.28
822.00,81.12
821.00,80.98
820.00,80.85
819.00,80.76
818.00,80.71
817.00,80.67
816.00,80.62
815.00,80.54
814.00,80.42
813.00,80.26
812.00,80.07
811.00,79.89
810.00,79.71
809.00,79.53
808.00,79.33
807.00,79.12
806.00,78.93
805.00,78.78
804.00,78.66
803.00,78.56
802.00,78.49
801.00,78.42
800.00,78.35
799.00,78.24
798.00,78.03
797.00,77.67
796.00,77.23
795.00,76.85
794.00,76.69
793.00,76.83
792.00,77.29
791.00,78.01
790.00,78.91
789.00,79.88
788.00,80.86
787.00,81.85
786.00,82.82
785.00,83.71
784.00,84.51
783.00,85.20
782.00,85.80
781.00,86.32
780.00,86.78
779.00,87.21
778.00,87.63
777.00,88.01
776.00,88.36
775.00,88.67
774.00,88.96
773.00,89.22
772.00,89.48
771.00,89.76
770.00,90.04
769.00,90.30
768.00,90.56
767.00,90.79
766.00,91.00
765.00,91.16
764.00,91.28
763.00,91.40
762.00,91.52
761.00,91.63
760.00,91.75
759.00,91.86
758.00,91.96
757.00,92.02
756.00,92.05
755.00,92.10
754.00,92.18
753.00,92.26
752.00,92.31
751.00,92.32
750.00,92.28
749.00,92.16
748.00,91.96
747.00,91.66
746.00,91.28
745.00,90.78
744.00,90.12
743.00,89.22
742.00,88.00
741.00,86.37
740.00,84.29
739.00,81.80
738.00,78.93
737.00,75.69
736.00,72.16
735.00,68.43
734.00,64.61
733.00,60.77
732.00,56.95
731.00,53.18
730.00,49.50
729.00,45.88
728.00,42.28
727.00,38.77
726.00,35.44
725.00,32.50
724.00,30.22
723.00,28.79
722.00,28.29
721.00,28.65
720.00,29.78
719.00,31.59
718.00,33.90
717.00,36.51
716.00,39.24
715.00,41.97
714.00,44.56
713.00,46.91
712.00,49.00
711.00,50.87
710.00,52.56
709.00,54.11
708.00,55.55
707.00,56.93
706.00,58.22
705.00,59.41
704.00,60.49
703.00,61.52
702.00,62.59
701.00,63.77
700.00,65.04
699.00,66.36
698.00,67.67
697.00,68.90
696.00,70.03
695.00,71.03
694.00,71.88
693.00,72.60
692.00,73.18
691.00,73.68
690.00,74.13
689.00,74.55
688.00,74.95
687.00,75.31
686.00,75.62
685.00,75.86
684.00,76.04
683.00,76.16
682.00,76.25
681.00,76.34
680.00,76.51
679.00,76.82
678.00,77.27
677.00,77.78
676.00,78.25
675.00,78.63
674.00,78.94
673.00,79.21
672.00,79.47
671.00,79.72
670.00,79.98
669.00,80.25
668.00,80.52
667.00,80.75
666.00,80.97
665.00,81.16
664.00,81.32
663.00,81.44
662.00,81.57
661.00,81.73
660.00,81.91
659.00,82.09
658.00,82.31
657.00,82.56
656.00,82.83
655.00,83.05
654.00,83.22
653.00,83.37
652.00,83.55
651.00,83.73
650.00,83.86
649.00,83.89
648.00,83.87
647.00,83.88
646.00,83.96
645.00,84.09
644.00,84.23
643.00,84.32
642.00,84.37
641.00,84.46
640.00,84.60
639.00,84.78
638.00,84.92
637.00,84.93
636.00,84.78
635.00,84.44
634.00,84.00
633.00,83.61
632.00,83.45
631.00,83.61
630.00,83.98
629.00,84.37
628.00,84.67
627.00,84.89
626.00,85.09
625.00,85.30
624.00,85.49
623.00,85.68
622.00,85.90
621.00,86.11
620.00,86.27
619.00,86.30
618.00,86.16
617.00,85.94
616.00,85.76
615.00,85.70
614.00,85.75
613.00,85.84
612.00,85.95
611.00,86.11
610.00,86.35
609.00,86.53
608.00,86.55
607.00,86.43
606.00,86.30
605.00,86.27
604.00,86.28
603.00,86.23
602.00,86.10
601.00,85.98
600.00,85.96
599.00,86.03
598.00,86.15
597.00,86.29
596.00,86.48
595.00,86.66
594.00,86.64
593.00,86.38
592.00,86.07
591.00,86.04
590.00,86.40
589.00,86.96
588.00,87.38
587.00,87.53
586.00,87.47
585.00,87.43
584.00,87.50
583.00,87.58
582.00,87.52
581.00,87.26
580.00,86.95
579.00,86.75
578.00,86.66
577.00,86.64
576.00,86.73
575.00,86.95
574.00,87.09
573.00,86.93
572.00,86.59
571.00,86.34
570.00,86.26
569.00,86.16
568.00,85.99
567.00,85.97
566.00,86.18
565.00,86.33
564.00,86.25
563.00,86.13
562.00,86.22
561.00,86.45
560.00,86.56
559.00,86.50
558.00,86.40
557.00,86.38
556.00,86.46
555.00,86.58
554.00,86.54
553.00,86.26
552.00,85.87
551.00,85.66
550.00,85.61
