Created as New Dataset,176. Shaw industries (Beige)
cm-1,%T
4000.00,98.60
3999.00,98.59
3998.00,98.59
3997.00,98.58
3996.00,98.56
3995.00,98.53
3994.00,98.50
3993.00,98.48
3992.00,98.49
3991.00,98.51
3990.00,98.53
3989.00,98.55
3988.00,98.54
3987.00,98.53
3986.00,98.53
3985.00,98.53
3984.00,98.52
3983.00,98.51
3982.00,98.50
3981.00,98.48
3980.00,98.47
3979.00,98.46
3978.00,98.45
3977.00,98.43
3976.00,98.43
3975.00,98.44
3974.00,98.47
3973.00,98.50
3972.00,98.52
3971.00,98.52
3970.00,98.50
3969.00,98.48
3968.00,98.46
3967.00,98.46
3966.00,98.46
3965.00,98.47
3964.00,98.48
3963.00,98.50
3962.00,98.52
3961.00,98.55
3960.00,98.56
3959.00,98.56
3958.00,98.55
3957.00,98.54
3956.00,98.54
3955.00,98.55
3954.00,98.56
3953.00,98.57
3952.00,98.56
3951.00,98.54
3950.00,98.52
3949.00,98.51
3948.00,98.52
3947.00,98.53
3946.00,98.53
3945.00,98.51
3944.00,98.49
3943.00,98.48
3942.00,98.48
3941.00,98.49
3940.00,98.50
3939.00,98.52
3938.00,98.53
3937.00,98.54
3936.00,98.53
3935.00,98.50
3934.00,98.46
3933.00,98.43
3932.00,98.41
3931.00,98.41
3930.00,98.42
3929.00,98.42
3928.00,98.42
3927.00,98.42
3926.00,98.43
3925.00,98.45
3924.00,98.47
3923.00,98.49
3922.00,98.50
3921.00,98.49
3920.00,98.48
3919.00,98.46
3918.00,98.44
3917.00,98.43
3916.00,98.43
3915.00,98.44
3914.00,98.45
3913.00,98.47
3912.00,98.49
3911.00,98.50
3910.00,98.51
3909.00,98.50
3908.00,98.49
3907.00,98.46
3906.00,98.44
3905.00,98.44
3904.00,98.45
3903.00,98.46
3902.00,98.44
3901.00,98.40
3900.00,98.38
3899.00,98.39
3898.00,98.43
3897.00,98.48
3896.00,98.51
3895.00,98.52
3894.00,98.52
3893.00,98.51
3892.00,98.51
3891.00,98.52
3890.00,98.52
3889.00,98.51
3888.00,98.50
3887.00,98.51
3886.00,98.53
3885.00,98.53
3884.00,98.52
3883.00,98.50
3882.00,98.50
3881.00,98.51
3880.00,98.52
3879.00,98.52
3878.00,98.50
3877.00,98.48
3876.00,98.47
3875.00,98.47
3874.00,98.47
3873.00,98.45
3872.00,98.42
3871.00,98.40
3870.00,98.40
3869.00,98.41
3868.00,98.41
3867.00,98.40
3866.00,98.40
3865.00,98.41
3864.00,98.44
3863.00,98.45
3862.00,98.46
3861.00,98.47
3860.00,98.48
3859.00,98.48
3858.00,98.46
3857.00,98.43
3856.00,98.40
3855.00,98.37
3854.00,98.38
3853.00,98.43
3852.00,98.45
3851.00,98.44
3850.00,98.43
3849.00,98.43
3848.00,98.45
3847.00,98.48
3846.00,98.50
3845.00,98.50
3844.00,98.49
3843.00,98.46
3842.00,98.42
3841.00,98.40
3840.00,98.39
3839.00,98.39
3838.00,98.41
3837.00,98.42
3836.00,98.41
3835.00,98.40
3834.00,98.40
3833.00,98.40
3832.00,98.40
3831.00,98.40
3830.00,98.39
3829.00,98.38
3828.00,98.37
3827.00,98.39
3826.00,98.41
3825.00,98.42
3824.00,98.42
3823.00,98.41
3822.00,98.41
3821.00,98.42
3820.00,98.42
3819.00,98.38
3818.00,98.35
3817.00,98.34
3816.00,98.35
3815.00,98.37
3814.00,98.37
3813.00,98.36
3812.00,98.37
3811.00,98.38
3810.00,98.38
3809.00,98.37
3808.00,98.36
3807.00,98.37
3806.00,98.38
3805.00,98.38
3804.00,98.37
3803.00,98.36
3802.00,98.36
3801.00,98.37
3800.00,98.36
3799.00,98.35
3798.00,98.34
3797.00,98.34
3796.00,98.35
3795.00,98.36
3794.00,98.36
3793.00,98.38
3792.00,98.40
3791.00,98.42
3790.00,98.42
3789.00,98.40
3788.00,98.37
3787.00,98.35
3786.00,98.34
3785.00,98.35
3784.00,98.37
3783.00,98.39
3782.00,98.39
3781.00,98.39
3780.00,98.38
3779.00,98.36
3778.00,98.34
3777.00,98.31
3776.00,98.30
3775.00,98.29
3774.00,98.30
3773.00,98.29
3772.00,98.29
3771.00,98.27
3770.00,98.26
3769.00,98.24
3768.00,98.23
3767.00,98.23
3766.00,98.23
3765.00,98.24
3764.00,98.24
3763.00,98.24
3762.00,98.24
3761.00,98.25
3760.00,98.27
3759.00,98.27
3758.00,98.27
3757.00,98.27
3756.00,98.28
3755.00,98.29
3754.00,98.29
3753.00,98.27
3752.00,98.24
3751.00,98.23
3750.00,98.25
3749.00,98.27
3748.00,98.27
3747.00,98.24
3746.00,98.21
3745.00,98.19
3744.00,98.19
3743.00,98.19
3742.00,98.18
3741.00,98.19
3740.00,98.22
3739.00,98.25
3738.00,98.26
3737.00,98.26
3736.00,98.24
3735.00,98.22
3734.00,98.21
3733.00,98.19
3732.00,98.18
3731.00,98.17
3730.00,98.16
3729.00,98.15
3728.00,98.16
3727.00,98.17
3726.00,98.17
3725.00,98.15
3724.00,98.13
3723.00,98.12
3722.00,98.13
3721.00,98.15
3720.00,98.17
3719.00,98.19
3718.00,98.21
3717.00,98.21
3716.00,98.19
3715.00,98.17
3714.00,98.14
3713.00,98.14
3712.00,98.14
3711.00,98.14
3710.00,98.12
3709.00,98.10
3708.00,98.09
3707.00,98.10
3706.00,98.11
3705.00,98.12
3704.00,98.13
3703.00,98.14
3702.00,98.15
3701.00,98.16
3700.00,98.17
3699.00,98.16
3698.00,98.14
3697.00,98.14
3696.00,98.14
3695.00,98.15
3694.00,98.15
3693.00,98.16
3692.00,98.15
3691.00,98.12
3690.00,98.08
3689.00,98.04
3688.00,98.02
3687.00,98.01
3686.00,98.02
3685.00,98.04
3684.00,98.07
3683.00,98.09
3682.00,98.09
3681.00,98.08
3680.00,98.07
3679.00,98.06
3678.00,98.05
3677.00,98.02
3676.00,98.00
3675.00,97.98
3674.00,97.97
3673.00,97.94
3672.00,97.93
3671.00,97.93
3670.00,97.94
3669.00,97.93
3668.00,97.91
3667.00,97.89
3666.00,97.89
3665.00,97.91
3664.00,97.93
3663.00,97.95
3662.00,97.96
3661.00,97.96
3660.00,97.95
3659.00,97.93
3658.00,97.89
3657.00,97.85
3656.00,97.82
3655.00,97.80
3654.00,97.77
3653.00,97.75
3652.00,97.74
3651.00,97.73
3650.00,97.73
3649.00,97.72
3648.00,97.72
3647.00,97.71
3646.00,97.71
3645.00,97.71
3644.00,97.72
3643.00,97.73
3642.00,97.75
3641.00,97.77
3640.00,97.78
3639.00,97.78
3638.00,97.77
3637.00,97.75
3636.00,97.73
3635.00,97.71
3634.00,97.70
3633.00,97.71
3632.00,97.72
3631.00,97.73
3630.00,97.74
3629.00,97.74
3628.00,97.74
3627.00,97.72
3626.00,97.71
3625.00,97.72
3624.00,97.74
3623.00,97.75
3622.00,97.77
3621.00,97.79
3620.00,97.80
3619.00,97.81
3618.00,97.80
3617.00,97.76
3616.00,97.73
3615.00,97.70
3614.00,97.69
3613.00,97.68
3612.00,97.67
3611.00,97.66
3610.00,97.68
3609.00,97.71
3608.00,97.75
3607.00,97.78
3606.00,97.80
3605.00,97.81
3604.00,97.82
3603.00,97.83
3602.00,97.84
3601.00,97.84
3600.00,97.83
3599.00,97.79
3598.00,97.75
3597.00,97.73
3596.00,97.73
3595.00,97.74
3594.00,97.74
3593.00,97.73
3592.00,97.72
3591.00,97.74
3590.00,97.78
3589.00,97.82
3588.00,97.84
3587.00,97.83
3586.00,97.81
3585.00,97.80
3584.00,97.81
3583.00,97.82
3582.00,97.82
3581.00,97.82
3580.00,97.81
3579.00,97.82
3578.00,97.84
3577.00,97.86
3576.00,97.87
3575.00,97.86
3574.00,97.83
3573.00,97.81
3572.00,97.79
3571.00,97.78
3570.00,97.76
3569.00,97.74
3568.00,97.72
3567.00,97.70
3566.00,97.70
3565.00,97.69
3564.00,97.69
3563.00,97.68
3562.00,97.66
3561.00,97.63
3560.00,97.61
3559.00,97.60
3558.00,97.61
3557.00,97.63
3556.00,97.65
3555.00,97.67
3554.00,97.67
3553.00,97.66
3552.00,97.64
3551.00,97.62
3550.00,97.60
3549.00,97.60
3548.00,97.61
3547.00,97.63
3546.00,97.65
3545.00,97.66
3544.00,97.67
3543.00,97.69
3542.00,97.70
3541.00,97.69
3540.00,97.66
3539.00,97.63
3538.00,97.61
3537.00,97.60
3536.00,97.61
3535.00,97.62
3534.00,97.64
3533.00,97.68
3532.00,97.72
3531.00,97.76
3530.00,97.78
3529.00,97.79
3528.00,97.79
3527.00,97.78
3526.00,97.77
3525.00,97.75
3524.00,97.75
3523.00,97.75
3522.00,97.74
3521.00,97.74
3520.00,97.73
3519.00,97.74
3518.00,97.77
3517.00,97.79
3516.00,97.80
3515.00,97.80
3514.00,97.80
3513.00,97.80
3512.00,97.82
3511.00,97.84
3510.00,97.86
3509.00,97.85
3508.00,97.83
3507.00,97.80
3506.00,97.78
3505.00,97.77
3504.00,97.76
3503.00,97.76
3502.00,97.76
3501.00,97.77
3500.00,97.79
3499.00,97.80
3498.00,97.80
3497.00,97.80
3496.00,97.81
3495.00,97.82
3494.00,97.83
3493.00,97.84
3492.00,97.85
3491.00,97.85
3490.00,97.85
3489.00,97.86
3488.00,97.85
3487.00,97.82
3486.00,97.79
3485.00,97.76
3484.00,97.74
3483.00,97.74
3482.00,97.74
3481.00,97.74
3480.00,97.75
3479.00,97.76
3478.00,97.76
3477.00,97.77
3476.00,97.78
3475.00,97.79
3474.00,97.79
3473.00,97.77
3472.00,97.75
3471.00,97.75
3470.00,97.75
3469.00,97.75
3468.00,97.73
3467.00,97.70
3466.00,97.68
3465.00,97.66
3464.00,97.67
3463.00,97.69
3462.00,97.71
3461.00,97.71
3460.00,97.70
3459.00,97.67
3458.00,97.64
3457.00,97.61
3456.00,97.59
3455.00,97.58
3454.00,97.58
3453.00,97.57
3452.00,97.56
3451.00,97.55
3450.00,97.53
3449.00,97.52
3448.00,97.51
3447.00,97.51
3446.00,97.48
3445.00,97.44
3444.00,97.40
3443.00,97.36
3442.00,97.35
3441.00,97.35
3440.00,97.36
3439.00,97.36
3438.00,97.34
3437.00,97.30
3436.00,97.25
3435.00,97.21
3434.00,97.18
3433.00,97.18
3432.00,97.19
3431.00,97.20
3430.00,97.22
3429.00,97.24
3428.00,97.26
3427.00,97.29
3426.00,97.33
3425.00,97.37
3424.00,97.40
3423.00,97.43
3422.00,97.46
3421.00,97.48
3420.00,97.49
3419.00,97.51
3418.00,97.52
3417.00,97.54
3416.00,97.56
3415.00,97.58
3414.00,97.59
3413.00,97.61
3412.00,97.64
3411.00,97.67
3410.00,97.68
3409.00,97.69
3408.00,97.68
3407.00,97.67
3406.00,97.65
3405.00,97.65
3404.00,97.66
3403.00,97.69
3402.00,97.73
3401.00,97.75
3400.00,97.77
3399.00,97.78
3398.00,97.78
3397.00,97.78
3396.00,97.77
3395.00,97.77
3394.00,97.79
3393.00,97.80
3392.00,97.80
3391.00,97.78
3390.00,97.76
3389.00,97.74
3388.00,97.76
3387.00,97.79
3386.00,97.82
3385.00,97.84
3384.00,97.83
3383.00,97.83
3382.00,97.82
3381.00,97.82
3380.00,97.81
3379.00,97.81
3378.00,97.81
3377.00,97.81
3376.00,97.81
3375.00,97.81
3374.00,97.82
3373.00,97.83
3372.00,97.85
3371.00,97.87
3370.00,97.88
3369.00,97.87
3368.00,97.85
3367.00,97.83
3366.00,97.82
3365.00,97.82
3364.00,97.83
3363.00,97.85
3362.00,97.86
3361.00,97.86
3360.00,97.85
3359.00,97.84
3358.00,97.84
3357.00,97.86
3356.00,97.87
3355.00,97.86
3354.00,97.85
3353.00,97.83
3352.00,97.82
3351.00,97.81
3350.00,97.81
3349.00,97.80
3348.00,97.80
3347.00,97.80
3346.00,97.81
3345.00,97.81
3344.00,97.81
3343.00,97.80
3342.00,97.79
3341.00,97.78
3340.00,97.78
3339.00,97.78
3338.00,97.78
3337.00,97.76
3336.00,97.74
3335.00,97.73
3334.00,97.74
3333.00,97.76
3332.00,97.78
3331.00,97.78
3330.00,97.77
3329.00,97.76
3328.00,97.76
3327.00,97.77
3326.00,97.79
3325.00,97.81
3324.00,97.81
3323.00,97.80
3322.00,97.78
3321.00,97.76
3320.00,97.76
3319.00,97.76
3318.00,97.77
3317.00,97.79
3316.00,97.81
3315.00,97.83
3314.00,97.84
3313.00,97.84
3312.00,97.83
3311.00,97.82
3310.00,97.82
3309.00,97.82
3308.00,97.82
3307.00,97.81
3306.00,97.81
3305.00,97.81
3304.00,97.81
3303.00,97.81
3302.00,97.80
3301.00,97.79
3300.00,97.79
3299.00,97.79
3298.00,97.80
3297.00,97.80
3296.00,97.80
3295.00,97.81
3294.00,97.82
3293.00,97.83
3292.00,97.84
3291.00,97.85
3290.00,97.85
3289.00,97.85
3288.00,97.85
3287.00,97.83
3286.00,97.81
3285.00,97.80
3284.00,97.79
3283.00,97.79
3282.00,97.80
3281.00,97.80
3280.00,97.80
3279.00,97.79
3278.00,97.78
3277.00,97.76
3276.00,97.75
3275.00,97.75
3274.00,97.78
3273.00,97.82
3272.00,97.86
3271.00,97.87
3270.00,97.86
3269.00,97.85
3268.00,97.84
3267.00,97.84
3266.00,97.84
3265.00,97.84
3264.00,97.83
3263.00,97.82
3262.00,97.82
3261.00,97.82
3260.00,97.82
3259.00,97.81
3258.00,97.79
3257.00,97.77
3256.00,97.77
3255.00,97.77
3254.00,97.78
3253.00,97.79
3252.00,97.80
3251.00,97.80
3250.00,97.80
3249.00,97.80
3248.00,97.80
3247.00,97.82
3246.00,97.83
3245.00,97.84
3244.00,97.85
3243.00,97.84
3242.00,97.82
3241.00,97.81
3240.00,97.81
3239.00,97.81
3238.00,97.81
3237.00,97.80
3236.00,97.79
3235.00,97.77
3234.00,97.75
3233.00,97.74
3232.00,97.74
3231.00,97.75
3230.00,97.77
3229.00,97.79
3228.00,97.80
3227.00,97.81
3226.00,97.81
3225.00,97.80
3224.00,97.79
3223.00,97.77
3222.00,97.74
3221.00,97.72
3220.00,97.71
3219.00,97.72
3218.00,97.74
3217.00,97.77
3216.00,97.80
3215.00,97.81
3214.00,97.81
3213.00,97.79
3212.00,97.78
3211.00,97.77
3210.00,97.77
3209.00,97.78
3208.00,97.79
3207.00,97.80
3206.00,97.80
3205.00,97.80
3204.00,97.80
3203.00,97.79
3202.00,97.79
3201.00,97.78
3200.00,97.77
3199.00,97.78
3198.00,97.78
3197.00,97.79
3196.00,97.78
3195.00,97.76
3194.00,97.73
3193.00,97.71
3192.00,97.70
3191.00,97.70
3190.00,97.72
3189.00,97.74
3188.00,97.75
3187.00,97.76
3186.00,97.77
3185.00,97.77
3184.00,97.78
3183.00,97.79
3182.00,97.81
3181.00,97.83
3180.00,97.83
3179.00,97.82
3178.00,97.79
3177.00,97.76
3176.00,97.74
3175.00,97.73
3174.00,97.74
3173.00,97.75
3172.00,97.76
3171.00,97.76
3170.00,97.75
3169.00,97.74
3168.00,97.72
3167.00,97.71
3166.00,97.71
3165.00,97.71
3164.00,97.72
3163.00,97.74
3162.00,97.76
3161.00,97.78
3160.00,97.79
3159.00,97.79
3158.00,97.79
3157.00,97.79
3156.00,97.78
3155.00,97.78
3154.00,97.78
3153.00,97.77
3152.00,97.77
3151.00,97.77
3150.00,97.76
3149.00,97.76
3148.00,97.76
3147.00,97.75
3146.00,97.75
3145.00,97.74
3144.00,97.73
3143.00,97.71
3142.00,97.70
3141.00,97.69
3140.00,97.69
3139.00,97.70
3138.00,97.70
3137.00,97.70
3136.00,97.70
3135.00,97.70
3134.00,97.68
3133.00,97.67
3132.00,97.64
3131.00,97.62
3130.00,97.61
3129.00,97.61
3128.00,97.62
3127.00,97.64
3126.00,97.66
3125.00,97.66
3124.00,97.66
3123.00,97.66
3122.00,97.65
3121.00,97.65
3120.00,97.64
3119.00,97.62
3118.00,97.60
3117.00,97.60
3116.00,97.62
3115.00,97.63
3114.00,97.62
3113.00,97.58
3112.00,97.53
3111.00,97.48
3110.00,97.43
3109.00,97.41
3108.00,97.41
3107.00,97.41
3106.00,97.42
3105.00,97.42
3104.00,97.41
3103.00,97.40
3102.00,97.40
3101.00,97.41
3100.00,97.42
3099.00,97.44
3098.00,97.47
3097.00,97.50
3096.00,97.52
3095.00,97.51
3094.00,97.50
3093.00,97.48
3092.00,97.47
3091.00,97.46
3090.00,97.45
3089.00,97.44
3088.00,97.44
3087.00,97.43
3086.00,97.42
3085.00,97.41
3084.00,97.39
3083.00,97.38
3082.00,97.37
3081.00,97.35
3080.00,97.33
3079.00,97.31
3078.00,97.30
3077.00,97.31
3076.00,97.32
3075.00,97.33
3074.00,97.33
3073.00,97.32
3072.00,97.31
3071.00,97.31
3070.00,97.31
3069.00,97.30
3068.00,97.30
3067.00,97.31
3066.00,97.30
3065.00,97.29
3064.00,97.27
3063.00,97.26
3062.00,97.27
3061.00,97.28
3060.00,97.29
3059.00,97.29
3058.00,97.28
3057.00,97.26
3056.00,97.25
3055.00,97.24
3054.00,97.23
3053.00,97.24
3052.00,97.26
3051.00,97.30
3050.00,97.36
3049.00,97.42
3048.00,97.46
3047.00,97.49
3046.00,97.50
3045.00,97.51
3044.00,97.53
3043.00,97.56
3042.00,97.58
3041.00,97.61
3040.00,97.62
3039.00,97.63
3038.00,97.63
3037.00,97.63
3036.00,97.62
3035.00,97.61
3034.00,97.60
3033.00,97.59
3032.00,97.59
3031.00,97.57
3030.00,97.56
3029.00,97.55
3028.00,97.54
3027.00,97.52
3026.00,97.49
3025.00,97.45
3024.00,97.40
3023.00,97.35
3022.00,97.31
3021.00,97.30
3020.00,97.29
3019.00,97.28
3018.00,97.25
3017.00,97.20
3016.00,97.15
3015.00,97.12
3014.00,97.09
3013.00,97.08
3012.00,97.07
3011.00,97.06
3010.00,97.05
3009.00,97.03
3008.00,96.99
3007.00,96.94
3006.00,96.89
3005.00,96.85
3004.00,96.81
3003.00,96.78
3002.00,96.76
3001.00,96.74
3000.00,96.73
2999.00,96.72
2998.00,96.70
2997.00,96.69
2996.00,96.68
2995.00,96.67
2994.00,96.65
2993.00,96.62
2992.00,96.58
2991.00,96.54
2990.00,96.49
2989.00,96.45
2988.00,96.41
2987.00,96.37
2986.00,96.33
2985.00,96.28
2984.00,96.21
2983.00,96.13
2982.00,96.05
2981.00,95.98
2980.00,95.91
2979.00,95.83
2978.00,95.75
2977.00,95.66
2976.00,95.56
2975.00,95.47
2974.00,95.39
2973.00,95.31
2972.00,95.24
2971.00,95.17
2970.00,95.12
2969.00,95.08
2968.00,95.07
2967.00,95.07
2966.00,95.09
2965.00,95.11
2964.00,95.13
2963.00,95.15
2962.00,95.17
2961.00,95.19
2960.00,95.21
2959.00,95.23
2958.00,95.25
2957.00,95.28
2956.00,95.33
2955.00,95.41
2954.00,95.49
2953.00,95.58
2952.00,95.66
2951.00,95.73
2950.00,95.81
2949.00,95.88
2948.00,95.94
2947.00,95.98
2946.00,96.02
2945.00,96.06
2944.00,96.11
2943.00,96.16
2942.00,96.20
2941.00,96.22
2940.00,96.24
2939.00,96.24
2938.00,96.24
2937.00,96.24
2936.00,96.24
2935.00,96.24
2934.00,96.23
2933.00,96.20
2932.00,96.16
2931.00,96.11
2930.00,96.06
2929.00,96.02
2928.00,95.98
2927.00,95.93
2926.00,95.87
2925.00,95.77
2924.00,95.66
2923.00,95.55
2922.00,95.46
2921.00,95.37
2920.00,95.31
2919.00,95.27
2918.00,95.24
2917.00,95.22
2916.00,95.22
2915.00,95.25
2914.00,95.29
2913.00,95.34
2912.00,95.38
2911.00,95.42
2910.00,95.45
2909.00,95.47
2908.00,95.48
2907.00,95.49
2906.00,95.52
2905.00,95.56
2904.00,95.61
2903.00,95.67
2902.00,95.72
2901.00,95.77
2900.00,95.82
2899.00,95.86
2898.00,95.88
2897.00,95.89
2896.00,95.89
2895.00,95.89
2894.00,95.90
2893.00,95.90
2892.00,95.91
2891.00,95.92
2890.00,95.93
2889.00,95.96
2888.00,96.00
2887.00,96.03
2886.00,96.07
2885.00,96.09
2884.00,96.11
2883.00,96.11
2882.00,96.11
2881.00,96.13
2880.00,96.15
2879.00,96.18
2878.00,96.21
2877.00,96.24
2876.00,96.27
2875.00,96.30
2874.00,96.32
2873.00,96.33
2872.00,96.33
2871.00,96.33
2870.00,96.33
2869.00,96.35
2868.00,96.36
2867.00,96.36
2866.00,96.35
2865.00,96.34
2864.00,96.33
2863.00,96.32
2862.00,96.32
2861.00,96.31
2860.00,96.29
2859.00,96.27
2858.00,96.26
2857.00,96.25
2856.00,96.23
2855.00,96.19
2854.00,96.15
2853.00,96.10
2852.00,96.07
2851.00,96.06
2850.00,96.08
2849.00,96.15
2848.00,96.26
2847.00,96.40
2846.00,96.55
2845.00,96.70
2844.00,96.83
2843.00,96.93
2842.00,97.01
2841.00,97.07
2840.00,97.11
2839.00,97.14
2838.00,97.16
2837.00,97.18
2836.00,97.19
2835.00,97.22
2834.00,97.24
2833.00,97.27
2832.00,97.30
2831.00,97.32
2830.00,97.33
2829.00,97.35
2828.00,97.36
2827.00,97.37
2826.00,97.39
2825.00,97.40
2824.00,97.41
2823.00,97.41
2822.00,97.41
2821.00,97.42
2820.00,97.43
2819.00,97.44
2818.00,97.43
2817.00,97.43
2816.00,97.42
2815.00,97.43
2814.00,97.43
2813.00,97.43
2812.00,97.43
2811.00,97.42
2810.00,97.42
2809.00,97.41
2808.00,97.41
2807.00,97.41
2806.00,97.42
2805.00,97.43
2804.00,97.45
2803.00,97.47
2802.00,97.48
2801.00,97.49
2800.00,97.50
2799.00,97.51
2798.00,97.53
2797.00,97.54
2796.00,97.54
2795.00,97.55
2794.00,97.55
2793.00,97.57
2792.00,97.60
2791.00,97.62
2790.00,97.63
2789.00,97.62
2788.00,97.62
2787.00,97.62
2786.00,97.62
2785.00,97.62
2784.00,97.63
2783.00,97.63
2782.00,97.63
2781.00,97.64
2780.00,97.65
2779.00,97.66
2778.00,97.68
2777.00,97.68
2776.00,97.69
2775.00,97.68
2774.00,97.69
2773.00,97.69
2772.00,97.70
2771.00,97.70
2770.00,97.71
2769.00,97.71
2768.00,97.71
2767.00,97.71
2766.00,97.72
2765.00,97.73
2764.00,97.74
2763.00,97.76
2762.00,97.76
2761.00,97.76
2760.00,97.75
2759.00,97.75
2758.00,97.75
2757.00,97.76
2756.00,97.76
2755.00,97.76
2754.00,97.76
2753.00,97.76
2752.00,97.75
2751.00,97.75
2750.00,97.73
2749.00,97.72
2748.00,97.71
2747.00,97.70
2746.00,97.71
2745.00,97.73
2744.00,97.74
2743.00,97.74
2742.00,97.73
2741.00,97.72
2740.00,97.71
2739.00,97.70
2738.00,97.70
2737.00,97.70
2736.00,97.72
2735.00,97.73
2734.00,97.75
2733.00,97.76
2732.00,97.76
2731.00,97.77
2730.00,97.77
2729.00,97.77
2728.00,97.78
2727.00,97.78
2726.00,97.78
2725.00,97.78
2724.00,97.78
2723.00,97.79
2722.00,97.81
2721.00,97.83
2720.00,97.84
2719.00,97.84
2718.00,97.83
2717.00,97.82
2716.00,97.82
2715.00,97.84
2714.00,97.85
2713.00,97.86
2712.00,97.85
2711.00,97.84
2710.00,97.83
2709.00,97.83
2708.00,97.84
2707.00,97.85
2706.00,97.86
2705.00,97.87
2704.00,97.87
2703.00,97.87
2702.00,97.87
2701.00,97.86
2700.00,97.86
2699.00,97.85
2698.00,97.85
2697.00,97.85
2696.00,97.86
2695.00,97.86
2694.00,97.86
2693.00,97.86
2692.00,97.87
2691.00,97.87
2690.00,97.87
2689.00,97.87
2688.00,97.86
2687.00,97.86
2686.00,97.87
2685.00,97.87
2684.00,97.88
2683.00,97.87
2682.00,97.86
2681.00,97.85
2680.00,97.85
2679.00,97.86
2678.00,97.87
2677.00,97.87
2676.00,97.86
2675.00,97.85
2674.00,97.84
2673.00,97.84
2672.00,97.84
2671.00,97.84
2670.00,97.85
2669.00,97.86
2668.00,97.88
2667.00,97.89
2666.00,97.91
2665.00,97.91
2664.00,97.91
2663.00,97.89
2662.00,97.86
2661.00,97.84
2660.00,97.81
2659.00,97.79
2658.00,97.79
2657.00,97.79
2656.00,97.78
2655.00,97.77
2654.00,97.76
2653.00,97.75
2652.00,97.74
2651.00,97.74
2650.00,97.73
2649.00,97.73
2648.00,97.72
2647.00,97.71
2646.00,97.70
2645.00,97.69
2644.00,97.68
2643.00,97.68
2642.00,97.66
2641.00,97.64
2640.00,97.62
2639.00,97.59
2638.00,97.58
2637.00,97.57
2636.00,97.56
2635.00,97.56
2634.00,97.55
2633.00,97.54
2632.00,97.52
2631.00,97.50
2630.00,97.49
2629.00,97.49
2628.00,97.49
2627.00,97.48
2626.00,97.48
2625.00,97.48
2624.00,97.49
2623.00,97.48
2622.00,97.48
2621.00,97.47
2620.00,97.47
2619.00,97.48
2618.00,97.47
2617.00,97.46
2616.00,97.43
2615.00,97.40
2614.00,97.39
2613.00,97.39
2612.00,97.40
2611.00,97.41
2610.00,97.42
2609.00,97.42
2608.00,97.42
2607.00,97.41
2606.00,97.39
2605.00,97.37
2604.00,97.35
2603.00,97.35
2602.00,97.36
2601.00,97.36
2600.00,97.36
2599.00,97.35
2598.00,97.32
2597.00,97.30
2596.00,97.28
2595.00,97.27
2594.00,97.27
2593.00,97.26
2592.00,97.24
2591.00,97.21
2590.00,97.19
2589.00,97.18
2588.00,97.19
2587.00,97.21
2586.00,97.24
2585.00,97.25
2584.00,97.24
2583.00,97.23
2582.00,97.21
2581.00,97.20
2580.00,97.19
2579.00,97.17
2578.00,97.15
2577.00,97.15
2576.00,97.14
2575.00,97.14
2574.00,97.14
2573.00,97.13
2572.00,97.13
2571.00,97.14
2570.00,97.15
2569.00,97.16
2568.00,97.16
2567.00,97.15
2566.00,97.13
2565.00,97.12
2564.00,97.13
2563.00,97.15
2562.00,97.17
2561.00,97.17
2560.00,97.16
2559.00,97.14
2558.00,97.13
2557.00,97.12
2556.00,97.12
2555.00,97.11
2554.00,97.10
2553.00,97.08
2552.00,97.06
2551.00,97.05
2550.00,97.05
2549.00,97.07
2548.00,97.09
2547.00,97.10
2546.00,97.10
2545.00,97.10
2544.00,97.10
2543.00,97.09
2542.00,97.08
2541.00,97.08
2540.00,97.06
2539.00,97.05
2538.00,97.04
2537.00,97.04
2536.00,97.05
2535.00,97.07
2534.00,97.08
2533.00,97.08
2532.00,97.08
2531.00,97.08
2530.00,97.09
2529.00,97.11
2528.00,97.11
2527.00,97.10
2526.00,97.10
2525.00,97.10
2524.00,97.11
2523.00,97.12
2522.00,97.11
2521.00,97.10
2520.00,97.08
2519.00,97.07
2518.00,97.07
2517.00,97.07
2516.00,97.09
2515.00,97.12
2514.00,97.15
2513.00,97.18
2512.00,97.19
2511.00,97.17
2510.00,97.14
2509.00,97.12
2508.00,97.12
2507.00,97.14
2506.00,97.16
2505.00,97.17
2504.00,97.18
2503.00,97.17
2502.00,97.15
2501.00,97.13
2500.00,97.13
2499.00,97.15
2498.00,97.18
2497.00,97.20
2496.00,97.19
2495.00,97.17
2494.00,97.16
2493.00,97.16
2492.00,97.16
2491.00,97.15
2490.00,97.13
2489.00,97.12
2488.00,97.14
2487.00,97.16
2486.00,97.19
2485.00,97.21
2484.00,97.22
2483.00,97.21
2482.00,97.20
2481.00,97.18
2480.00,97.16
2479.00,97.16
2478.00,97.18
2477.00,97.20
2476.00,97.22
2475.00,97.24
2474.00,97.25
2473.00,97.26
2472.00,97.26
2471.00,97.25
2470.00,97.24
2469.00,97.24
2468.00,97.25
2467.00,97.26
2466.00,97.26
2465.00,97.26
2464.00,97.26
2463.00,97.26
2462.00,97.27
2461.00,97.28
2460.00,97.28
2459.00,97.28
2458.00,97.28
2457.00,97.27
2456.00,97.28
2455.00,97.28
2454.00,97.29
2453.00,97.29
2452.00,97.29
2451.00,97.28
2450.00,97.27
2449.00,97.26
2448.00,97.26
2447.00,97.28
2446.00,97.29
2445.00,97.29
2444.00,97.27
2443.00,97.25
2442.00,97.24
2441.00,97.24
2440.00,97.24
2439.00,97.23
2438.00,97.22
2437.00,97.21
2436.00,97.21
2435.00,97.20
2434.00,97.19
2433.00,97.19
2432.00,97.18
2431.00,97.19
2430.00,97.20
2429.00,97.22
2428.00,97.24
2427.00,97.24
2426.00,97.23
2425.00,97.23
2424.00,97.24
2423.00,97.24
2422.00,97.25
2421.00,97.25
2420.00,97.26
2419.00,97.26
2418.00,97.25
2417.00,97.24
2416.00,97.23
2415.00,97.21
2414.00,97.20
2413.00,97.19
2412.00,97.19
2411.00,97.20
2410.00,97.21
2409.00,97.22
2408.00,97.24
2407.00,97.26
2406.00,97.26
2405.00,97.26
2404.00,97.27
2403.00,97.28
2402.00,97.29
2401.00,97.29
2400.00,97.27
2399.00,97.26
2398.00,97.23
2397.00,97.22
2396.00,97.23
2395.00,97.25
2394.00,97.28
2393.00,97.30
2392.00,97.30
2391.00,97.29
2390.00,97.28
2389.00,97.29
2388.00,97.30
2387.00,97.31
2386.00,97.32
2385.00,97.33
2384.00,97.36
2383.00,97.39
2382.00,97.41
2381.00,97.42
2380.00,97.43
2379.00,97.45
2378.00,97.48
2377.00,97.51
2376.00,97.52
2375.00,97.52
2374.00,97.52
2373.00,97.51
2372.00,97.49
2371.00,97.47
2370.00,97.47
2369.00,97.52
2368.00,97.60
2367.00,97.69
2366.00,97.76
2365.00,97.79
2364.00,97.78
2363.00,97.72
2362.00,97.62
2361.00,97.53
2360.00,97.49
2359.00,97.48
2358.00,97.48
2357.00,97.47
2356.00,97.46
2355.00,97.48
2354.00,97.54
2353.00,97.62
2352.00,97.68
2351.00,97.70
2350.00,97.68
2349.00,97.67
2348.00,97.69
2347.00,97.77
2346.00,97.86
2345.00,97.92
2344.00,97.91
2343.00,97.85
2342.00,97.78
2341.00,97.74
2340.00,97.72
2339.00,97.71
2338.00,97.70
2337.00,97.70
2336.00,97.71
2335.00,97.70
2334.00,97.64
2333.00,97.58
2332.00,97.55
2331.00,97.59
2330.00,97.65
2329.00,97.68
2328.00,97.66
2327.00,97.57
2326.00,97.46
2325.00,97.39
2324.00,97.38
2323.00,97.43
2322.00,97.49
2321.00,97.53
2320.00,97.53
2319.00,97.51
2318.00,97.49
2317.00,97.48
2316.00,97.48
2315.00,97.49
2314.00,97.51
2313.00,97.53
2312.00,97.54
2311.00,97.52
2310.00,97.48
2309.00,97.43
2308.00,97.38
2307.00,97.33
2306.00,97.29
2305.00,97.27
2304.00,97.25
2303.00,97.24
2302.00,97.23
2301.00,97.21
2300.00,97.20
2299.00,97.17
2298.00,97.14
2297.00,97.12
2296.00,97.10
2295.00,97.10
2294.00,97.08
2293.00,97.03
2292.00,96.97
2291.00,96.92
2290.00,96.89
2289.00,96.87
2288.00,96.83
2287.00,96.79
2286.00,96.74
2285.00,96.71
2284.00,96.69
2283.00,96.70
2282.00,96.70
2281.00,96.69
2280.00,96.67
2279.00,96.64
2278.00,96.62
2277.00,96.61
2276.00,96.62
2275.00,96.65
2274.00,96.67
2273.00,96.68
2272.00,96.67
2271.00,96.65
2270.00,96.64
2269.00,96.65
2268.00,96.67
2267.00,96.67
2266.00,96.65
2265.00,96.60
2264.00,96.56
2263.00,96.55
2262.00,96.56
2261.00,96.56
2260.00,96.52
2259.00,96.46
2258.00,96.39
2257.00,96.36
2256.00,96.35
2255.00,96.37
2254.00,96.40
2253.00,96.43
2252.00,96.47
2251.00,96.48
2250.00,96.47
2249.00,96.43
2248.00,96.38
2247.00,96.34
2246.00,96.32
2245.00,96.30
2244.00,96.29
2243.00,96.30
2242.00,96.33
2241.00,96.34
2240.00,96.31
2239.00,96.26
2238.00,96.22
2237.00,96.21
2236.00,96.23
2235.00,96.24
2234.00,96.23
2233.00,96.20
2232.00,96.16
2231.00,96.14
2230.00,96.16
2229.00,96.21
2228.00,96.25
2227.00,96.26
2226.00,96.26
2225.00,96.25
2224.00,96.23
2223.00,96.20
2222.00,96.17
2221.00,96.15
2220.00,96.12
2219.00,96.08
2218.00,96.02
2217.00,95.96
2216.00,95.92
2215.00,95.91
2214.00,95.93
2213.00,95.95
2212.00,95.97
2211.00,95.99
2210.00,96.03
2209.00,96.08
2208.00,96.11
2207.00,96.08
2206.00,96.02
2205.00,95.95
2204.00,95.91
2203.00,95.89
2202.00,95.88
2201.00,95.88
2200.00,95.88
2199.00,95.90
2198.00,95.95
2197.00,96.02
2196.00,96.08
2195.00,96.08
2194.00,96.01
2193.00,95.91
2192.00,95.84
2191.00,95.81
2190.00,95.80
2189.00,95.77
2188.00,95.73
2187.00,95.66
2186.00,95.59
2185.00,95.52
2184.00,95.48
2183.00,95.47
2182.00,95.48
2181.00,95.50
2180.00,95.53
2179.00,95.57
2178.00,95.61
2177.00,95.63
2176.00,95.63
2175.00,95.62
2174.00,95.59
2173.00,95.54
2172.00,95.47
2171.00,95.39
2170.00,95.30
2169.00,95.20
2168.00,95.15
2167.00,95.17
2166.00,95.23
2165.00,95.26
2164.00,95.21
2163.00,95.07
2162.00,94.91
2161.00,94.83
2160.00,94.91
2159.00,95.11
2158.00,95.36
2157.00,95.56
2156.00,95.70
2155.00,95.77
2154.00,95.80
2153.00,95.80
2152.00,95.77
2151.00,95.73
2150.00,95.70
2149.00,95.70
2148.00,95.74
2147.00,95.82
2146.00,95.89
2145.00,95.94
2144.00,95.96
2143.00,95.98
2142.00,96.00
2141.00,96.02
2140.00,96.05
2139.00,96.09
2138.00,96.15
2137.00,96.23
2136.00,96.33
2135.00,96.41
2134.00,96.48
2133.00,96.52
2132.00,96.55
2131.00,96.59
2130.00,96.61
2129.00,96.62
2128.00,96.61
2127.00,96.60
2126.00,96.60
2125.00,96.61
2124.00,96.64
2123.00,96.67
2122.00,96.68
2121.00,96.68
2120.00,96.64
2119.00,96.59
2118.00,96.54
2117.00,96.48
2116.00,96.43
2115.00,96.39
2114.00,96.36
2113.00,96.35
2112.00,96.36
2111.00,96.38
2110.00,96.38
2109.00,96.37
2108.00,96.36
2107.00,96.37
2106.00,96.40
2105.00,96.43
2104.00,96.45
2103.00,96.47
2102.00,96.47
2101.00,96.44
2100.00,96.41
2099.00,96.37
2098.00,96.36
2097.00,96.37
2096.00,96.40
2095.00,96.44
2094.00,96.47
2093.00,96.48
2092.00,96.48
2091.00,96.47
2090.00,96.45
2089.00,96.44
2088.00,96.45
2087.00,96.46
2086.00,96.45
2085.00,96.42
2084.00,96.38
2083.00,96.35
2082.00,96.33
2081.00,96.32
2080.00,96.30
2079.00,96.30
2078.00,96.32
2077.00,96.33
2076.00,96.33
2075.00,96.32
2074.00,96.34
2073.00,96.38
2072.00,96.41
2071.00,96.39
2070.00,96.35
2069.00,96.31
2068.00,96.29
2067.00,96.29
2066.00,96.31
2065.00,96.34
2064.00,96.39
2063.00,96.44
2062.00,96.46
2061.00,96.46
2060.00,96.43
2059.00,96.40
2058.00,96.38
2057.00,96.37
2056.00,96.35
2055.00,96.34
2054.00,96.30
2053.00,96.26
2052.00,96.22
2051.00,96.18
2050.00,96.16
2049.00,96.14
2048.00,96.12
2047.00,96.07
2046.00,96.00
2045.00,95.95
2044.00,95.97
2043.00,96.00
2042.00,96.01
2041.00,95.94
2040.00,95.84
2039.00,95.74
2038.00,95.65
2037.00,95.59
2036.00,95.57
2035.00,95.61
2034.00,95.66
2033.00,95.69
2032.00,95.68
2031.00,95.67
2030.00,95.70
2029.00,95.76
2028.00,95.83
2027.00,95.87
2026.00,95.84
2025.00,95.77
2024.00,95.68
2023.00,95.63
2022.00,95.62
2021.00,95.64
2020.00,95.68
2019.00,95.72
2018.00,95.76
2017.00,95.79
2016.00,95.79
2015.00,95.75
2014.00,95.72
2013.00,95.72
2012.00,95.74
2011.00,95.76
2010.00,95.79
2009.00,95.83
2008.00,95.87
2007.00,95.93
2006.00,95.99
2005.00,96.03
2004.00,96.05
2003.00,96.02
2002.00,95.98
2001.00,95.94
2000.00,95.92
1999.00,95.93
1998.00,95.96
1997.00,95.99
1996.00,96.00
1995.00,96.00
1994.00,95.96
1993.00,95.89
1992.00,95.80
1991.00,95.72
1990.00,95.67
1989.00,95.66
1988.00,95.67
1987.00,95.66
1986.00,95.64
1985.00,95.61
1984.00,95.58
1983.00,95.55
1982.00,95.50
1981.00,95.40
1980.00,95.29
1979.00,95.23
1978.00,95.23
1977.00,95.26
1976.00,95.30
1975.00,95.32
1974.00,95.33
1973.00,95.34
1972.00,95.36
1971.00,95.41
1970.00,95.46
1969.00,95.51
1968.00,95.54
1967.00,95.59
1966.00,95.64
1965.00,95.68
1964.00,95.67
1963.00,95.64
1962.00,95.60
1961.00,95.57
1960.00,95.56
1959.00,95.59
1958.00,95.66
1957.00,95.73
1956.00,95.78
1955.00,95.82
1954.00,95.86
1953.00,95.89
1952.00,95.90
1951.00,95.91
1950.00,95.95
1949.00,96.02
1948.00,96.09
1947.00,96.14
1946.00,96.17
1945.00,96.19
1944.00,96.20
1943.00,96.19
1942.00,96.20
1941.00,96.21
1940.00,96.24
1939.00,96.29
1938.00,96.36
1937.00,96.44
1936.00,96.49
1935.00,96.52
1934.00,96.54
1933.00,96.58
1932.00,96.63
1931.00,96.69
1930.00,96.73
1929.00,96.75
1928.00,96.76
1927.00,96.78
1926.00,96.83
1925.00,96.90
1924.00,96.95
1923.00,96.98
1922.00,97.01
1921.00,97.04
1920.00,97.08
1919.00,97.10
1918.00,97.10
1917.00,97.09
1916.00,97.09
1915.00,97.10
1914.00,97.10
1913.00,97.09
1912.00,97.08
1911.00,97.08
1910.00,97.11
1909.00,97.16
1908.00,97.19
1907.00,97.22
1906.00,97.23
1905.00,97.23
1904.00,97.23
1903.00,97.22
1902.00,97.21
1901.00,97.21
1900.00,97.22
1899.00,97.27
1898.00,97.34
1897.00,97.41
1896.00,97.46
1895.00,97.49
1894.00,97.50
1893.00,97.50
1892.00,97.50
1891.00,97.49
1890.00,97.49
1889.00,97.49
1888.00,97.49
1887.00,97.49
1886.00,97.49
1885.00,97.50
1884.00,97.50
1883.00,97.51
1882.00,97.53
1881.00,97.57
1880.00,97.59
1879.00,97.60
1878.00,97.59
1877.00,97.57
1876.00,97.54
1875.00,97.51
1874.00,97.49
1873.00,97.50
1872.00,97.53
1871.00,97.55
1870.00,97.57
1869.00,97.58
1868.00,97.58
1867.00,97.58
1866.00,97.57
1865.00,97.55
1864.00,97.54
1863.00,97.53
1862.00,97.54
1861.00,97.56
1860.00,97.55
1859.00,97.53
1858.00,97.49
1857.00,97.47
1856.00,97.47
1855.00,97.48
1854.00,97.49
1853.00,97.50
1852.00,97.50
1851.00,97.47
1850.00,97.43
1849.00,97.39
1848.00,97.37
1847.00,97.37
1846.00,97.37
1845.00,97.38
1844.00,97.38
1843.00,97.38
1842.00,97.39
1841.00,97.38
1840.00,97.34
1839.00,97.30
1838.00,97.26
1837.00,97.23
1836.00,97.22
1835.00,97.21
1834.00,97.21
1833.00,97.21
1832.00,97.20
1831.00,97.16
1830.00,97.13
1829.00,97.11
1828.00,97.11
1827.00,97.12
1826.00,97.13
1825.00,97.14
1824.00,97.16
1823.00,97.15
1822.00,97.13
1821.00,97.09
1820.00,97.06
1819.00,97.06
1818.00,97.09
1817.00,97.13
1816.00,97.15
1815.00,97.15
1814.00,97.14
1813.00,97.14
1812.00,97.15
1811.00,97.16
1810.00,97.17
1809.00,97.17
1808.00,97.18
1807.00,97.18
1806.00,97.17
1805.00,97.18
1804.00,97.19
1803.00,97.23
1802.00,97.27
1801.00,97.32
1800.00,97.35
1799.00,97.35
1798.00,97.33
1797.00,97.31
1796.00,97.30
1795.00,97.29
1794.00,97.27
1793.00,97.26
1792.00,97.25
1791.00,97.26
1790.00,97.27
1789.00,97.28
1788.00,97.26
1787.00,97.24
1786.00,97.23
1785.00,97.23
1784.00,97.23
1783.00,97.21
1782.00,97.19
1781.00,97.18
1780.00,97.18
1779.00,97.18
1778.00,97.17
1777.00,97.15
1776.00,97.11
1775.00,97.08
1774.00,97.04
1773.00,97.00
1772.00,96.97
1771.00,96.95
1770.00,96.94
1769.00,96.94
1768.00,96.92
1767.00,96.88
1766.00,96.84
1765.00,96.80
1764.00,96.74
1763.00,96.66
1762.00,96.56
1761.00,96.47
1760.00,96.39
1759.00,96.29
1758.00,96.17
1757.00,96.02
1756.00,95.84
1755.00,95.64
1754.00,95.43
1753.00,95.21
1752.00,94.91
1751.00,94.52
1750.00,94.02
1749.00,93.43
1748.00,92.74
1747.00,91.94
1746.00,91.06
1745.00,90.09
1744.00,89.01
1743.00,87.83
1742.00,86.56
1741.00,85.17
1740.00,83.62
1739.00,82.08
1738.00,80.78
1737.00,79.71
1736.00,78.56
1735.00,76.96
1734.00,74.99
1733.00,73.25
1732.00,71.94
1731.00,70.72
1730.00,69.38
1729.00,67.97
1728.00,66.59
1727.00,65.25
1726.00,63.92
1725.00,62.59
1724.00,61.23
1723.00,59.88
1722.00,58.62
1721.00,57.50
1720.00,56.41
1719.00,55.10
1718.00,53.52
1717.00,52.09
1716.00,51.11
1715.00,50.47
1714.00,50.07
1713.00,50.01
1712.00,50.33
1711.00,50.94
1710.00,51.82
1709.00,53.00
1708.00,54.48
1707.00,56.23
1706.00,58.21
1705.00,60.28
1704.00,62.19
1703.00,63.85
1702.00,65.50
1701.00,67.46
1700.00,69.57
1699.00,71.27
1698.00,72.54
1697.00,73.70
1696.00,74.95
1695.00,76.14
1694.00,77.11
1693.00,77.89
1692.00,78.59
1691.00,79.25
1690.00,79.89
1689.00,80.48
1688.00,80.98
1687.00,81.40
1686.00,81.77
1685.00,82.13
1684.00,82.54
1683.00,82.96
1682.00,83.38
1681.00,83.79
1680.00,84.22
1679.00,84.64
1678.00,85.05
1677.00,85.44
1676.00,85.84
1675.00,86.24
1674.00,86.63
1673.00,86.97
1672.00,87.29
1671.00,87.59
1670.00,87.92
1669.00,88.28
1668.00,88.65
1667.00,89.00
1666.00,89.33
1665.00,89.64
1664.00,89.95
1663.00,90.26
1662.00,90.55
1661.00,90.82
1660.00,91.05
1659.00,91.27
1658.00,91.46
1657.00,91.65
1656.00,91.84
1655.00,92.03
1654.00,92.22
1653.00,92.41
1652.00,92.58
1651.00,92.71
1650.00,92.78
1649.00,92.80
1648.00,92.84
1647.00,92.92
1646.00,93.04
1645.00,93.16
1644.00,93.26
1643.00,93.34
1642.00,93.40
1641.00,93.44
1640.00,93.48
1639.00,93.53
1638.00,93.58
1637.00,93.63
1636.00,93.69
1635.00,93.74
1634.00,93.79
1633.00,93.84
1632.00,93.88
1631.00,93.91
1630.00,93.94
1629.00,93.98
1628.00,94.04
1627.00,94.11
1626.00,94.19
1625.00,94.26
1624.00,94.31
1623.00,94.34
1622.00,94.34
1621.00,94.33
1620.00,94.30
1619.00,94.23
1618.00,94.14
1617.00,94.02
1616.00,93.92
1615.00,93.88
1614.00,93.88
1613.00,93.89
1612.00,93.92
1611.00,94.00
1610.00,94.12
1609.00,94.24
1608.00,94.38
1607.00,94.51
1606.00,94.65
1605.00,94.78
1604.00,94.91
1603.00,95.04
1602.00,95.16
1601.00,95.25
1600.00,95.32
1599.00,95.38
1598.00,95.42
1597.00,95.47
1596.00,95.51
1595.00,95.56
1594.00,95.59
1593.00,95.61
1592.00,95.61
1591.00,95.60
1590.00,95.58
1589.00,95.55
1588.00,95.50
1587.00,95.43
1586.00,95.30
1585.00,95.10
1584.00,94.85
1583.00,94.55
1582.00,94.22
1581.00,93.91
1580.00,93.65
1579.00,93.50
1578.00,93.47
1577.00,93.59
1576.00,93.84
1575.00,94.15
1574.00,94.44
1573.00,94.68
1572.00,94.88
1571.00,95.07
1570.00,95.27
1569.00,95.46
1568.00,95.63
1567.00,95.74
1566.00,95.82
1565.00,95.88
1564.00,95.94
1563.00,96.01
1562.00,96.09
1561.00,96.16
1560.00,96.21
1559.00,96.24
1558.00,96.27
1557.00,96.30
1556.00,96.32
1555.00,96.34
1554.00,96.37
1553.00,96.40
1552.00,96.44
1551.00,96.47
1550.00,96.49
1549.00,96.51
1548.00,96.52
1547.00,96.53
1546.00,96.55
1545.00,96.58
1544.00,96.62
1543.00,96.65
1542.00,96.64
1541.00,96.60
1540.00,96.58
1539.00,96.60
1538.00,96.61
1537.00,96.60
1536.00,96.55
1535.00,96.48
1534.00,96.40
1533.00,96.36
1532.00,96.36
1531.00,96.36
1530.00,96.32
1529.00,96.26
1528.00,96.21
1527.00,96.19
1526.00,96.19
1525.00,96.19
1524.00,96.20
1523.00,96.22
1522.00,96.27
1521.00,96.34
1520.00,96.41
1519.00,96.43
1518.00,96.40
1517.00,96.37
1516.00,96.34
1515.00,96.29
1514.00,96.17
1513.00,95.96
1512.00,95.67
1511.00,95.30
1510.00,94.83
1509.00,94.21
1508.00,93.30
1507.00,92.17
1506.00,91.31
1505.00,91.12
1504.00,91.46
1503.00,92.09
1502.00,92.86
1501.00,93.63
1500.00,94.34
1499.00,94.94
1498.00,95.42
1497.00,95.77
1496.00,96.01
1495.00,96.16
1494.00,96.22
1493.00,96.23
1492.00,96.19
1491.00,96.15
1490.00,96.10
1489.00,96.00
1488.00,95.85
1487.00,95.64
1486.00,95.40
1485.00,95.16
1484.00,94.92
1483.00,94.68
1482.00,94.43
1481.00,94.17
1480.00,93.90
1479.00,93.64
1478.00,93.39
1477.00,93.12
1476.00,92.84
1475.00,92.57
1474.00,92.29
1473.00,92.04
1472.00,91.90
1471.00,91.91
1470.00,92.02
1469.00,92.16
1468.00,92.30
1467.00,92.42
1466.00,92.47
1465.00,92.44
1464.00,92.36
1463.00,92.27
1462.00,92.19
1461.00,92.11
1460.00,92.03
1459.00,91.96
1458.00,91.89
1457.00,91.84
1456.00,91.81
1455.00,91.79
1454.00,91.77
1453.00,91.76
1452.00,91.79
1451.00,91.87
1450.00,91.97
1449.00,92.10
1448.00,92.23
1447.00,92.37
1446.00,92.48
1445.00,92.56
1444.00,92.63
1443.00,92.69
1442.00,92.76
1441.00,92.84
1440.00,92.94
1439.00,93.08
1438.00,93.25
1437.00,93.47
1436.00,93.72
1435.00,93.94
1434.00,94.13
1433.00,94.31
1432.00,94.50
1431.00,94.68
1430.00,94.85
1429.00,94.98
1428.00,95.07
1427.00,95.12
1426.00,95.13
1425.00,95.10
1424.00,95.02
1423.00,94.87
1422.00,94.66
1421.00,94.35
1420.00,93.85
1419.00,93.11
1418.00,92.20
1417.00,91.12
1416.00,89.82
1415.00,88.26
1414.00,86.50
1413.00,84.63
1412.00,82.82
1411.00,81.29
1410.00,80.24
1409.00,79.75
1408.00,79.83
1407.00,80.46
1406.00,81.56
1405.00,82.93
1404.00,84.35
1403.00,85.63
1402.00,86.72
1401.00,87.67
1400.00,88.54
1399.00,89.33
1398.00,89.99
1397.00,90.50
1396.00,90.90
1395.00,91.25
1394.00,91.53
1393.00,91.73
1392.00,91.84
1391.00,91.91
1390.00,91.96
1389.00,92.00
1388.00,92.04
1387.00,92.07
1386.00,92.07
1385.00,92.04
1384.00,91.99
1383.00,91.93
1382.00,91.87
1381.00,91.83
1380.00,91.79
1379.00,91.74
1378.00,91.67
1377.00,91.58
1376.00,91.48
1375.00,91.38
1374.00,91.29
1373.00,91.20
1372.00,91.14
1371.00,91.12
1370.00,91.18
1369.00,91.33
1368.00,91.54
1367.00,91.81
1366.00,92.09
1365.00,92.38
1364.00,92.69
1363.00,93.01
1362.00,93.27
1361.00,93.44
1360.00,93.51
1359.00,93.52
1358.00,93.50
1357.00,93.45
1356.00,93.36
1355.00,93.21
1354.00,92.99
1353.00,92.69
1352.00,92.29
1351.00,91.79
1350.00,91.16
1349.00,90.37
1348.00,89.39
1347.00,88.21
1346.00,86.85
1345.00,85.37
1344.00,83.87
1343.00,82.50
1342.00,81.34
1341.00,80.49
1340.00,80.03
1339.00,80.05
1338.00,80.55
1337.00,81.47
1336.00,82.70
1335.00,84.14
1334.00,85.69
1333.00,87.22
1332.00,88.63
1331.00,89.83
1330.00,90.77
1329.00,91.46
1328.00,91.93
1327.00,92.21
1326.00,92.37
1325.00,92.43
1324.00,92.43
1323.00,92.37
1322.00,92.26
1321.00,92.12
1320.00,91.95
1319.00,91.77
1318.00,91.59
1317.00,91.40
1316.00,91.19
1315.00,90.94
1314.00,90.66
1313.00,90.35
1312.00,90.04
1311.00,89.70
1310.00,89.35
1309.00,88.99
1308.00,88.62
1307.00,88.25
1306.00,87.88
1305.00,87.49
1304.00,87.07
1303.00,86.60
1302.00,86.08
1301.00,85.49
1300.00,84.82
1299.00,84.10
1298.00,83.35
1297.00,82.58
1296.00,81.79
1295.00,81.00
1294.00,80.23
1293.00,79.47
1292.00,78.73
1291.00,78.02
1290.00,77.33
1289.00,76.65
1288.00,75.99
1287.00,75.35
1286.00,74.76
1285.00,74.19
1284.00,73.62
1283.00,73.07
1282.00,72.52
1281.00,71.98
1280.00,71.44
1279.00,70.90
1278.00,70.35
1277.00,69.77
1276.00,69.15
1275.00,68.48
1274.00,67.78
1273.00,67.04
1272.00,66.25
1271.00,65.43
1270.00,64.57
1269.00,63.67
1268.00,62.75
1267.00,61.85
1266.00,60.99
1265.00,60.17
1264.00,59.40
1263.00,58.71
1262.00,58.10
1261.00,57.57
1260.00,57.09
1259.00,56.70
1258.00,56.39
1257.00,56.11
1256.00,55.82
1255.00,55.51
1254.00,55.18
1253.00,54.79
1252.00,54.35
1251.00,53.90
1250.00,53.45
1249.00,52.99
1248.00,52.52
1247.00,52.09
1246.00,51.70
1245.00,51.36
1244.00,51.08
1243.00,50.90
1242.00,50.84
1241.00,50.90
1240.00,51.10
1239.00,51.48
1238.00,52.06
1237.00,52.78
1236.00,53.64
1235.00,54.64
1234.00,55.75
1233.00,56.92
1232.00,58.10
1231.00,59.30
1230.00,60.47
1229.00,61.59
1228.00,62.63
1227.00,63.59
1226.00,64.50
1225.00,65.35
1224.00,66.17
1223.00,66.98
1222.00,67.80
1221.00,68.64
1220.00,69.48
1219.00,70.35
1218.00,71.22
1217.00,72.07
1216.00,72.88
1215.00,73.66
1214.00,74.41
1213.00,75.13
1212.00,75.82
1211.00,76.48
1210.00,77.10
1209.00,77.69
1208.00,78.25
1207.00,78.80
1206.00,79.35
1205.00,79.89
1204.00,80.42
1203.00,80.93
1202.00,81.44
1201.00,81.94
1200.00,82.42
1199.00,82.90
1198.00,83.38
1197.00,83.85
1196.00,84.30
1195.00,84.74
1194.00,85.16
1193.00,85.56
1192.00,85.95
1191.00,86.32
1190.00,86.65
1189.00,86.91
1188.00,87.11
1187.00,87.24
1186.00,87.33
1185.00,87.37
1184.00,87.36
1183.00,87.32
1182.00,87.25
1181.00,87.15
1180.00,87.02
1179.00,86.86
1178.00,86.71
1177.00,86.59
1176.00,86.53
1175.00,86.54
1174.00,86.64
1173.00,86.84
1172.00,87.14
1171.00,87.52
1170.00,87.97
1169.00,88.44
1168.00,88.89
1167.00,89.28
1166.00,89.57
1165.00,89.76
1164.00,89.85
1163.00,89.87
1162.00,89.85
1161.00,89.80
1160.00,89.73
1159.00,89.62
1158.00,89.47
1157.00,89.30
1156.00,89.09
1155.00,88.84
1154.00,88.54
1153.00,88.20
1152.00,87.82
1151.00,87.41
1150.00,86.97
1149.00,86.50
1148.00,85.98
1147.00,85.44
1146.00,84.87
1145.00,84.27
1144.00,83.64
1143.00,82.96
1142.00,82.22
1141.00,81.45
1140.00,80.64
1139.00,79.81
1138.00,78.92
1137.00,77.93
1136.00,76.87
1135.00,75.77
1134.00,74.63
1133.00,73.47
1132.00,72.29
1131.00,71.13
1130.00,70.00
1129.00,68.89
1128.00,67.80
1127.00,66.74
1126.00,65.76
1125.00,64.86
1124.00,64.03
1123.00,63.27
1122.00,62.58
1121.00,61.96
1120.00,61.42
1119.00,61.03
1118.00,60.79
1117.00,60.68
1116.00,60.67
1115.00,60.71
1114.00,60.77
1113.00,60.78
1112.00,60.69
1111.00,60.50
1110.00,60.17
1109.00,59.68
1108.00,59.05
1107.00,58.33
1106.00,57.57
1105.00,56.79
1104.00,56.00
1103.00,55.26
1102.00,54.60
1101.00,54.00
1100.00,53.48
1099.00,53.05
1098.00,52.75
1097.00,52.53
1096.00,52.39
1095.00,52.35
1094.00,52.42
1093.00,52.56
1092.00,52.78
1091.00,53.08
1090.00,53.46
1089.00,53.86
1088.00,54.28
1087.00,54.75
1086.00,55.28
1085.00,55.86
1084.00,56.51
1083.00,57.27
1082.00,58.13
1081.00,59.07
1080.00,60.09
1079.00,61.19
1078.00,62.34
1077.00,63.49
1076.00,64.61
1075.00,65.70
1074.00,66.77
1073.00,67.78
1072.00,68.72
1071.00,69.60
1070.00,70.42
1069.00,71.19
1068.00,71.90
1067.00,72.58
1066.00,73.22
1065.00,73.81
1064.00,74.36
1063.00,74.86
1062.00,75.31
1061.00,75.72
1060.00,76.11
1059.00,76.48
1058.00,76.82
1057.00,77.09
1056.00,77.29
1055.00,77.40
1054.00,77.43
1053.00,77.42
1052.00,77.40
1051.00,77.39
1050.00,77.37
1049.00,77.31
1048.00,77.23
1047.00,77.16
1046.00,77.14
1045.00,77.14
1044.00,77.17
1043.00,77.24
1042.00,77.35
1041.00,77.52
1040.00,77.73
1039.00,77.98
1038.00,78.25
1037.00,78.53
1036.00,78.81
1035.00,79.11
1034.00,79.42
1033.00,79.73
1032.00,80.00
1031.00,80.21
1030.00,80.28
1029.00,80.12
1028.00,79.64
1027.00,78.74
1026.00,77.42
1025.00,75.76
1024.00,73.89
1023.00,71.95
1022.00,70.01
1021.00,68.09
1020.00,66.30
1019.00,64.81
1018.00,63.87
1017.00,63.69
1016.00,64.33
1015.00,65.73
1014.00,67.60
1013.00,69.63
1012.00,71.55
1011.00,73.25
1010.00,74.71
1009.00,75.94
1008.00,76.98
1007.00,77.87
1006.00,78.61
1005.00,79.22
1004.00,79.73
1003.00,80.16
1002.00,80.55
1001.00,80.90
1000.00,81.21
999.00,81.49
998.00,81.74
997.00,81.96
996.00,82.15
995.00,82.32
994.00,82.46
993.00,82.57
992.00,82.65
991.00,82.71
990.00,82.76
989.00,82.79
988.00,82.80
987.00,82.80
986.00,82.81
985.00,82.80
984.00,82.77
983.00,82.69
982.00,82.54
981.00,82.33
980.00,82.06
979.00,81.74
978.00,81.37
977.00,80.97
976.00,80.56
975.00,80.16
974.00,79.80
973.00,79.50
972.00,79.29
971.00,79.18
970.00,79.17
969.00,79.22
968.00,79.35
967.00,79.56
966.00,79.85
965.00,80.19
964.00,80.57
963.00,80.97
962.00,81.39
961.00,81.80
960.00,82.19
959.00,82.54
958.00,82.85
957.00,83.13
956.00,83.40
955.00,83.67
954.00,83.93
953.00,84.18
952.00,84.40
951.00,84.60
950.00,84.77
949.00,84.94
948.00,85.10
947.00,85.28
946.00,85.46
945.00,85.64
944.00,85.79
943.00,85.93
942.00,86.06
941.00,86.20
940.00,86.36
939.00,86.51
938.00,86.65
937.00,86.76
936.00,86.84
935.00,86.91
934.00,86.99
933.00,87.07
932.00,87.16
931.00,87.26
930.00,87.34
929.00,87.41
928.00,87.47
927.00,87.54
926.00,87.62
925.00,87.71
924.00,87.79
923.00,87.85
922.00,87.88
921.00,87.90
920.00,87.92
919.00,87.94
918.00,87.97
917.00,87.98
916.00,87.95
915.00,87.89
914.00,87.82
913.00,87.74
912.00,87.67
911.00,87.58
910.00,87.44
909.00,87.24
908.00,87.02
907.00,86.78
906.00,86.54
905.00,86.31
904.00,86.08
903.00,85.87
902.00,85.70
901.00,85.56
900.00,85.45
899.00,85.37
898.00,85.34
897.00,85.34
896.00,85.38
895.00,85.44
894.00,85.52
893.00,85.59
892.00,85.64
891.00,85.65
890.00,85.64
889.00,85.56
888.00,85.41
887.00,85.18
886.00,84.85
885.00,84.42
884.00,83.88
883.00,83.23
882.00,82.46
881.00,81.58
880.00,80.58
879.00,79.48
878.00,78.25
877.00,76.87
876.00,75.28
875.00,73.54
874.00,71.86
873.00,70.63
872.00,70.25
871.00,70.88
870.00,72.32
869.00,74.11
868.00,75.82
867.00,77.25
866.00,78.35
865.00,79.17
864.00,79.77
863.00,80.21
862.00,80.51
861.00,80.69
860.00,80.78
859.00,80.80
858.00,80.78
857.00,80.70
856.00,80.58
855.00,80.45
854.00,80.32
853.00,80.16
852.00,79.96
851.00,79.71
850.00,79.42
849.00,79.15
848.00,78.95
847.00,78.86
846.00,78.92
845.00,79.09
844.00,79.33
843.00,79.64
842.00,80.00
841.00,80.39
840.00,80.79
839.00,81.18
838.00,81.57
837.00,81.95
836.00,82.33
835.00,82.70
834.00,83.07
833.00,83.42
832.00,83.76
831.00,84.07
830.00,84.37
829.00,84.65
828.00,84.89
827.00,85.10
826.00,85.28
825.00,85.42
824.00,85.55
823.00,85.67
822.00,85.78
821.00,85.87
820.00,85.95
819.00,86.02
818.00,86.07
817.00,86.09
816.00,86.08
815.00,86.09
814.00,86.14
813.00,86.21
812.00,86.30
811.00,86.37
810.00,86.43
809.00,86.48
808.00,86.51
807.00,86.55
806.00,86.58
805.00,86.60
804.00,86.61
803.00,86.65
802.00,86.72
801.00,86.79
800.00,86.81
799.00,86.71
798.00,86.41
797.00,85.90
796.00,85.22
795.00,84.52
794.00,83.94
793.00,83.61
792.00,83.57
791.00,83.82
790.00,84.26
789.00,84.78
788.00,85.30
787.00,85.75
786.00,86.13
785.00,86.47
784.00,86.79
783.00,87.09
782.00,87.37
781.00,87.60
780.00,87.80
779.00,87.97
778.00,88.14
777.00,88.30
776.00,88.48
775.00,88.67
774.00,88.86
773.00,89.03
772.00,89.20
771.00,89.36
770.00,89.53
769.00,89.71
768.00,89.90
767.00,90.08
766.00,90.24
765.00,90.40
764.00,90.57
763.00,90.76
762.00,90.95
761.00,91.09
760.00,91.17
759.00,91.24
758.00,91.32
757.00,91.43
756.00,91.55
755.00,91.66
754.00,91.75
753.00,91.81
752.00,91.87
751.00,91.93
750.00,91.97
749.00,91.99
748.00,91.98
747.00,91.91
746.00,91.74
745.00,91.41
744.00,90.88
743.00,90.12
742.00,89.12
741.00,87.81
740.00,86.17
739.00,84.17
738.00,81.82
737.00,79.20
736.00,76.39
735.00,73.47
734.00,70.52
733.00,67.55
732.00,64.62
731.00,61.78
730.00,59.01
729.00,56.25
728.00,53.49
727.00,50.81
726.00,48.38
725.00,46.40
724.00,45.05
723.00,44.44
722.00,44.55
721.00,45.30
720.00,46.55
719.00,48.16
718.00,49.97
717.00,51.87
716.00,53.78
715.00,55.64
714.00,57.38
713.00,58.95
712.00,60.33
711.00,61.51
710.00,62.55
709.00,63.48
708.00,64.38
707.00,65.25
706.00,66.08
705.00,66.87
704.00,67.62
703.00,68.36
702.00,69.12
701.00,69.90
700.00,70.71
699.00,71.54
698.00,72.37
697.00,73.18
696.00,73.90
695.00,74.50
694.00,75.01
693.00,75.43
692.00,75.81
691.00,76.14
690.00,76.44
689.00,76.73
688.00,77.00
687.00,77.22
686.00,77.38
685.00,77.46
684.00,77.52
683.00,77.58
682.00,77.68
681.00,77.82
680.00,78.00
679.00,78.19
678.00,78.41
677.00,78.66
676.00,78.93
675.00,79.19
674.00,79.41
673.00,79.59
672.00,79.78
671.00,79.97
670.00,80.16
669.00,80.33
668.00,80.44
667.00,80.49
666.00,80.58
665.00,80.75
664.00,80.95
663.00,81.13
662.00,81.28
661.00,81.44
660.00,81.62
659.00,81.78
658.00,81.85
657.00,81.85
656.00,81.83
655.00,81.89
654.00,82.01
653.00,82.15
652.00,82.23
651.00,82.24
650.00,82.21
649.00,82.22
648.00,82.34
647.00,82.53
646.00,82.72
645.00,82.84
644.00,82.92
643.00,82.98
642.00,83.04
641.00,83.12
640.00,83.21
639.00,83.30
638.00,83.33
637.00,83.29
636.00,83.15
635.00,82.91
634.00,82.59
633.00,82.29
632.00,82.14
631.00,82.24
630.00,82.56
629.00,82.97
628.00,83.37
627.00,83.67
626.00,83.79
625.00,83.76
624.00,83.68
623.00,83.65
622.00,83.65
621.00,83.66
620.00,83.70
619.00,83.80
618.00,83.98
617.00,84.15
616.00,84.27
615.00,84.23
614.00,84.04
613.00,83.82
612.00,83.73
611.00,83.77
610.00,83.81
609.00,83.75
608.00,83.69
607.00,83.80
606.00,84.09
605.00,84.42
604.00,84.49
603.00,84.01
602.00,82.97
601.00,81.92
600.00,81.63
599.00,82.39
598.00,83.67
597.00,84.65
596.00,85.08
595.00,85.29
594.00,85.48
593.00,85.53
592.00,85.33
591.00,85.11
590.00,85.05
589.00,84.96
588.00,84.72
587.00,84.52
586.00,84.63
585.00,84.90
584.00,84.98
583.00,84.72
582.00,84.28
581.00,83.83
580.00,83.47
579.00,83.38
578.00,83.74
577.00,84.37
576.00,84.75
575.00,84.60
574.00,84.13
573.00,83.73
572.00,83.51
571.00,83.34
570.00,83.13
569.00,82.99
568.00,83.13
567.00,83.55
566.00,83.98
565.00,84.12
564.00,84.02
563.00,83.95
562.00,83.97
561.00,83.94
560.00,83.80
559.00,83.72
558.00,83.82
557.00,84.00
556.00,84.07
555.00,83.95
554.00,83.65
553.00,83.24
552.00,82.91
551.00,83.02
550.00,83.67
