Created as New Dataset,136 Du Pont
cm-1,%T
4000.00,99.91
3999.00,99.91
3998.00,99.90
3997.00,99.90
3996.00,99.89
3995.00,99.89
3994.00,99.88
3993.00,99.87
3992.00,99.87
3991.00,99.88
3990.00,99.89
3989.00,99.90
3988.00,99.90
3987.00,99.89
3986.00,99.88
3985.00,99.88
3984.00,99.89
3983.00,99.90
3982.00,99.90
3981.00,99.90
3980.00,99.89
3979.00,99.88
3978.00,99.86
3977.00,99.85
3976.00,99.85
3975.00,99.86
3974.00,99.87
3973.00,99.88
3972.00,99.88
3971.00,99.87
3970.00,99.86
3969.00,99.87
3968.00,99.89
3967.00,99.91
3966.00,99.93
3965.00,99.94
3964.00,99.94
3963.00,99.93
3962.00,99.91
3961.00,99.90
3960.00,99.90
3959.00,99.91
3958.00,99.92
3957.00,99.92
3956.00,99.92
3955.00,99.92
3954.00,99.91
3953.00,99.90
3952.00,99.88
3951.00,99.86
3950.00,99.85
3949.00,99.85
3948.00,99.86
3947.00,99.87
3946.00,99.87
3945.00,99.87
3944.00,99.86
3943.00,99.85
3942.00,99.84
3941.00,99.85
3940.00,99.86
3939.00,99.87
3938.00,99.89
3937.00,99.90
3936.00,99.90
3935.00,99.89
3934.00,99.89
3933.00,99.89
3932.00,99.90
3931.00,99.90
3930.00,99.88
3929.00,99.86
3928.00,99.83
3927.00,99.82
3926.00,99.82
3925.00,99.83
3924.00,99.84
3923.00,99.84
3922.00,99.84
3921.00,99.84
3920.00,99.84
3919.00,99.84
3918.00,99.84
3917.00,99.83
3916.00,99.83
3915.00,99.82
3914.00,99.81
3913.00,99.81
3912.00,99.82
3911.00,99.85
3910.00,99.87
3909.00,99.88
3908.00,99.86
3907.00,99.84
3906.00,99.82
3905.00,99.82
3904.00,99.84
3903.00,99.86
3902.00,99.86
3901.00,99.84
3900.00,99.82
3899.00,99.82
3898.00,99.83
3897.00,99.86
3896.00,99.88
3895.00,99.89
3894.00,99.90
3893.00,99.90
3892.00,99.91
3891.00,99.92
3890.00,99.93
3889.00,99.93
3888.00,99.91
3887.00,99.89
3886.00,99.88
3885.00,99.89
3884.00,99.88
3883.00,99.86
3882.00,99.85
3881.00,99.85
3880.00,99.87
3879.00,99.90
3878.00,99.89
3877.00,99.87
3876.00,99.84
3875.00,99.85
3874.00,99.87
3873.00,99.90
3872.00,99.90
3871.00,99.88
3870.00,99.87
3869.00,99.87
3868.00,99.87
3867.00,99.87
3866.00,99.85
3865.00,99.83
3864.00,99.83
3863.00,99.83
3862.00,99.83
3861.00,99.82
3860.00,99.82
3859.00,99.84
3858.00,99.85
3857.00,99.86
3856.00,99.85
3855.00,99.83
3854.00,99.81
3853.00,99.81
3852.00,99.82
3851.00,99.81
3850.00,99.77
3849.00,99.75
3848.00,99.75
3847.00,99.76
3846.00,99.77
3845.00,99.78
3844.00,99.79
3843.00,99.80
3842.00,99.82
3841.00,99.83
3840.00,99.84
3839.00,99.84
3838.00,99.83
3837.00,99.83
3836.00,99.82
3835.00,99.82
3834.00,99.82
3833.00,99.83
3832.00,99.84
3831.00,99.86
3830.00,99.87
3829.00,99.87
3828.00,99.87
3827.00,99.87
3826.00,99.88
3825.00,99.88
3824.00,99.87
3823.00,99.83
3822.00,99.79
3821.00,99.77
3820.00,99.77
3819.00,99.76
3818.00,99.74
3817.00,99.74
3816.00,99.76
3815.00,99.78
3814.00,99.78
3813.00,99.76
3812.00,99.74
3811.00,99.75
3810.00,99.78
3809.00,99.80
3808.00,99.80
3807.00,99.79
3806.00,99.79
3805.00,99.79
3804.00,99.78
3803.00,99.76
3802.00,99.75
3801.00,99.76
3800.00,99.77
3799.00,99.78
3798.00,99.77
3797.00,99.77
3796.00,99.79
3795.00,99.80
3794.00,99.81
3793.00,99.81
3792.00,99.81
3791.00,99.82
3790.00,99.83
3789.00,99.81
3788.00,99.80
3787.00,99.78
3786.00,99.77
3785.00,99.76
3784.00,99.76
3783.00,99.75
3782.00,99.75
3781.00,99.75
3780.00,99.76
3779.00,99.78
3778.00,99.79
3777.00,99.79
3776.00,99.78
3775.00,99.78
3774.00,99.79
3773.00,99.80
3772.00,99.79
3771.00,99.77
3770.00,99.74
3769.00,99.73
3768.00,99.73
3767.00,99.73
3766.00,99.74
3765.00,99.75
3764.00,99.75
3763.00,99.73
3762.00,99.69
3761.00,99.66
3760.00,99.65
3759.00,99.67
3758.00,99.70
3757.00,99.72
3756.00,99.73
3755.00,99.72
3754.00,99.71
3753.00,99.70
3752.00,99.70
3751.00,99.72
3750.00,99.74
3749.00,99.74
3748.00,99.74
3747.00,99.74
3746.00,99.73
3745.00,99.73
3744.00,99.73
3743.00,99.72
3742.00,99.68
3741.00,99.63
3740.00,99.61
3739.00,99.64
3738.00,99.68
3737.00,99.70
3736.00,99.71
3735.00,99.72
3734.00,99.74
3733.00,99.76
3732.00,99.77
3731.00,99.79
3730.00,99.79
3729.00,99.78
3728.00,99.78
3727.00,99.78
3726.00,99.78
3725.00,99.78
3724.00,99.77
3723.00,99.75
3722.00,99.72
3721.00,99.69
3720.00,99.66
3719.00,99.64
3718.00,99.64
3717.00,99.65
3716.00,99.66
3715.00,99.66
3714.00,99.67
3713.00,99.67
3712.00,99.68
3711.00,99.70
3710.00,99.70
3709.00,99.70
3708.00,99.69
3707.00,99.69
3706.00,99.68
3705.00,99.67
3704.00,99.65
3703.00,99.63
3702.00,99.62
3701.00,99.64
3700.00,99.67
3699.00,99.69
3698.00,99.70
3697.00,99.70
3696.00,99.69
3695.00,99.69
3694.00,99.69
3693.00,99.71
3692.00,99.73
3691.00,99.73
3690.00,99.71
3689.00,99.66
3688.00,99.62
3687.00,99.61
3686.00,99.61
3685.00,99.62
3684.00,99.62
3683.00,99.63
3682.00,99.63
3681.00,99.62
3680.00,99.62
3679.00,99.62
3678.00,99.63
3677.00,99.63
3676.00,99.62
3675.00,99.62
3674.00,99.62
3673.00,99.60
3672.00,99.56
3671.00,99.54
3670.00,99.55
3669.00,99.58
3668.00,99.60
3667.00,99.60
3666.00,99.60
3665.00,99.60
3664.00,99.60
3663.00,99.60
3662.00,99.59
3661.00,99.58
3660.00,99.58
3659.00,99.58
3658.00,99.57
3657.00,99.55
3656.00,99.54
3655.00,99.53
3654.00,99.53
3653.00,99.54
3652.00,99.55
3651.00,99.57
3650.00,99.58
3649.00,99.57
3648.00,99.54
3647.00,99.50
3646.00,99.48
3645.00,99.49
3644.00,99.50
3643.00,99.52
3642.00,99.54
3641.00,99.55
3640.00,99.54
3639.00,99.53
3638.00,99.52
3637.00,99.53
3636.00,99.53
3635.00,99.53
3634.00,99.52
3633.00,99.53
3632.00,99.53
3631.00,99.52
3630.00,99.50
3629.00,99.49
3628.00,99.49
3627.00,99.50
3626.00,99.51
3625.00,99.52
3624.00,99.53
3623.00,99.55
3622.00,99.55
3621.00,99.53
3620.00,99.52
3619.00,99.51
3618.00,99.51
3617.00,99.51
3616.00,99.52
3615.00,99.53
3614.00,99.56
3613.00,99.59
3612.00,99.60
3611.00,99.59
3610.00,99.58
3609.00,99.58
3608.00,99.59
3607.00,99.59
3606.00,99.58
3605.00,99.55
3604.00,99.52
3603.00,99.50
3602.00,99.50
3601.00,99.51
3600.00,99.52
3599.00,99.51
3598.00,99.50
3597.00,99.49
3596.00,99.50
3595.00,99.52
3594.00,99.53
3593.00,99.53
3592.00,99.51
3591.00,99.50
3590.00,99.49
3589.00,99.50
3588.00,99.52
3587.00,99.53
3586.00,99.52
3585.00,99.51
3584.00,99.51
3583.00,99.51
3582.00,99.51
3581.00,99.51
3580.00,99.50
3579.00,99.48
3578.00,99.47
3577.00,99.47
3576.00,99.48
3575.00,99.49
3574.00,99.49
3573.00,99.48
3572.00,99.46
3571.00,99.45
3570.00,99.44
3569.00,99.44
3568.00,99.46
3567.00,99.49
3566.00,99.50
3565.00,99.51
3564.00,99.50
3563.00,99.51
3562.00,99.51
3561.00,99.51
3560.00,99.49
3559.00,99.47
3558.00,99.45
3557.00,99.45
3556.00,99.45
3555.00,99.44
3554.00,99.42
3553.00,99.41
3552.00,99.41
3551.00,99.42
3550.00,99.44
3549.00,99.46
3548.00,99.46
3547.00,99.46
3546.00,99.45
3545.00,99.45
3544.00,99.44
3543.00,99.42
3542.00,99.42
3541.00,99.41
3540.00,99.42
3539.00,99.43
3538.00,99.45
3537.00,99.45
3536.00,99.44
3535.00,99.43
3534.00,99.42
3533.00,99.41
3532.00,99.42
3531.00,99.42
3530.00,99.43
3529.00,99.45
3528.00,99.47
3527.00,99.48
3526.00,99.50
3525.00,99.50
3524.00,99.49
3523.00,99.49
3522.00,99.48
3521.00,99.48
3520.00,99.47
3519.00,99.48
3518.00,99.48
3517.00,99.48
3516.00,99.49
3515.00,99.49
3514.00,99.50
3513.00,99.51
3512.00,99.50
3511.00,99.48
3510.00,99.46
3509.00,99.43
3508.00,99.42
3507.00,99.43
3506.00,99.44
3505.00,99.45
3504.00,99.46
3503.00,99.45
3502.00,99.44
3501.00,99.44
3500.00,99.45
3499.00,99.47
3498.00,99.48
3497.00,99.49
3496.00,99.50
3495.00,99.52
3494.00,99.53
3493.00,99.52
3492.00,99.50
3491.00,99.47
3490.00,99.45
3489.00,99.45
3488.00,99.47
3487.00,99.50
3486.00,99.52
3485.00,99.53
3484.00,99.51
3483.00,99.48
3482.00,99.47
3481.00,99.49
3480.00,99.53
3479.00,99.54
3478.00,99.53
3477.00,99.49
3476.00,99.46
3475.00,99.45
3474.00,99.44
3473.00,99.44
3472.00,99.43
3471.00,99.43
3470.00,99.43
3469.00,99.44
3468.00,99.44
3467.00,99.42
3466.00,99.40
3465.00,99.40
3464.00,99.41
3463.00,99.43
3462.00,99.46
3461.00,99.48
3460.00,99.48
3459.00,99.47
3458.00,99.45
3457.00,99.43
3456.00,99.39
3455.00,99.35
3454.00,99.32
3453.00,99.32
3452.00,99.34
3451.00,99.38
3450.00,99.40
3449.00,99.41
3448.00,99.40
3447.00,99.38
3446.00,99.37
3445.00,99.38
3444.00,99.39
3443.00,99.38
3442.00,99.35
3441.00,99.30
3440.00,99.25
3439.00,99.22
3438.00,99.22
3437.00,99.23
3436.00,99.25
3435.00,99.26
3434.00,99.24
3433.00,99.23
3432.00,99.21
3431.00,99.21
3430.00,99.21
3429.00,99.22
3428.00,99.23
3427.00,99.23
3426.00,99.22
3425.00,99.21
3424.00,99.20
3423.00,99.21
3422.00,99.24
3421.00,99.27
3420.00,99.30
3419.00,99.33
3418.00,99.35
3417.00,99.38
3416.00,99.40
3415.00,99.41
3414.00,99.42
3413.00,99.43
3412.00,99.44
3411.00,99.45
3410.00,99.46
3409.00,99.47
3408.00,99.48
3407.00,99.48
3406.00,99.49
3405.00,99.51
3404.00,99.51
3403.00,99.51
3402.00,99.49
3401.00,99.46
3400.00,99.44
3399.00,99.44
3398.00,99.45
3397.00,99.46
3396.00,99.48
3395.00,99.49
3394.00,99.49
3393.00,99.48
3392.00,99.46
3391.00,99.45
3390.00,99.44
3389.00,99.44
3388.00,99.44
3387.00,99.43
3386.00,99.42
3385.00,99.43
3384.00,99.44
3383.00,99.47
3382.00,99.48
3381.00,99.49
3380.00,99.48
3379.00,99.46
3378.00,99.44
3377.00,99.43
3376.00,99.43
3375.00,99.44
3374.00,99.44
3373.00,99.44
3372.00,99.43
3371.00,99.42
3370.00,99.44
3369.00,99.45
3368.00,99.46
3367.00,99.46
3366.00,99.46
3365.00,99.46
3364.00,99.46
3363.00,99.46
3362.00,99.46
3361.00,99.46
3360.00,99.47
3359.00,99.48
3358.00,99.49
3357.00,99.50
3356.00,99.49
3355.00,99.47
3354.00,99.45
3353.00,99.44
3352.00,99.45
3351.00,99.47
3350.00,99.48
3349.00,99.47
3348.00,99.43
3347.00,99.39
3346.00,99.37
3345.00,99.36
3344.00,99.38
3343.00,99.41
3342.00,99.44
3341.00,99.46
3340.00,99.47
3339.00,99.48
3338.00,99.48
3337.00,99.47
3336.00,99.45
3335.00,99.43
3334.00,99.43
3333.00,99.43
3332.00,99.44
3331.00,99.45
3330.00,99.45
3329.00,99.44
3328.00,99.43
3327.00,99.42
3326.00,99.42
3325.00,99.44
3324.00,99.46
3323.00,99.48
3322.00,99.48
3321.00,99.46
3320.00,99.45
3319.00,99.44
3318.00,99.45
3317.00,99.47
3316.00,99.48
3315.00,99.46
3314.00,99.44
3313.00,99.41
3312.00,99.40
3311.00,99.39
3310.00,99.40
3309.00,99.40
3308.00,99.41
3307.00,99.41
3306.00,99.41
3305.00,99.40
3304.00,99.39
3303.00,99.39
3302.00,99.39
3301.00,99.39
3300.00,99.40
3299.00,99.43
3298.00,99.45
3297.00,99.47
3296.00,99.47
3295.00,99.46
3294.00,99.44
3293.00,99.42
3292.00,99.40
3291.00,99.39
3290.00,99.39
3289.00,99.40
3288.00,99.43
3287.00,99.45
3286.00,99.46
3285.00,99.46
3284.00,99.45
3283.00,99.45
3282.00,99.44
3281.00,99.44
3280.00,99.44
3279.00,99.44
3278.00,99.43
3277.00,99.42
3276.00,99.43
3275.00,99.44
3274.00,99.46
3273.00,99.47
3272.00,99.48
3271.00,99.48
3270.00,99.46
3269.00,99.45
3268.00,99.44
3267.00,99.45
3266.00,99.46
3265.00,99.46
3264.00,99.45
3263.00,99.43
3262.00,99.42
3261.00,99.41
3260.00,99.41
3259.00,99.40
3258.00,99.38
3257.00,99.38
3256.00,99.39
3255.00,99.40
3254.00,99.41
3253.00,99.42
3252.00,99.41
3251.00,99.40
3250.00,99.39
3249.00,99.39
3248.00,99.39
3247.00,99.39
3246.00,99.40
3245.00,99.41
3244.00,99.42
3243.00,99.42
3242.00,99.43
3241.00,99.45
3240.00,99.46
3239.00,99.48
3238.00,99.49
3237.00,99.49
3236.00,99.49
3235.00,99.47
3234.00,99.45
3233.00,99.42
3232.00,99.40
3231.00,99.40
3230.00,99.41
3229.00,99.43
3228.00,99.44
3227.00,99.44
3226.00,99.43
3225.00,99.42
3224.00,99.41
3223.00,99.40
3222.00,99.39
3221.00,99.38
3220.00,99.38
3219.00,99.40
3218.00,99.42
3217.00,99.44
3216.00,99.45
3215.00,99.45
3214.00,99.43
3213.00,99.41
3212.00,99.39
3211.00,99.38
3210.00,99.37
3209.00,99.36
3208.00,99.36
3207.00,99.37
3206.00,99.38
3205.00,99.39
3204.00,99.39
3203.00,99.39
3202.00,99.38
3201.00,99.38
3200.00,99.38
3199.00,99.38
3198.00,99.37
3197.00,99.36
3196.00,99.36
3195.00,99.37
3194.00,99.40
3193.00,99.42
3192.00,99.42
3191.00,99.40
3190.00,99.38
3189.00,99.37
3188.00,99.38
3187.00,99.39
3186.00,99.41
3185.00,99.41
3184.00,99.40
3183.00,99.39
3182.00,99.39
3181.00,99.39
3180.00,99.40
3179.00,99.41
3178.00,99.42
3177.00,99.43
3176.00,99.42
3175.00,99.41
3174.00,99.40
3173.00,99.41
3172.00,99.43
3171.00,99.43
3170.00,99.42
3169.00,99.40
3168.00,99.40
3167.00,99.41
3166.00,99.42
3165.00,99.43
3164.00,99.43
3163.00,99.42
3162.00,99.42
3161.00,99.42
3160.00,99.43
3159.00,99.44
3158.00,99.44
3157.00,99.44
3156.00,99.45
3155.00,99.44
3154.00,99.43
3153.00,99.42
3152.00,99.42
3151.00,99.41
3150.00,99.41
3149.00,99.42
3148.00,99.41
3147.00,99.41
3146.00,99.41
3145.00,99.41
3144.00,99.42
3143.00,99.43
3142.00,99.42
3141.00,99.41
3140.00,99.39
3139.00,99.38
3138.00,99.37
3137.00,99.36
3136.00,99.36
3135.00,99.36
3134.00,99.36
3133.00,99.36
3132.00,99.35
3131.00,99.35
3130.00,99.36
3129.00,99.37
3128.00,99.38
3127.00,99.36
3126.00,99.34
3125.00,99.32
3124.00,99.31
3123.00,99.30
3122.00,99.30
3121.00,99.31
3120.00,99.32
3119.00,99.32
3118.00,99.31
3117.00,99.30
3116.00,99.30
3115.00,99.30
3114.00,99.30
3113.00,99.31
3112.00,99.32
3111.00,99.32
3110.00,99.31
3109.00,99.29
3108.00,99.26
3107.00,99.24
3106.00,99.23
3105.00,99.23
3104.00,99.25
3103.00,99.25
3102.00,99.24
3101.00,99.22
3100.00,99.21
3099.00,99.22
3098.00,99.23
3097.00,99.26
3096.00,99.28
3095.00,99.30
3094.00,99.31
3093.00,99.31
3092.00,99.30
3091.00,99.29
3090.00,99.28
3089.00,99.27
3088.00,99.26
3087.00,99.25
3086.00,99.24
3085.00,99.23
3084.00,99.23
3083.00,99.23
3082.00,99.22
3081.00,99.20
3080.00,99.18
3079.00,99.16
3078.00,99.17
3077.00,99.20
3076.00,99.22
3075.00,99.23
3074.00,99.23
3073.00,99.22
3072.00,99.21
3071.00,99.21
3070.00,99.22
3069.00,99.22
3068.00,99.23
3067.00,99.22
3066.00,99.19
3065.00,99.18
3064.00,99.17
3063.00,99.18
3062.00,99.20
3061.00,99.21
3060.00,99.21
3059.00,99.21
3058.00,99.20
3057.00,99.19
3056.00,99.18
3055.00,99.18
3054.00,99.19
3053.00,99.21
3052.00,99.24
3051.00,99.25
3050.00,99.25
3049.00,99.24
3048.00,99.24
3047.00,99.24
3046.00,99.25
3045.00,99.27
3044.00,99.29
3043.00,99.31
3042.00,99.33
3041.00,99.35
3040.00,99.37
3039.00,99.38
3038.00,99.38
3037.00,99.36
3036.00,99.33
3035.00,99.31
3034.00,99.29
3033.00,99.30
3032.00,99.31
3031.00,99.32
3030.00,99.32
3029.00,99.30
3028.00,99.29
3027.00,99.28
3026.00,99.28
3025.00,99.27
3024.00,99.26
3023.00,99.24
3022.00,99.23
3021.00,99.21
3020.00,99.20
3019.00,99.19
3018.00,99.17
3017.00,99.15
3016.00,99.13
3015.00,99.11
3014.00,99.09
3013.00,99.07
3012.00,99.06
3011.00,99.06
3010.00,99.07
3009.00,99.07
3008.00,99.06
3007.00,99.05
3006.00,99.03
3005.00,99.02
3004.00,99.01
3003.00,99.00
3002.00,98.99
3001.00,98.99
3000.00,98.98
2999.00,98.99
2998.00,99.00
2997.00,99.02
2996.00,99.02
2995.00,99.01
2994.00,98.99
2993.00,98.96
2992.00,98.93
2991.00,98.91
2990.00,98.89
2989.00,98.88
2988.00,98.86
2987.00,98.84
2986.00,98.82
2985.00,98.80
2984.00,98.78
2983.00,98.76
2982.00,98.75
2981.00,98.73
2980.00,98.71
2979.00,98.67
2978.00,98.63
2977.00,98.58
2976.00,98.53
2975.00,98.49
2974.00,98.45
2973.00,98.42
2972.00,98.40
2971.00,98.39
2970.00,98.38
2969.00,98.36
2968.00,98.33
2967.00,98.32
2966.00,98.32
2965.00,98.34
2964.00,98.36
2963.00,98.39
2962.00,98.41
2961.00,98.43
2960.00,98.46
2959.00,98.47
2958.00,98.48
2957.00,98.50
2956.00,98.52
2955.00,98.55
2954.00,98.57
2953.00,98.59
2952.00,98.62
2951.00,98.64
2950.00,98.66
2949.00,98.68
2948.00,98.70
2947.00,98.73
2946.00,98.75
2945.00,98.77
2944.00,98.78
2943.00,98.80
2942.00,98.82
2941.00,98.85
2940.00,98.88
2939.00,98.90
2938.00,98.91
2937.00,98.92
2936.00,98.93
2935.00,98.93
2934.00,98.93
2933.00,98.93
2932.00,98.93
2931.00,98.93
2930.00,98.93
2929.00,98.93
2928.00,98.92
2927.00,98.91
2926.00,98.91
2925.00,98.91
2924.00,98.90
2923.00,98.89
2922.00,98.86
2921.00,98.85
2920.00,98.84
2919.00,98.86
2918.00,98.87
2917.00,98.87
2916.00,98.84
2915.00,98.81
2914.00,98.78
2913.00,98.77
2912.00,98.78
2911.00,98.78
2910.00,98.78
2909.00,98.78
2908.00,98.78
2907.00,98.79
2906.00,98.80
2905.00,98.82
2904.00,98.84
2903.00,98.85
2902.00,98.86
2901.00,98.86
2900.00,98.87
2899.00,98.87
2898.00,98.89
2897.00,98.91
2896.00,98.93
2895.00,98.94
2894.00,98.96
2893.00,98.97
2892.00,98.98
2891.00,98.98
2890.00,98.97
2889.00,98.97
2888.00,98.98
2887.00,98.99
2886.00,99.01
2885.00,99.02
2884.00,99.03
2883.00,99.03
2882.00,99.03
2881.00,99.03
2880.00,99.03
2879.00,99.04
2878.00,99.04
2877.00,99.04
2876.00,99.05
2875.00,99.06
2874.00,99.07
2873.00,99.07
2872.00,99.07
2871.00,99.07
2870.00,99.07
2869.00,99.07
2868.00,99.08
2867.00,99.09
2866.00,99.08
2865.00,99.07
2864.00,99.06
2863.00,99.05
2862.00,99.05
2861.00,99.05
2860.00,99.06
2859.00,99.06
2858.00,99.06
2857.00,99.06
2856.00,99.06
2855.00,99.07
2854.00,99.06
2853.00,99.05
2852.00,99.03
2851.00,99.01
2850.00,99.00
2849.00,99.01
2848.00,99.05
2847.00,99.09
2846.00,99.13
2845.00,99.16
2844.00,99.19
2843.00,99.22
2842.00,99.24
2841.00,99.26
2840.00,99.25
2839.00,99.23
2838.00,99.21
2837.00,99.20
2836.00,99.21
2835.00,99.22
2834.00,99.23
2833.00,99.24
2832.00,99.25
2831.00,99.25
2830.00,99.26
2829.00,99.27
2828.00,99.28
2827.00,99.29
2826.00,99.29
2825.00,99.30
2824.00,99.31
2823.00,99.33
2822.00,99.33
2821.00,99.33
2820.00,99.32
2819.00,99.32
2818.00,99.32
2817.00,99.32
2816.00,99.32
2815.00,99.32
2814.00,99.30
2813.00,99.29
2812.00,99.28
2811.00,99.28
2810.00,99.28
2809.00,99.28
2808.00,99.28
2807.00,99.28
2806.00,99.28
2805.00,99.27
2804.00,99.26
2803.00,99.25
2802.00,99.25
2801.00,99.26
2800.00,99.27
2799.00,99.28
2798.00,99.30
2797.00,99.31
2796.00,99.32
2795.00,99.32
2794.00,99.31
2793.00,99.31
2792.00,99.30
2791.00,99.30
2790.00,99.31
2789.00,99.32
2788.00,99.33
2787.00,99.34
2786.00,99.34
2785.00,99.34
2784.00,99.34
2783.00,99.34
2782.00,99.33
2781.00,99.33
2780.00,99.34
2779.00,99.34
2778.00,99.34
2777.00,99.34
2776.00,99.33
2775.00,99.33
2774.00,99.33
2773.00,99.32
2772.00,99.32
2771.00,99.33
2770.00,99.35
2769.00,99.36
2768.00,99.37
2767.00,99.38
2766.00,99.37
2765.00,99.37
2764.00,99.37
2763.00,99.37
2762.00,99.38
2761.00,99.38
2760.00,99.38
2759.00,99.37
2758.00,99.36
2757.00,99.35
2756.00,99.34
2755.00,99.33
2754.00,99.33
2753.00,99.33
2752.00,99.32
2751.00,99.32
2750.00,99.31
2749.00,99.29
2748.00,99.29
2747.00,99.29
2746.00,99.30
2745.00,99.32
2744.00,99.33
2743.00,99.33
2742.00,99.33
2741.00,99.32
2740.00,99.32
2739.00,99.32
2738.00,99.33
2737.00,99.34
2736.00,99.35
2735.00,99.36
2734.00,99.37
2733.00,99.37
2732.00,99.37
2731.00,99.36
2730.00,99.36
2729.00,99.37
2728.00,99.37
2727.00,99.38
2726.00,99.37
2725.00,99.37
2724.00,99.36
2723.00,99.37
2722.00,99.38
2721.00,99.39
2720.00,99.39
2719.00,99.40
2718.00,99.40
2717.00,99.41
2716.00,99.41
2715.00,99.40
2714.00,99.40
2713.00,99.40
2712.00,99.40
2711.00,99.40
2710.00,99.40
2709.00,99.40
2708.00,99.41
2707.00,99.41
2706.00,99.41
2705.00,99.40
2704.00,99.39
2703.00,99.38
2702.00,99.38
2701.00,99.37
2700.00,99.37
2699.00,99.36
2698.00,99.35
2697.00,99.34
2696.00,99.34
2695.00,99.35
2694.00,99.36
2693.00,99.36
2692.00,99.36
2691.00,99.36
2690.00,99.35
2689.00,99.35
2688.00,99.35
2687.00,99.36
2686.00,99.38
2685.00,99.39
2684.00,99.40
2683.00,99.40
2682.00,99.39
2681.00,99.37
2680.00,99.36
2679.00,99.36
2678.00,99.35
2677.00,99.35
2676.00,99.34
2675.00,99.34
2674.00,99.34
2673.00,99.34
2672.00,99.33
2671.00,99.33
2670.00,99.34
2669.00,99.35
2668.00,99.36
2667.00,99.37
2666.00,99.37
2665.00,99.36
2664.00,99.35
2663.00,99.34
2662.00,99.33
2661.00,99.34
2660.00,99.36
2659.00,99.37
2658.00,99.37
2657.00,99.36
2656.00,99.33
2655.00,99.31
2654.00,99.30
2653.00,99.30
2652.00,99.31
2651.00,99.31
2650.00,99.30
2649.00,99.28
2648.00,99.26
2647.00,99.24
2646.00,99.23
2645.00,99.23
2644.00,99.23
2643.00,99.23
2642.00,99.23
2641.00,99.22
2640.00,99.21
2639.00,99.20
2638.00,99.20
2637.00,99.20
2636.00,99.20
2635.00,99.19
2634.00,99.18
2633.00,99.17
2632.00,99.17
2631.00,99.17
2630.00,99.16
2629.00,99.14
2628.00,99.13
2627.00,99.12
2626.00,99.13
2625.00,99.15
2624.00,99.16
2623.00,99.16
2622.00,99.15
2621.00,99.13
2620.00,99.12
2619.00,99.12
2618.00,99.13
2617.00,99.13
2616.00,99.14
2615.00,99.14
2614.00,99.14
2613.00,99.13
2612.00,99.12
2611.00,99.11
2610.00,99.10
2609.00,99.11
2608.00,99.11
2607.00,99.12
2606.00,99.13
2605.00,99.12
2604.00,99.10
2603.00,99.08
2602.00,99.07
2601.00,99.08
2600.00,99.09
2599.00,99.08
2598.00,99.06
2597.00,99.04
2596.00,99.01
2595.00,98.99
2594.00,98.98
2593.00,98.98
2592.00,98.97
2591.00,98.97
2590.00,98.97
2589.00,98.96
2588.00,98.96
2587.00,98.96
2586.00,98.96
2585.00,98.96
2584.00,98.96
2583.00,98.96
2582.00,98.96
2581.00,98.96
2580.00,98.97
2579.00,98.98
2578.00,98.99
2577.00,98.99
2576.00,98.99
2575.00,99.00
2574.00,99.01
2573.00,99.02
2572.00,99.03
2571.00,99.02
2570.00,99.02
2569.00,99.02
2568.00,99.01
2567.00,99.00
2566.00,98.99
2565.00,98.98
2564.00,98.96
2563.00,98.94
2562.00,98.93
2561.00,98.93
2560.00,98.95
2559.00,98.97
2558.00,98.99
2557.00,98.99
2556.00,98.98
2555.00,98.95
2554.00,98.93
2553.00,98.92
2552.00,98.92
2551.00,98.93
2550.00,98.93
2549.00,98.93
2548.00,98.94
2547.00,98.95
2546.00,98.97
2545.00,98.98
2544.00,98.97
2543.00,98.97
2542.00,98.96
2541.00,98.96
2540.00,98.96
2539.00,98.96
2538.00,98.96
2537.00,98.95
2536.00,98.94
2535.00,98.94
2534.00,98.94
2533.00,98.95
2532.00,98.95
2531.00,98.95
2530.00,98.94
2529.00,98.94
2528.00,98.93
2527.00,98.92
2526.00,98.91
2525.00,98.91
2524.00,98.91
2523.00,98.92
2522.00,98.93
2521.00,98.93
2520.00,98.92
2519.00,98.91
2518.00,98.90
2517.00,98.91
2516.00,98.91
2515.00,98.91
2514.00,98.91
2513.00,98.90
2512.00,98.91
2511.00,98.93
2510.00,98.96
2509.00,98.98
2508.00,98.98
2507.00,98.97
2506.00,98.96
2505.00,98.96
2504.00,98.96
2503.00,98.97
2502.00,98.99
2501.00,99.00
2500.00,99.01
2499.00,99.00
2498.00,98.98
2497.00,98.98
2496.00,98.99
2495.00,99.01
2494.00,99.02
2493.00,99.00
2492.00,98.96
2491.00,98.92
2490.00,98.90
2489.00,98.90
2488.00,98.91
2487.00,98.93
2486.00,98.96
2485.00,98.98
2484.00,98.99
2483.00,98.99
2482.00,99.00
2481.00,99.01
2480.00,99.03
2479.00,99.04
2478.00,99.03
2477.00,99.01
2476.00,98.97
2475.00,98.94
2474.00,98.92
2473.00,98.92
2472.00,98.93
2471.00,98.95
2470.00,98.97
2469.00,98.99
2468.00,99.00
2467.00,99.00
2466.00,98.99
2465.00,98.99
2464.00,98.99
2463.00,99.00
2462.00,99.01
2461.00,99.02
2460.00,99.03
2459.00,99.03
2458.00,99.01
2457.00,98.99
2456.00,98.97
2455.00,98.95
2454.00,98.94
2453.00,98.93
2452.00,98.94
2451.00,98.96
2450.00,98.99
2449.00,99.01
2448.00,99.02
2447.00,99.01
2446.00,99.03
2445.00,99.05
2444.00,99.07
2443.00,99.05
2442.00,99.03
2441.00,99.00
2440.00,98.98
2439.00,98.98
2438.00,98.98
2437.00,98.99
2436.00,98.99
2435.00,98.99
2434.00,99.00
2433.00,99.01
2432.00,99.01
2431.00,99.00
2430.00,98.98
2429.00,98.97
2428.00,98.96
2427.00,98.96
2426.00,98.95
2425.00,98.95
2424.00,98.96
2423.00,98.98
2422.00,98.99
2421.00,99.00
2420.00,98.99
2419.00,98.98
2418.00,98.98
2417.00,98.99
2416.00,99.00
2415.00,98.99
2414.00,98.97
2413.00,98.96
2412.00,98.96
2411.00,98.96
2410.00,98.95
2409.00,98.95
2408.00,98.97
2407.00,99.00
2406.00,99.02
2405.00,99.02
2404.00,99.00
2403.00,98.98
2402.00,98.97
2401.00,98.97
2400.00,98.98
2399.00,98.99
2398.00,99.01
2397.00,99.01
2396.00,99.00
2395.00,98.98
2394.00,98.97
2393.00,98.98
2392.00,98.99
2391.00,99.01
2390.00,99.01
2389.00,99.01
2388.00,99.00
2387.00,99.00
2386.00,99.00
2385.00,99.01
2384.00,99.04
2383.00,99.07
2382.00,99.12
2381.00,99.17
2380.00,99.21
2379.00,99.24
2378.00,99.28
2377.00,99.32
2376.00,99.36
2375.00,99.39
2374.00,99.39
2373.00,99.36
2372.00,99.34
2371.00,99.32
2370.00,99.32
2369.00,99.34
2368.00,99.38
2367.00,99.43
2366.00,99.48
2365.00,99.51
2364.00,99.49
2363.00,99.42
2362.00,99.36
2361.00,99.36
2360.00,99.41
2359.00,99.46
2358.00,99.48
2357.00,99.48
2356.00,99.47
2355.00,99.48
2354.00,99.50
2353.00,99.50
2352.00,99.49
2351.00,99.50
2350.00,99.53
2349.00,99.61
2348.00,99.69
2347.00,99.72
2346.00,99.68
2345.00,99.59
2344.00,99.52
2343.00,99.53
2342.00,99.57
2341.00,99.59
2340.00,99.58
2339.00,99.55
2338.00,99.52
2337.00,99.49
2336.00,99.48
2335.00,99.48
2334.00,99.48
2333.00,99.49
2332.00,99.49
2331.00,99.51
2330.00,99.52
2329.00,99.53
2328.00,99.50
2327.00,99.45
2326.00,99.39
2325.00,99.33
2324.00,99.31
2323.00,99.32
2322.00,99.33
2321.00,99.33
2320.00,99.31
2319.00,99.29
2318.00,99.27
2317.00,99.24
2316.00,99.22
2315.00,99.21
2314.00,99.23
2313.00,99.26
2312.00,99.29
2311.00,99.30
2310.00,99.30
2309.00,99.28
2308.00,99.26
2307.00,99.23
2306.00,99.20
2305.00,99.16
2304.00,99.12
2303.00,99.09
2302.00,99.07
2301.00,99.05
2300.00,99.04
2299.00,99.03
2298.00,99.02
2297.00,99.00
2296.00,98.98
2295.00,98.94
2294.00,98.89
2293.00,98.87
2292.00,98.86
2291.00,98.87
2290.00,98.87
2289.00,98.85
2288.00,98.83
2287.00,98.80
2286.00,98.77
2285.00,98.75
2284.00,98.74
2283.00,98.74
2282.00,98.72
2281.00,98.71
2280.00,98.69
2279.00,98.70
2278.00,98.72
2277.00,98.75
2276.00,98.75
2275.00,98.72
2274.00,98.68
2273.00,98.64
2272.00,98.63
2271.00,98.62
2270.00,98.62
2269.00,98.61
2268.00,98.62
2267.00,98.63
2266.00,98.65
2265.00,98.66
2264.00,98.64
2263.00,98.62
2262.00,98.61
2261.00,98.61
2260.00,98.60
2259.00,98.56
2258.00,98.51
2257.00,98.47
2256.00,98.46
2255.00,98.47
2254.00,98.49
2253.00,98.50
2252.00,98.49
2251.00,98.48
2250.00,98.46
2249.00,98.46
2248.00,98.47
2247.00,98.51
2246.00,98.56
2245.00,98.59
2244.00,98.59
2243.00,98.55
2242.00,98.50
2241.00,98.47
2240.00,98.46
2239.00,98.47
2238.00,98.49
2237.00,98.49
2236.00,98.45
2235.00,98.40
2234.00,98.36
2233.00,98.36
2232.00,98.41
2231.00,98.45
2230.00,98.47
2229.00,98.46
2228.00,98.45
2227.00,98.44
2226.00,98.44
2225.00,98.44
2224.00,98.45
2223.00,98.45
2222.00,98.43
2221.00,98.40
2220.00,98.37
2219.00,98.35
2218.00,98.33
2217.00,98.31
2216.00,98.28
2215.00,98.25
2214.00,98.23
2213.00,98.22
2212.00,98.22
2211.00,98.21
2210.00,98.20
2209.00,98.20
2208.00,98.22
2207.00,98.25
2206.00,98.27
2205.00,98.27
2204.00,98.25
2203.00,98.25
2202.00,98.27
2201.00,98.31
2200.00,98.35
2199.00,98.37
2198.00,98.36
2197.00,98.32
2196.00,98.28
2195.00,98.25
2194.00,98.23
2193.00,98.22
2192.00,98.22
2191.00,98.23
2190.00,98.24
2189.00,98.25
2188.00,98.27
2187.00,98.29
2186.00,98.29
2185.00,98.26
2184.00,98.22
2183.00,98.19
2182.00,98.19
2181.00,98.19
2180.00,98.19
2179.00,98.19
2178.00,98.20
2177.00,98.22
2176.00,98.23
2175.00,98.25
2174.00,98.24
2173.00,98.20
2172.00,98.15
2171.00,98.13
2170.00,98.14
2169.00,98.12
2168.00,98.05
2167.00,97.94
2166.00,97.85
2165.00,97.80
2164.00,97.77
2163.00,97.74
2162.00,97.71
2161.00,97.68
2160.00,97.71
2159.00,97.82
2158.00,97.99
2157.00,98.15
2156.00,98.22
2155.00,98.25
2154.00,98.26
2153.00,98.27
2152.00,98.29
2151.00,98.32
2150.00,98.36
2149.00,98.41
2148.00,98.42
2147.00,98.41
2146.00,98.36
2145.00,98.33
2144.00,98.31
2143.00,98.31
2142.00,98.34
2141.00,98.37
2140.00,98.41
2139.00,98.43
2138.00,98.46
2137.00,98.51
2136.00,98.57
2135.00,98.62
2134.00,98.66
2133.00,98.67
2132.00,98.66
2131.00,98.64
2130.00,98.61
2129.00,98.58
2128.00,98.56
2127.00,98.56
2126.00,98.59
2125.00,98.62
2124.00,98.64
2123.00,98.67
2122.00,98.69
2121.00,98.71
2120.00,98.71
2119.00,98.69
2118.00,98.67
2117.00,98.65
2116.00,98.63
2115.00,98.61
2114.00,98.59
2113.00,98.57
2112.00,98.56
2111.00,98.55
2110.00,98.55
2109.00,98.56
2108.00,98.59
2107.00,98.60
2106.00,98.59
2105.00,98.55
2104.00,98.50
2103.00,98.46
2102.00,98.46
2101.00,98.48
2100.00,98.50
2099.00,98.51
2098.00,98.51
2097.00,98.51
2096.00,98.53
2095.00,98.57
2094.00,98.61
2093.00,98.64
2092.00,98.67
2091.00,98.68
2090.00,98.67
2089.00,98.64
2088.00,98.60
2087.00,98.56
2086.00,98.52
2085.00,98.49
2084.00,98.48
2083.00,98.46
2082.00,98.45
2081.00,98.46
2080.00,98.47
2079.00,98.50
2078.00,98.51
2077.00,98.52
2076.00,98.52
2075.00,98.54
2074.00,98.57
2073.00,98.60
2072.00,98.60
2071.00,98.56
2070.00,98.51
2069.00,98.48
2068.00,98.49
2067.00,98.52
2066.00,98.56
2065.00,98.59
2064.00,98.59
2063.00,98.56
2062.00,98.51
2061.00,98.46
2060.00,98.43
2059.00,98.42
2058.00,98.44
2057.00,98.47
2056.00,98.50
2055.00,98.52
2054.00,98.52
2053.00,98.51
2052.00,98.49
2051.00,98.45
2050.00,98.41
2049.00,98.40
2048.00,98.41
2047.00,98.43
2046.00,98.43
2045.00,98.40
2044.00,98.36
2043.00,98.33
2042.00,98.30
2041.00,98.27
2040.00,98.24
2039.00,98.22
2038.00,98.24
2037.00,98.26
2036.00,98.24
2035.00,98.19
2034.00,98.13
2033.00,98.10
2032.00,98.13
2031.00,98.18
2030.00,98.21
2029.00,98.19
2028.00,98.12
2027.00,98.05
2026.00,98.03
2025.00,98.07
2024.00,98.13
2023.00,98.19
2022.00,98.23
2021.00,98.27
2020.00,98.32
2019.00,98.37
2018.00,98.38
2017.00,98.35
2016.00,98.31
2015.00,98.29
2014.00,98.30
2013.00,98.30
2012.00,98.27
2011.00,98.23
2010.00,98.19
2009.00,98.17
2008.00,98.20
2007.00,98.25
2006.00,98.30
2005.00,98.35
2004.00,98.40
2003.00,98.45
2002.00,98.50
2001.00,98.54
2000.00,98.55
1999.00,98.55
1998.00,98.54
1997.00,98.53
1996.00,98.52
1995.00,98.52
1994.00,98.53
1993.00,98.53
1992.00,98.51
1991.00,98.47
1990.00,98.41
1989.00,98.34
1988.00,98.26
1987.00,98.20
1986.00,98.13
1985.00,98.08
1984.00,98.03
1983.00,98.00
1982.00,97.98
1981.00,97.96
1980.00,97.98
1979.00,98.04
1978.00,98.13
1977.00,98.18
1976.00,98.18
1975.00,98.16
1974.00,98.15
1973.00,98.14
1972.00,98.16
1971.00,98.19
1970.00,98.22
1969.00,98.24
1968.00,98.22
1967.00,98.19
1966.00,98.17
1965.00,98.17
1964.00,98.17
1963.00,98.17
1962.00,98.17
1961.00,98.18
1960.00,98.19
1959.00,98.21
1958.00,98.25
1957.00,98.32
1956.00,98.39
1955.00,98.43
1954.00,98.44
1953.00,98.44
1952.00,98.42
1951.00,98.39
1950.00,98.37
1949.00,98.38
1948.00,98.43
1947.00,98.49
1946.00,98.54
1945.00,98.58
1944.00,98.59
1943.00,98.59
1942.00,98.58
1941.00,98.57
1940.00,98.58
1939.00,98.59
1938.00,98.62
1937.00,98.66
1936.00,98.70
1935.00,98.71
1934.00,98.68
1933.00,98.64
1932.00,98.63
1931.00,98.66
1930.00,98.71
1929.00,98.75
1928.00,98.77
1927.00,98.77
1926.00,98.76
1925.00,98.75
1924.00,98.75
1923.00,98.76
1922.00,98.78
1921.00,98.81
1920.00,98.83
1919.00,98.83
1918.00,98.82
1917.00,98.83
1916.00,98.86
1915.00,98.91
1914.00,98.95
1913.00,98.97
1912.00,98.99
1911.00,99.01
1910.00,99.02
1909.00,99.04
1908.00,99.06
1907.00,99.07
1906.00,99.08
1905.00,99.07
1904.00,99.06
1903.00,99.06
1902.00,99.06
1901.00,99.05
1900.00,99.04
1899.00,99.05
1898.00,99.07
1897.00,99.09
1896.00,99.10
1895.00,99.12
1894.00,99.14
1893.00,99.17
1892.00,99.19
1891.00,99.20
1890.00,99.20
1889.00,99.19
1888.00,99.18
1887.00,99.19
1886.00,99.19
1885.00,99.19
1884.00,99.18
1883.00,99.17
1882.00,99.15
1881.00,99.13
1880.00,99.11
1879.00,99.10
1878.00,99.10
1877.00,99.10
1876.00,99.11
1875.00,99.12
1874.00,99.15
1873.00,99.17
1872.00,99.20
1871.00,99.22
1870.00,99.24
1869.00,99.27
1868.00,99.31
1867.00,99.34
1866.00,99.34
1865.00,99.33
1864.00,99.32
1863.00,99.31
1862.00,99.29
1861.00,99.28
1860.00,99.26
1859.00,99.24
1858.00,99.22
1857.00,99.20
1856.00,99.19
1855.00,99.18
1854.00,99.19
1853.00,99.19
1852.00,99.20
1851.00,99.19
1850.00,99.18
1849.00,99.19
1848.00,99.20
1847.00,99.21
1846.00,99.21
1845.00,99.21
1844.00,99.19
1843.00,99.17
1842.00,99.17
1841.00,99.19
1840.00,99.20
1839.00,99.20
1838.00,99.20
1837.00,99.19
1836.00,99.20
1835.00,99.20
1834.00,99.21
1833.00,99.21
1832.00,99.20
1831.00,99.18
1830.00,99.17
1829.00,99.17
1828.00,99.18
1827.00,99.19
1826.00,99.19
1825.00,99.19
1824.00,99.19
1823.00,99.18
1822.00,99.17
1821.00,99.16
1820.00,99.15
1819.00,99.16
1818.00,99.16
1817.00,99.16
1816.00,99.17
1815.00,99.18
1814.00,99.19
1813.00,99.22
1812.00,99.23
1811.00,99.23
1810.00,99.23
1809.00,99.23
1808.00,99.24
1807.00,99.24
1806.00,99.25
1805.00,99.26
1804.00,99.27
1803.00,99.29
1802.00,99.32
1801.00,99.35
1800.00,99.38
1799.00,99.40
1798.00,99.40
1797.00,99.41
1796.00,99.42
1795.00,99.44
1794.00,99.44
1793.00,99.43
1792.00,99.41
1791.00,99.41
1790.00,99.42
1789.00,99.43
1788.00,99.43
1787.00,99.42
1786.00,99.41
1785.00,99.40
1784.00,99.40
1783.00,99.40
1782.00,99.40
1781.00,99.41
1780.00,99.42
1779.00,99.43
1778.00,99.44
1777.00,99.45
1776.00,99.47
1775.00,99.47
1774.00,99.47
1773.00,99.46
1772.00,99.44
1771.00,99.43
1770.00,99.43
1769.00,99.43
1768.00,99.42
1767.00,99.41
1766.00,99.39
1765.00,99.37
1764.00,99.35
1763.00,99.32
1762.00,99.29
1761.00,99.28
1760.00,99.27
1759.00,99.26
1758.00,99.22
1757.00,99.17
1756.00,99.11
1755.00,99.05
1754.00,98.97
1753.00,98.88
1752.00,98.74
1751.00,98.57
1750.00,98.38
1749.00,98.18
1748.00,97.95
1747.00,97.66
1746.00,97.29
1745.00,96.85
1744.00,96.36
1743.00,95.83
1742.00,95.27
1741.00,94.67
1740.00,93.99
1739.00,93.31
1738.00,92.71
1737.00,92.19
1736.00,91.64
1735.00,90.91
1734.00,90.03
1733.00,89.25
1732.00,88.64
1731.00,88.06
1730.00,87.43
1729.00,86.74
1728.00,86.06
1727.00,85.39
1726.00,84.71
1725.00,84.04
1724.00,83.38
1723.00,82.72
1722.00,82.08
1721.00,81.48
1720.00,80.87
1719.00,80.16
1718.00,79.39
1717.00,78.74
1716.00,78.31
1715.00,78.00
1714.00,77.78
1713.00,77.70
1712.00,77.80
1711.00,78.03
1710.00,78.40
1709.00,78.92
1708.00,79.57
1707.00,80.33
1706.00,81.21
1705.00,82.12
1704.00,82.92
1703.00,83.57
1702.00,84.21
1701.00,85.03
1700.00,85.97
1699.00,86.71
1698.00,87.27
1697.00,87.83
1696.00,88.44
1695.00,88.99
1694.00,89.38
1693.00,89.67
1692.00,89.96
1691.00,90.26
1690.00,90.55
1689.00,90.82
1688.00,91.04
1687.00,91.22
1686.00,91.37
1685.00,91.56
1684.00,91.79
1683.00,92.01
1682.00,92.19
1681.00,92.36
1680.00,92.53
1679.00,92.71
1678.00,92.87
1677.00,93.01
1676.00,93.16
1675.00,93.31
1674.00,93.46
1673.00,93.62
1672.00,93.79
1671.00,93.97
1670.00,94.17
1669.00,94.35
1668.00,94.50
1667.00,94.63
1666.00,94.74
1665.00,94.87
1664.00,95.01
1663.00,95.15
1662.00,95.29
1661.00,95.42
1660.00,95.54
1659.00,95.64
1658.00,95.73
1657.00,95.82
1656.00,95.90
1655.00,95.97
1654.00,96.06
1653.00,96.16
1652.00,96.26
1651.00,96.34
1650.00,96.41
1649.00,96.48
1648.00,96.54
1647.00,96.59
1646.00,96.66
1645.00,96.70
1644.00,96.71
1643.00,96.72
1642.00,96.75
1641.00,96.79
1640.00,96.83
1639.00,96.86
1638.00,96.89
1637.00,96.92
1636.00,96.96
1635.00,97.00
1634.00,97.03
1633.00,97.05
1632.00,97.08
1631.00,97.13
1630.00,97.16
1629.00,97.19
1628.00,97.21
1627.00,97.22
1626.00,97.23
1625.00,97.25
1624.00,97.27
1623.00,97.28
1622.00,97.28
1621.00,97.29
1620.00,97.29
1619.00,97.28
1618.00,97.26
1617.00,97.22
1616.00,97.18
1615.00,97.18
1614.00,97.20
1613.00,97.23
1612.00,97.26
1611.00,97.28
1610.00,97.32
1609.00,97.37
1608.00,97.42
1607.00,97.49
1606.00,97.56
1605.00,97.63
1604.00,97.68
1603.00,97.72
1602.00,97.75
1601.00,97.77
1600.00,97.79
1599.00,97.79
1598.00,97.80
1597.00,97.82
1596.00,97.86
1595.00,97.89
1594.00,97.92
1593.00,97.92
1592.00,97.92
1591.00,97.91
1590.00,97.90
1589.00,97.89
1588.00,97.87
1587.00,97.83
1586.00,97.77
1585.00,97.69
1584.00,97.59
1583.00,97.47
1582.00,97.35
1581.00,97.23
1580.00,97.12
1579.00,97.06
1578.00,97.05
1577.00,97.10
1576.00,97.22
1575.00,97.35
1574.00,97.46
1573.00,97.55
1572.00,97.62
1571.00,97.69
1570.00,97.76
1569.00,97.83
1568.00,97.90
1567.00,97.96
1566.00,98.01
1565.00,98.05
1564.00,98.09
1563.00,98.12
1562.00,98.14
1561.00,98.17
1560.00,98.19
1559.00,98.20
1558.00,98.23
1557.00,98.28
1556.00,98.28
1555.00,98.30
1554.00,98.32
1553.00,98.33
1552.00,98.33
1551.00,98.34
1550.00,98.36
1549.00,98.38
1548.00,98.38
1547.00,98.39
1546.00,98.39
1545.00,98.41
1544.00,98.45
1543.00,98.50
1542.00,98.54
1541.00,98.56
1540.00,98.56
1539.00,98.56
1538.00,98.54
1537.00,98.51
1536.00,98.48
1535.00,98.45
1534.00,98.43
1533.00,98.42
1532.00,98.43
1531.00,98.43
1530.00,98.42
1529.00,98.40
1528.00,98.38
1527.00,98.38
1526.00,98.41
1525.00,98.43
1524.00,98.45
1523.00,98.45
1522.00,98.47
1521.00,98.50
1520.00,98.54
1519.00,98.55
1518.00,98.55
1517.00,98.54
1516.00,98.53
1515.00,98.51
1514.00,98.46
1513.00,98.36
1512.00,98.23
1511.00,98.08
1510.00,97.91
1509.00,97.69
1508.00,97.34
1507.00,96.89
1506.00,96.54
1505.00,96.42
1504.00,96.47
1503.00,96.70
1502.00,97.03
1501.00,97.35
1500.00,97.65
1499.00,97.89
1498.00,98.09
1497.00,98.24
1496.00,98.36
1495.00,98.44
1494.00,98.48
1493.00,98.48
1492.00,98.47
1491.00,98.46
1490.00,98.45
1489.00,98.44
1488.00,98.42
1487.00,98.36
1486.00,98.27
1485.00,98.17
1484.00,98.08
1483.00,97.98
1482.00,97.87
1481.00,97.77
1480.00,97.67
1479.00,97.58
1478.00,97.48
1477.00,97.37
1476.00,97.25
1475.00,97.13
1474.00,97.02
1473.00,96.92
1472.00,96.85
1471.00,96.84
1470.00,96.87
1469.00,96.94
1468.00,97.02
1467.00,97.08
1466.00,97.11
1465.00,97.10
1464.00,97.07
1463.00,97.03
1462.00,97.00
1461.00,96.97
1460.00,96.92
1459.00,96.86
1458.00,96.80
1457.00,96.75
1456.00,96.73
1455.00,96.72
1454.00,96.71
1453.00,96.72
1452.00,96.73
1451.00,96.76
1450.00,96.79
1449.00,96.84
1448.00,96.89
1447.00,96.93
1446.00,96.95
1445.00,96.96
1444.00,96.98
1443.00,97.00
1442.00,97.03
1441.00,97.06
1440.00,97.09
1439.00,97.14
1438.00,97.22
1437.00,97.31
1436.00,97.41
1435.00,97.52
1434.00,97.63
1433.00,97.73
1432.00,97.84
1431.00,97.93
1430.00,98.02
1429.00,98.10
1428.00,98.15
1427.00,98.18
1426.00,98.20
1425.00,98.20
1424.00,98.19
1423.00,98.15
1422.00,98.09
1421.00,97.97
1420.00,97.76
1419.00,97.46
1418.00,97.09
1417.00,96.66
1416.00,96.10
1415.00,95.41
1414.00,94.60
1413.00,93.74
1412.00,92.92
1411.00,92.23
1410.00,91.75
1409.00,91.51
1408.00,91.52
1407.00,91.77
1406.00,92.24
1405.00,92.82
1404.00,93.43
1403.00,93.97
1402.00,94.41
1401.00,94.80
1400.00,95.16
1399.00,95.50
1398.00,95.79
1397.00,96.02
1396.00,96.22
1395.00,96.38
1394.00,96.52
1393.00,96.61
1392.00,96.67
1391.00,96.70
1390.00,96.72
1389.00,96.73
1388.00,96.73
1387.00,96.74
1386.00,96.76
1385.00,96.76
1384.00,96.75
1383.00,96.73
1382.00,96.71
1381.00,96.70
1380.00,96.69
1379.00,96.69
1378.00,96.69
1377.00,96.67
1376.00,96.63
1375.00,96.59
1374.00,96.55
1373.00,96.51
1372.00,96.48
1371.00,96.45
1370.00,96.46
1369.00,96.52
1368.00,96.62
1367.00,96.75
1366.00,96.89
1365.00,97.03
1364.00,97.17
1363.00,97.32
1362.00,97.47
1361.00,97.58
1360.00,97.64
1359.00,97.66
1358.00,97.66
1357.00,97.64
1356.00,97.61
1355.00,97.57
1354.00,97.49
1353.00,97.38
1352.00,97.22
1351.00,97.00
1350.00,96.72
1349.00,96.35
1348.00,95.89
1347.00,95.34
1346.00,94.70
1345.00,94.00
1344.00,93.28
1343.00,92.62
1342.00,92.07
1341.00,91.69
1340.00,91.54
1339.00,91.64
1338.00,91.98
1337.00,92.48
1336.00,93.09
1335.00,93.74
1334.00,94.42
1333.00,95.07
1332.00,95.65
1331.00,96.15
1330.00,96.54
1329.00,96.83
1328.00,97.03
1327.00,97.15
1326.00,97.23
1325.00,97.26
1324.00,97.26
1323.00,97.23
1322.00,97.19
1321.00,97.14
1320.00,97.09
1319.00,97.04
1318.00,96.98
1317.00,96.91
1316.00,96.83
1315.00,96.73
1314.00,96.62
1313.00,96.50
1312.00,96.36
1311.00,96.21
1310.00,96.03
1309.00,95.85
1308.00,95.67
1307.00,95.50
1306.00,95.34
1305.00,95.17
1304.00,94.98
1303.00,94.77
1302.00,94.52
1301.00,94.23
1300.00,93.92
1299.00,93.57
1298.00,93.21
1297.00,92.83
1296.00,92.45
1295.00,92.06
1294.00,91.68
1293.00,91.30
1292.00,90.93
1291.00,90.58
1290.00,90.25
1289.00,89.93
1288.00,89.61
1287.00,89.29
1286.00,88.97
1285.00,88.64
1284.00,88.32
1283.00,88.02
1282.00,87.73
1281.00,87.44
1280.00,87.13
1279.00,86.82
1278.00,86.52
1277.00,86.21
1276.00,85.88
1275.00,85.54
1274.00,85.18
1273.00,84.79
1272.00,84.37
1271.00,83.92
1270.00,83.47
1269.00,83.03
1268.00,82.58
1267.00,82.13
1266.00,81.69
1265.00,81.27
1264.00,80.87
1263.00,80.52
1262.00,80.20
1261.00,79.93
1260.00,79.70
1259.00,79.50
1258.00,79.33
1257.00,79.15
1256.00,78.95
1255.00,78.75
1254.00,78.55
1253.00,78.34
1252.00,78.10
1251.00,77.84
1250.00,77.56
1249.00,77.28
1248.00,76.99
1247.00,76.72
1246.00,76.48
1245.00,76.26
1244.00,76.07
1243.00,75.93
1242.00,75.84
1241.00,75.81
1240.00,75.87
1239.00,76.01
1238.00,76.25
1237.00,76.56
1236.00,76.96
1235.00,77.43
1234.00,77.98
1233.00,78.57
1232.00,79.19
1231.00,79.84
1230.00,80.48
1229.00,81.09
1228.00,81.66
1227.00,82.20
1226.00,82.70
1225.00,83.16
1224.00,83.59
1223.00,84.01
1222.00,84.43
1221.00,84.84
1220.00,85.26
1219.00,85.68
1218.00,86.11
1217.00,86.53
1216.00,86.92
1215.00,87.30
1214.00,87.66
1213.00,88.01
1212.00,88.36
1211.00,88.68
1210.00,88.98
1209.00,89.26
1208.00,89.54
1207.00,89.82
1206.00,90.10
1205.00,90.36
1204.00,90.61
1203.00,90.84
1202.00,91.07
1201.00,91.32
1200.00,91.57
1199.00,91.82
1198.00,92.07
1197.00,92.32
1196.00,92.55
1195.00,92.77
1194.00,92.97
1193.00,93.15
1192.00,93.33
1191.00,93.48
1190.00,93.62
1189.00,93.73
1188.00,93.83
1187.00,93.93
1186.00,94.01
1185.00,94.08
1184.00,94.11
1183.00,94.11
1182.00,94.07
1181.00,94.01
1180.00,93.96
1179.00,93.91
1178.00,93.88
1177.00,93.85
1176.00,93.83
1175.00,93.84
1174.00,93.89
1173.00,93.99
1172.00,94.12
1171.00,94.30
1170.00,94.48
1169.00,94.67
1168.00,94.86
1167.00,95.03
1166.00,95.18
1165.00,95.31
1164.00,95.42
1163.00,95.49
1162.00,95.53
1161.00,95.55
1160.00,95.56
1159.00,95.58
1158.00,95.59
1157.00,95.57
1156.00,95.51
1155.00,95.42
1154.00,95.31
1153.00,95.17
1152.00,95.03
1151.00,94.87
1150.00,94.70
1149.00,94.52
1148.00,94.31
1147.00,94.07
1146.00,93.81
1145.00,93.53
1144.00,93.21
1143.00,92.86
1142.00,92.47
1141.00,92.06
1140.00,91.64
1139.00,91.19
1138.00,90.71
1137.00,90.17
1136.00,89.58
1135.00,88.96
1134.00,88.33
1133.00,87.69
1132.00,87.05
1131.00,86.43
1130.00,85.84
1129.00,85.29
1128.00,84.78
1127.00,84.31
1126.00,83.89
1125.00,83.49
1124.00,83.12
1123.00,82.78
1122.00,82.48
1121.00,82.23
1120.00,82.06
1119.00,81.95
1118.00,81.92
1117.00,81.93
1116.00,81.98
1115.00,82.06
1114.00,82.11
1113.00,82.11
1112.00,82.06
1111.00,81.94
1110.00,81.77
1109.00,81.52
1108.00,81.18
1107.00,80.78
1106.00,80.35
1105.00,79.90
1104.00,79.45
1103.00,79.01
1102.00,78.59
1101.00,78.22
1100.00,77.89
1099.00,77.62
1098.00,77.40
1097.00,77.22
1096.00,77.08
1095.00,77.00
1094.00,76.99
1093.00,77.04
1092.00,77.14
1091.00,77.27
1090.00,77.44
1089.00,77.61
1088.00,77.78
1087.00,77.98
1086.00,78.24
1085.00,78.54
1084.00,78.87
1083.00,79.22
1082.00,79.60
1081.00,79.99
1080.00,80.43
1079.00,80.93
1078.00,81.47
1077.00,82.04
1076.00,82.60
1075.00,83.14
1074.00,83.64
1073.00,84.10
1072.00,84.53
1071.00,84.95
1070.00,85.36
1069.00,85.75
1068.00,86.12
1067.00,86.46
1066.00,86.77
1065.00,87.07
1064.00,87.35
1063.00,87.60
1062.00,87.81
1061.00,88.01
1060.00,88.21
1059.00,88.43
1058.00,88.63
1057.00,88.81
1056.00,88.93
1055.00,89.00
1054.00,89.02
1053.00,89.01
1052.00,89.00
1051.00,89.00
1050.00,88.99
1049.00,88.97
1048.00,88.94
1047.00,88.93
1046.00,88.93
1045.00,88.93
1044.00,88.92
1043.00,88.93
1042.00,88.97
1041.00,89.05
1040.00,89.15
1039.00,89.27
1038.00,89.40
1037.00,89.53
1036.00,89.66
1035.00,89.81
1034.00,89.98
1033.00,90.16
1032.00,90.32
1031.00,90.43
1030.00,90.49
1029.00,90.44
1028.00,90.25
1027.00,89.85
1026.00,89.22
1025.00,88.41
1024.00,87.50
1023.00,86.55
1022.00,85.61
1021.00,84.67
1020.00,83.76
1019.00,82.97
1018.00,82.39
1017.00,82.16
1016.00,82.34
1015.00,82.91
1014.00,83.78
1013.00,84.77
1012.00,85.74
1011.00,86.60
1010.00,87.33
1009.00,87.92
1008.00,88.42
1007.00,88.84
1006.00,89.21
1005.00,89.54
1004.00,89.81
1003.00,90.04
1002.00,90.23
1001.00,90.40
1000.00,90.56
999.00,90.70
998.00,90.83
997.00,90.95
996.00,91.07
995.00,91.18
994.00,91.26
993.00,91.32
992.00,91.35
991.00,91.37
990.00,91.39
989.00,91.42
988.00,91.46
987.00,91.48
986.00,91.48
985.00,91.47
984.00,91.46
983.00,91.44
982.00,91.38
981.00,91.28
980.00,91.14
979.00,91.00
978.00,90.84
977.00,90.68
976.00,90.49
975.00,90.29
974.00,90.10
973.00,89.95
972.00,89.85
971.00,89.80
970.00,89.80
969.00,89.88
968.00,90.01
967.00,90.18
966.00,90.36
965.00,90.53
964.00,90.71
963.00,90.90
962.00,91.09
961.00,91.28
960.00,91.45
959.00,91.60
958.00,91.74
957.00,91.88
956.00,92.02
955.00,92.13
954.00,92.23
953.00,92.33
952.00,92.44
951.00,92.55
950.00,92.65
949.00,92.72
948.00,92.79
947.00,92.85
946.00,92.91
945.00,92.96
944.00,93.02
943.00,93.07
942.00,93.13
941.00,93.17
940.00,93.22
939.00,93.28
938.00,93.35
937.00,93.40
936.00,93.44
935.00,93.47
934.00,93.51
933.00,93.54
932.00,93.58
931.00,93.61
930.00,93.66
929.00,93.70
928.00,93.74
927.00,93.77
926.00,93.82
925.00,93.86
924.00,93.90
923.00,93.92
922.00,93.95
921.00,93.96
920.00,93.97
919.00,93.96
918.00,93.96
917.00,93.97
916.00,93.97
915.00,93.95
914.00,93.91
913.00,93.88
912.00,93.86
911.00,93.84
910.00,93.78
909.00,93.69
908.00,93.57
907.00,93.45
906.00,93.35
905.00,93.26
904.00,93.19
903.00,93.11
902.00,93.03
901.00,92.97
900.00,92.92
899.00,92.89
898.00,92.85
897.00,92.82
896.00,92.80
895.00,92.81
894.00,92.85
893.00,92.91
892.00,92.96
891.00,92.98
890.00,92.98
889.00,92.96
888.00,92.92
887.00,92.85
886.00,92.74
885.00,92.59
884.00,92.39
883.00,92.14
882.00,91.83
881.00,91.47
880.00,91.06
879.00,90.59
878.00,90.06
877.00,89.41
876.00,88.61
875.00,87.67
874.00,86.69
873.00,85.91
872.00,85.58
871.00,85.80
870.00,86.45
869.00,87.27
868.00,88.04
867.00,88.69
866.00,89.21
865.00,89.63
864.00,89.95
863.00,90.18
862.00,90.31
861.00,90.37
860.00,90.40
859.00,90.42
858.00,90.44
857.00,90.44
856.00,90.42
855.00,90.39
854.00,90.36
853.00,90.30
852.00,90.20
851.00,90.06
850.00,89.88
849.00,89.72
848.00,89.61
847.00,89.57
846.00,89.59
845.00,89.65
844.00,89.74
843.00,89.86
842.00,90.03
841.00,90.22
840.00,90.42
839.00,90.62
838.00,90.80
837.00,90.96
836.00,91.13
835.00,91.30
834.00,91.46
833.00,91.61
832.00,91.74
831.00,91.88
830.00,92.04
829.00,92.21
828.00,92.36
827.00,92.48
826.00,92.55
825.00,92.60
824.00,92.62
823.00,92.64
822.00,92.68
821.00,92.73
820.00,92.78
819.00,92.82
818.00,92.86
817.00,92.91
816.00,92.95
815.00,92.98
814.00,93.00
813.00,92.99
812.00,92.97
811.00,92.95
810.00,92.94
809.00,92.95
808.00,92.99
807.00,93.04
806.00,93.09
805.00,93.14
804.00,93.18
803.00,93.23
802.00,93.29
801.00,93.33
800.00,93.34
799.00,93.27
798.00,93.12
797.00,92.87
796.00,92.56
795.00,92.24
794.00,91.96
793.00,91.80
792.00,91.79
791.00,91.92
790.00,92.13
789.00,92.39
788.00,92.64
787.00,92.86
786.00,93.04
785.00,93.20
784.00,93.35
783.00,93.52
782.00,93.70
781.00,93.87
780.00,94.02
779.00,94.12
778.00,94.18
777.00,94.24
776.00,94.31
775.00,94.38
774.00,94.44
773.00,94.50
772.00,94.58
771.00,94.70
770.00,94.84
769.00,94.97
768.00,95.07
767.00,95.16
766.00,95.27
765.00,95.41
764.00,95.54
763.00,95.65
762.00,95.72
761.00,95.76
760.00,95.81
759.00,95.87
758.00,95.92
757.00,95.98
756.00,96.04
755.00,96.13
754.00,96.23
753.00,96.31
752.00,96.36
751.00,96.40
750.00,96.46
749.00,96.52
748.00,96.57
747.00,96.58
746.00,96.55
745.00,96.47
744.00,96.31
743.00,96.03
742.00,95.59
741.00,94.98
740.00,94.18
739.00,93.17
738.00,91.93
737.00,90.50
736.00,88.93
735.00,87.29
734.00,85.61
733.00,83.91
732.00,82.22
731.00,80.50
730.00,78.74
729.00,76.94
728.00,75.09
727.00,73.25
726.00,71.51
725.00,70.02
724.00,68.94
723.00,68.37
722.00,68.33
721.00,68.80
720.00,69.71
719.00,70.93
718.00,72.29
717.00,73.66
716.00,74.94
715.00,76.10
714.00,77.11
713.00,77.97
712.00,78.68
711.00,79.29
710.00,79.83
709.00,80.35
708.00,80.84
707.00,81.31
706.00,81.77
705.00,82.21
704.00,82.62
703.00,83.01
702.00,83.38
701.00,83.78
700.00,84.22
699.00,84.67
698.00,85.12
697.00,85.53
696.00,85.91
695.00,86.25
694.00,86.58
693.00,86.90
692.00,87.20
691.00,87.44
690.00,87.63
689.00,87.78
688.00,87.89
687.00,87.99
686.00,88.10
685.00,88.21
684.00,88.30
683.00,88.35
682.00,88.40
681.00,88.46
680.00,88.55
679.00,88.64
678.00,88.73
677.00,88.86
676.00,89.02
675.00,89.21
674.00,89.40
673.00,89.58
672.00,89.73
671.00,89.85
670.00,89.95
669.00,90.09
668.00,90.27
667.00,90.35
666.00,90.39
665.00,90.50
664.00,90.61
663.00,90.64
662.00,90.59
661.00,90.56
660.00,90.56
659.00,90.58
658.00,90.60
657.00,90.63
656.00,90.69
655.00,90.76
654.00,90.83
653.00,90.89
652.00,90.94
651.00,90.98
650.00,91.01
649.00,91.08
648.00,91.23
647.00,91.44
646.00,91.67
645.00,91.82
644.00,91.83
643.00,91.72
642.00,91.57
641.00,91.49
640.00,91.50
639.00,91.54
638.00,91.54
637.00,91.49
636.00,91.35
635.00,91.08
634.00,90.73
633.00,90.47
632.00,90.45
631.00,90.67
630.00,90.99
629.00,91.25
628.00,91.41
627.00,91.52
626.00,91.64
625.00,91.76
624.00,91.83
623.00,91.84
622.00,91.87
621.00,92.01
620.00,92.19
619.00,92.31
618.00,92.33
617.00,92.29
616.00,92.18
615.00,91.95
614.00,91.71
613.00,91.62
612.00,91.70
611.00,91.76
610.00,91.73
609.00,91.73
608.00,91.84
607.00,92.00
606.00,92.08
605.00,92.08
604.00,92.04
603.00,91.88
602.00,91.59
601.00,91.30
600.00,91.28
599.00,91.56
598.00,91.97
597.00,92.31
596.00,92.57
595.00,92.77
594.00,92.92
593.00,92.99
592.00,92.99
591.00,92.99
590.00,93.05
589.00,93.14
588.00,93.15
587.00,92.90
586.00,92.43
585.00,92.02
584.00,91.95
583.00,92.21
582.00,92.53
581.00,92.67
580.00,92.66
579.00,92.67
578.00,92.79
577.00,92.97
576.00,93.01
575.00,92.76
574.00,92.33
573.00,92.07
572.00,92.23
571.00,92.70
570.00,93.11
569.00,93.22
568.00,93.10
567.00,92.93
566.00,92.91
565.00,93.12
564.00,93.45
563.00,93.59
562.00,93.33
561.00,92.84
560.00,92.39
559.00,92.10
558.00,91.94
557.00,91.99
556.00,92.42
555.00,93.12
554.00,93.50
553.00,93.14
552.00,92.12
551.00,91.13
550.00,90.62
