Created as New Dataset,133. Allied Signal Fibers
cm-1,%T
4000.00,92.29
3999.00,92.27
3998.00,92.27
3997.00,92.28
3996.00,92.30
3995.00,92.30
3994.00,92.30
3993.00,92.29
3992.00,92.28
3991.00,92.27
3990.00,92.27
3989.00,92.28
3988.00,92.27
3987.00,92.27
3986.00,92.27
3985.00,92.27
3984.00,92.28
3983.00,92.29
3982.00,92.31
3981.00,92.31
3980.00,92.31
3979.00,92.30
3978.00,92.29
3977.00,92.29
3976.00,92.31
3975.00,92.32
3974.00,92.34
3973.00,92.36
3972.00,92.37
3971.00,92.38
3970.00,92.38
3969.00,92.37
3968.00,92.37
3967.00,92.36
3966.00,92.36
3965.00,92.35
3964.00,92.35
3963.00,92.35
3962.00,92.34
3961.00,92.33
3960.00,92.32
3959.00,92.34
3958.00,92.36
3957.00,92.39
3956.00,92.40
3955.00,92.40
3954.00,92.39
3953.00,92.39
3952.00,92.39
3951.00,92.40
3950.00,92.40
3949.00,92.40
3948.00,92.39
3947.00,92.36
3946.00,92.34
3945.00,92.32
3944.00,92.32
3943.00,92.32
3942.00,92.33
3941.00,92.33
3940.00,92.32
3939.00,92.32
3938.00,92.33
3937.00,92.34
3936.00,92.34
3935.00,92.33
3934.00,92.32
3933.00,92.33
3932.00,92.34
3931.00,92.36
3930.00,92.36
3929.00,92.35
3928.00,92.33
3927.00,92.32
3926.00,92.32
3925.00,92.32
3924.00,92.30
3923.00,92.27
3922.00,92.26
3921.00,92.26
3920.00,92.27
3919.00,92.27
3918.00,92.27
3917.00,92.27
3916.00,92.26
3915.00,92.25
3914.00,92.24
3913.00,92.24
3912.00,92.25
3911.00,92.27
3910.00,92.28
3909.00,92.29
3908.00,92.29
3907.00,92.28
3906.00,92.27
3905.00,92.27
3904.00,92.26
3903.00,92.25
3902.00,92.24
3901.00,92.24
3900.00,92.26
3899.00,92.27
3898.00,92.28
3897.00,92.28
3896.00,92.27
3895.00,92.25
3894.00,92.25
3893.00,92.26
3892.00,92.28
3891.00,92.30
3890.00,92.30
3889.00,92.28
3888.00,92.24
3887.00,92.23
3886.00,92.24
3885.00,92.25
3884.00,92.25
3883.00,92.23
3882.00,92.23
3881.00,92.25
3880.00,92.27
3879.00,92.27
3878.00,92.26
3877.00,92.24
3876.00,92.24
3875.00,92.25
3874.00,92.24
3873.00,92.19
3872.00,92.14
3871.00,92.13
3870.00,92.17
3869.00,92.20
3868.00,92.19
3867.00,92.16
3866.00,92.15
3865.00,92.15
3864.00,92.15
3863.00,92.16
3862.00,92.17
3861.00,92.19
3860.00,92.22
3859.00,92.24
3858.00,92.25
3857.00,92.23
3856.00,92.20
3855.00,92.18
3854.00,92.19
3853.00,92.17
3852.00,92.14
3851.00,92.12
3850.00,92.13
3849.00,92.16
3848.00,92.20
3847.00,92.22
3846.00,92.23
3845.00,92.24
3844.00,92.25
3843.00,92.25
3842.00,92.24
3841.00,92.22
3840.00,92.21
3839.00,92.19
3838.00,92.18
3837.00,92.17
3836.00,92.17
3835.00,92.18
3834.00,92.20
3833.00,92.23
3832.00,92.25
3831.00,92.25
3830.00,92.22
3829.00,92.18
3828.00,92.16
3827.00,92.17
3826.00,92.19
3825.00,92.18
3824.00,92.14
3823.00,92.11
3822.00,92.09
3821.00,92.09
3820.00,92.06
3819.00,92.02
3818.00,92.00
3817.00,92.02
3816.00,92.06
3815.00,92.07
3814.00,92.05
3813.00,92.06
3812.00,92.10
3811.00,92.14
3810.00,92.15
3809.00,92.13
3808.00,92.13
3807.00,92.14
3806.00,92.13
3805.00,92.09
3804.00,92.04
3803.00,92.03
3802.00,92.06
3801.00,92.08
3800.00,92.07
3799.00,92.05
3798.00,92.03
3797.00,92.05
3796.00,92.07
3795.00,92.09
3794.00,92.11
3793.00,92.13
3792.00,92.16
3791.00,92.18
3790.00,92.17
3789.00,92.15
3788.00,92.13
3787.00,92.11
3786.00,92.10
3785.00,92.09
3784.00,92.07
3783.00,92.05
3782.00,92.04
3781.00,92.04
3780.00,92.06
3779.00,92.08
3778.00,92.09
3777.00,92.08
3776.00,92.08
3775.00,92.10
3774.00,92.11
3773.00,92.10
3772.00,92.10
3771.00,92.09
3770.00,92.09
3769.00,92.07
3768.00,92.03
3767.00,92.01
3766.00,92.00
3765.00,92.01
3764.00,92.02
3763.00,92.01
3762.00,92.00
3761.00,91.99
3760.00,91.99
3759.00,91.97
3758.00,91.96
3757.00,91.94
3756.00,91.93
3755.00,91.91
3754.00,91.89
3753.00,91.89
3752.00,91.88
3751.00,91.87
3750.00,91.87
3749.00,91.89
3748.00,91.90
3747.00,91.89
3746.00,91.90
3745.00,91.94
3744.00,91.97
3743.00,91.96
3742.00,91.94
3741.00,91.94
3740.00,91.96
3739.00,91.97
3738.00,91.96
3737.00,91.94
3736.00,91.91
3735.00,91.87
3734.00,91.83
3733.00,91.81
3732.00,91.83
3731.00,91.86
3730.00,91.88
3729.00,91.88
3728.00,91.89
3727.00,91.89
3726.00,91.88
3725.00,91.86
3724.00,91.84
3723.00,91.81
3722.00,91.79
3721.00,91.77
3720.00,91.74
3719.00,91.73
3718.00,91.72
3717.00,91.72
3716.00,91.73
3715.00,91.75
3714.00,91.79
3713.00,91.84
3712.00,91.88
3711.00,91.89
3710.00,91.87
3709.00,91.84
3708.00,91.82
3707.00,91.81
3706.00,91.81
3705.00,91.81
3704.00,91.81
3703.00,91.81
3702.00,91.81
3701.00,91.81
3700.00,91.81
3699.00,91.81
3698.00,91.82
3697.00,91.82
3696.00,91.81
3695.00,91.80
3694.00,91.78
3693.00,91.76
3692.00,91.74
3691.00,91.72
3690.00,91.71
3689.00,91.70
3688.00,91.68
3687.00,91.66
3686.00,91.65
3685.00,91.66
3684.00,91.69
3683.00,91.71
3682.00,91.72
3681.00,91.72
3680.00,91.71
3679.00,91.67
3678.00,91.62
3677.00,91.59
3676.00,91.60
3675.00,91.60
3674.00,91.57
3673.00,91.52
3672.00,91.51
3671.00,91.54
3670.00,91.58
3669.00,91.59
3668.00,91.57
3667.00,91.56
3666.00,91.56
3665.00,91.57
3664.00,91.57
3663.00,91.55
3662.00,91.52
3661.00,91.48
3660.00,91.43
3659.00,91.38
3658.00,91.35
3657.00,91.35
3656.00,91.37
3655.00,91.38
3654.00,91.37
3653.00,91.35
3652.00,91.33
3651.00,91.32
3650.00,91.30
3649.00,91.26
3648.00,91.22
3647.00,91.22
3646.00,91.25
3645.00,91.29
3644.00,91.32
3643.00,91.35
3642.00,91.37
3641.00,91.37
3640.00,91.37
3639.00,91.35
3638.00,91.34
3637.00,91.32
3636.00,91.31
3635.00,91.31
3634.00,91.33
3633.00,91.34
3632.00,91.33
3631.00,91.33
3630.00,91.34
3629.00,91.36
3628.00,91.35
3627.00,91.33
3626.00,91.31
3625.00,91.30
3624.00,91.29
3623.00,91.28
3622.00,91.25
3621.00,91.23
3620.00,91.22
3619.00,91.23
3618.00,91.25
3617.00,91.25
3616.00,91.25
3615.00,91.25
3614.00,91.27
3613.00,91.29
3612.00,91.30
3611.00,91.30
3610.00,91.30
3609.00,91.29
3608.00,91.29
3607.00,91.29
3606.00,91.29
3605.00,91.29
3604.00,91.27
3603.00,91.26
3602.00,91.26
3601.00,91.26
3600.00,91.27
3599.00,91.25
3598.00,91.23
3597.00,91.23
3596.00,91.25
3595.00,91.31
3594.00,91.36
3593.00,91.39
3592.00,91.40
3591.00,91.39
3590.00,91.37
3589.00,91.36
3588.00,91.34
3587.00,91.33
3586.00,91.32
3585.00,91.31
3584.00,91.32
3583.00,91.34
3582.00,91.35
3581.00,91.37
3580.00,91.38
3579.00,91.40
3578.00,91.41
3577.00,91.42
3576.00,91.42
3575.00,91.39
3574.00,91.34
3573.00,91.31
3572.00,91.29
3571.00,91.30
3570.00,91.31
3569.00,91.31
3568.00,91.29
3567.00,91.26
3566.00,91.24
3565.00,91.23
3564.00,91.22
3563.00,91.21
3562.00,91.21
3561.00,91.21
3560.00,91.21
3559.00,91.21
3558.00,91.20
3557.00,91.19
3556.00,91.19
3555.00,91.20
3554.00,91.20
3553.00,91.19
3552.00,91.16
3551.00,91.13
3550.00,91.12
3549.00,91.12
3548.00,91.14
3547.00,91.17
3546.00,91.17
3545.00,91.16
3544.00,91.14
3543.00,91.14
3542.00,91.15
3541.00,91.18
3540.00,91.20
3539.00,91.21
3538.00,91.20
3537.00,91.17
3536.00,91.14
3535.00,91.12
3534.00,91.12
3533.00,91.13
3532.00,91.15
3531.00,91.17
3530.00,91.19
3529.00,91.22
3528.00,91.24
3527.00,91.25
3526.00,91.24
3525.00,91.23
3524.00,91.23
3523.00,91.24
3522.00,91.27
3521.00,91.29
3520.00,91.30
3519.00,91.30
3518.00,91.29
3517.00,91.28
3516.00,91.29
3515.00,91.31
3514.00,91.31
3513.00,91.30
3512.00,91.28
3511.00,91.25
3510.00,91.24
3509.00,91.24
3508.00,91.25
3507.00,91.24
3506.00,91.22
3505.00,91.20
3504.00,91.20
3503.00,91.21
3502.00,91.23
3501.00,91.25
3500.00,91.27
3499.00,91.29
3498.00,91.30
3497.00,91.32
3496.00,91.33
3495.00,91.33
3494.00,91.34
3493.00,91.33
3492.00,91.31
3491.00,91.30
3490.00,91.29
3489.00,91.29
3488.00,91.29
3487.00,91.30
3486.00,91.29
3485.00,91.28
3484.00,91.26
3483.00,91.24
3482.00,91.23
3481.00,91.21
3480.00,91.20
3479.00,91.19
3478.00,91.20
3477.00,91.21
3476.00,91.22
3475.00,91.23
3474.00,91.23
3473.00,91.23
3472.00,91.24
3471.00,91.24
3470.00,91.23
3469.00,91.21
3468.00,91.19
3467.00,91.18
3466.00,91.19
3465.00,91.20
3464.00,91.21
3463.00,91.20
3462.00,91.18
3461.00,91.17
3460.00,91.16
3459.00,91.15
3458.00,91.14
3457.00,91.12
3456.00,91.11
3455.00,91.09
3454.00,91.07
3453.00,91.06
3452.00,91.05
3451.00,91.06
3450.00,91.08
3449.00,91.10
3448.00,91.10
3447.00,91.08
3446.00,91.05
3445.00,91.02
3444.00,91.00
3443.00,90.99
3442.00,90.98
3441.00,90.98
3440.00,90.98
3439.00,90.98
3438.00,90.98
3437.00,90.97
3436.00,90.95
3435.00,90.93
3434.00,90.91
3433.00,90.90
3432.00,90.89
3431.00,90.87
3430.00,90.86
3429.00,90.85
3428.00,90.85
3427.00,90.85
3426.00,90.84
3425.00,90.83
3424.00,90.81
3423.00,90.79
3422.00,90.76
3421.00,90.75
3420.00,90.76
3419.00,90.78
3418.00,90.80
3417.00,90.82
3416.00,90.84
3415.00,90.85
3414.00,90.86
3413.00,90.88
3412.00,90.89
3411.00,90.90
3410.00,90.91
3409.00,90.92
3408.00,90.93
3407.00,90.96
3406.00,90.99
3405.00,91.02
3404.00,91.05
3403.00,91.07
3402.00,91.10
3401.00,91.13
3400.00,91.15
3399.00,91.16
3398.00,91.15
3397.00,91.14
3396.00,91.14
3395.00,91.14
3394.00,91.16
3393.00,91.17
3392.00,91.19
3391.00,91.19
3390.00,91.18
3389.00,91.17
3388.00,91.17
3387.00,91.16
3386.00,91.15
3385.00,91.14
3384.00,91.12
3383.00,91.11
3382.00,91.11
3381.00,91.12
3380.00,91.15
3379.00,91.17
3378.00,91.17
3377.00,91.17
3376.00,91.17
3375.00,91.17
3374.00,91.18
3373.00,91.19
3372.00,91.20
3371.00,91.21
3370.00,91.20
3369.00,91.20
3368.00,91.20
3367.00,91.20
3366.00,91.21
3365.00,91.20
3364.00,91.19
3363.00,91.18
3362.00,91.18
3361.00,91.18
3360.00,91.17
3359.00,91.15
3358.00,91.14
3357.00,91.15
3356.00,91.17
3355.00,91.18
3354.00,91.18
3353.00,91.17
3352.00,91.14
3351.00,91.11
3350.00,91.09
3349.00,91.09
3348.00,91.10
3347.00,91.12
3346.00,91.13
3345.00,91.14
3344.00,91.14
3343.00,91.14
3342.00,91.13
3341.00,91.12
3340.00,91.12
3339.00,91.12
3338.00,91.13
3337.00,91.13
3336.00,91.13
3335.00,91.12
3334.00,91.13
3333.00,91.14
3332.00,91.16
3331.00,91.17
3330.00,91.15
3329.00,91.14
3328.00,91.14
3327.00,91.16
3326.00,91.19
3325.00,91.20
3324.00,91.20
3323.00,91.18
3322.00,91.17
3321.00,91.16
3320.00,91.15
3319.00,91.14
3318.00,91.15
3317.00,91.16
3316.00,91.16
3315.00,91.17
3314.00,91.17
3313.00,91.17
3312.00,91.18
3311.00,91.19
3310.00,91.20
3309.00,91.20
3308.00,91.20
3307.00,91.20
3306.00,91.20
3305.00,91.19
3304.00,91.17
3303.00,91.14
3302.00,91.13
3301.00,91.14
3300.00,91.16
3299.00,91.18
3298.00,91.19
3297.00,91.20
3296.00,91.20
3295.00,91.19
3294.00,91.18
3293.00,91.17
3292.00,91.16
3291.00,91.15
3290.00,91.16
3289.00,91.17
3288.00,91.19
3287.00,91.19
3286.00,91.17
3285.00,91.14
3284.00,91.13
3283.00,91.14
3282.00,91.16
3281.00,91.17
3280.00,91.17
3279.00,91.16
3278.00,91.16
3277.00,91.16
3276.00,91.15
3275.00,91.13
3274.00,91.11
3273.00,91.11
3272.00,91.12
3271.00,91.13
3270.00,91.14
3269.00,91.14
3268.00,91.14
3267.00,91.14
3266.00,91.16
3265.00,91.18
3264.00,91.20
3263.00,91.20
3262.00,91.20
3261.00,91.19
3260.00,91.19
3259.00,91.19
3258.00,91.17
3257.00,91.16
3256.00,91.15
3255.00,91.16
3254.00,91.18
3253.00,91.20
3252.00,91.22
3251.00,91.23
3250.00,91.22
3249.00,91.19
3248.00,91.16
3247.00,91.15
3246.00,91.15
3245.00,91.15
3244.00,91.14
3243.00,91.12
3242.00,91.10
3241.00,91.09
3240.00,91.09
3239.00,91.09
3238.00,91.09
3237.00,91.08
3236.00,91.07
3235.00,91.07
3234.00,91.07
3233.00,91.07
3232.00,91.06
3231.00,91.05
3230.00,91.05
3229.00,91.05
3228.00,91.06
3227.00,91.06
3226.00,91.08
3225.00,91.10
3224.00,91.11
3223.00,91.12
3222.00,91.11
3221.00,91.09
3220.00,91.08
3219.00,91.08
3218.00,91.09
3217.00,91.09
3216.00,91.09
3215.00,91.08
3214.00,91.06
3213.00,91.04
3212.00,91.04
3211.00,91.05
3210.00,91.08
3209.00,91.09
3208.00,91.09
3207.00,91.09
3206.00,91.08
3205.00,91.06
3204.00,91.05
3203.00,91.03
3202.00,91.02
3201.00,91.02
3200.00,91.04
3199.00,91.06
3198.00,91.07
3197.00,91.07
3196.00,91.06
3195.00,91.05
3194.00,91.05
3193.00,91.04
3192.00,91.04
3191.00,91.03
3190.00,91.03
3189.00,91.05
3188.00,91.06
3187.00,91.08
3186.00,91.08
3185.00,91.08
3184.00,91.07
3183.00,91.05
3182.00,91.04
3181.00,91.04
3180.00,91.04
3179.00,91.04
3178.00,91.04
3177.00,91.05
3176.00,91.06
3175.00,91.08
3174.00,91.09
3173.00,91.08
3172.00,91.06
3171.00,91.04
3170.00,91.03
3169.00,91.03
3168.00,91.03
3167.00,91.04
3166.00,91.05
3165.00,91.07
3164.00,91.08
3163.00,91.08
3162.00,91.08
3161.00,91.06
3160.00,91.06
3159.00,91.07
3158.00,91.07
3157.00,91.08
3156.00,91.07
3155.00,91.06
3154.00,91.05
3153.00,91.05
3152.00,91.06
3151.00,91.05
3150.00,91.04
3149.00,91.03
3148.00,91.02
3147.00,91.03
3146.00,91.05
3145.00,91.06
3144.00,91.05
3143.00,91.04
3142.00,91.02
3141.00,91.01
3140.00,91.01
3139.00,91.01
3138.00,91.01
3137.00,91.01
3136.00,91.02
3135.00,91.02
3134.00,91.02
3133.00,91.02
3132.00,91.01
3131.00,91.00
3130.00,90.99
3129.00,90.99
3128.00,90.98
3127.00,90.98
3126.00,90.99
3125.00,91.00
3124.00,91.01
3123.00,91.01
3122.00,91.01
3121.00,90.99
3120.00,90.97
3119.00,90.96
3118.00,90.96
3117.00,90.95
3116.00,90.94
3115.00,90.93
3114.00,90.93
3113.00,90.93
3112.00,90.93
3111.00,90.91
3110.00,90.90
3109.00,90.89
3108.00,90.89
3107.00,90.88
3106.00,90.87
3105.00,90.86
3104.00,90.85
3103.00,90.84
3102.00,90.83
3101.00,90.81
3100.00,90.79
3099.00,90.76
3098.00,90.71
3097.00,90.67
3096.00,90.63
3095.00,90.61
3094.00,90.60
3093.00,90.59
3092.00,90.58
3091.00,90.56
3090.00,90.54
3089.00,90.52
3088.00,90.50
3087.00,90.46
3086.00,90.43
3085.00,90.40
3084.00,90.37
3083.00,90.34
3082.00,90.31
3081.00,90.28
3080.00,90.26
3079.00,90.24
3078.00,90.23
3077.00,90.22
3076.00,90.19
3075.00,90.14
3074.00,90.11
3073.00,90.09
3072.00,90.08
3071.00,90.06
3070.00,90.02
3069.00,89.96
3068.00,89.91
3067.00,89.88
3066.00,89.86
3065.00,89.87
3064.00,89.89
3063.00,89.91
3062.00,89.92
3061.00,89.93
3060.00,89.94
3059.00,89.97
3058.00,90.02
3057.00,90.08
3056.00,90.14
3055.00,90.17
3054.00,90.19
3053.00,90.19
3052.00,90.18
3051.00,90.17
3050.00,90.16
3049.00,90.16
3048.00,90.16
3047.00,90.15
3046.00,90.15
3045.00,90.14
3044.00,90.14
3043.00,90.14
3042.00,90.17
3041.00,90.22
3040.00,90.28
3039.00,90.33
3038.00,90.38
3037.00,90.43
3036.00,90.47
3035.00,90.50
3034.00,90.52
3033.00,90.52
3032.00,90.52
3031.00,90.52
3030.00,90.52
3029.00,90.53
3028.00,90.55
3027.00,90.58
3026.00,90.61
3025.00,90.64
3024.00,90.65
3023.00,90.66
3022.00,90.66
3021.00,90.66
3020.00,90.66
3019.00,90.66
3018.00,90.64
3017.00,90.63
3016.00,90.62
3015.00,90.60
3014.00,90.58
3013.00,90.55
3012.00,90.51
3011.00,90.48
3010.00,90.44
3009.00,90.41
3008.00,90.39
3007.00,90.37
3006.00,90.34
3005.00,90.29
3004.00,90.23
3003.00,90.17
3002.00,90.11
3001.00,90.05
3000.00,89.99
2999.00,89.92
2998.00,89.85
2997.00,89.76
2996.00,89.68
2995.00,89.59
2994.00,89.50
2993.00,89.43
2992.00,89.39
2991.00,89.37
2990.00,89.38
2989.00,89.41
2988.00,89.45
2987.00,89.48
2986.00,89.49
2985.00,89.47
2984.00,89.43
2983.00,89.40
2982.00,89.37
2981.00,89.33
2980.00,89.27
2979.00,89.19
2978.00,89.09
2977.00,88.99
2976.00,88.90
2975.00,88.83
2974.00,88.78
2973.00,88.74
2972.00,88.70
2971.00,88.66
2970.00,88.64
2969.00,88.64
2968.00,88.65
2967.00,88.67
2966.00,88.69
2965.00,88.71
2964.00,88.73
2963.00,88.75
2962.00,88.77
2961.00,88.80
2960.00,88.84
2959.00,88.88
2958.00,88.93
2957.00,88.97
2956.00,89.03
2955.00,89.09
2954.00,89.15
2953.00,89.21
2952.00,89.27
2951.00,89.33
2950.00,89.40
2949.00,89.45
2948.00,89.51
2947.00,89.56
2946.00,89.62
2945.00,89.67
2944.00,89.72
2943.00,89.75
2942.00,89.77
2941.00,89.78
2940.00,89.81
2939.00,89.84
2938.00,89.87
2937.00,89.89
2936.00,89.89
2935.00,89.89
2934.00,89.88
2933.00,89.87
2932.00,89.87
2931.00,89.87
2930.00,89.88
2929.00,89.90
2928.00,89.89
2927.00,89.87
2926.00,89.85
2925.00,89.82
2924.00,89.79
2923.00,89.77
2922.00,89.74
2921.00,89.70
2920.00,89.67
2919.00,89.63
2918.00,89.58
2917.00,89.53
2916.00,89.48
2915.00,89.42
2914.00,89.35
2913.00,89.27
2912.00,89.19
2911.00,89.12
2910.00,89.07
2909.00,89.04
2908.00,89.03
2907.00,89.05
2906.00,89.09
2905.00,89.15
2904.00,89.22
2903.00,89.29
2902.00,89.36
2901.00,89.43
2900.00,89.50
2899.00,89.56
2898.00,89.60
2897.00,89.64
2896.00,89.67
2895.00,89.71
2894.00,89.76
2893.00,89.81
2892.00,89.85
2891.00,89.87
2890.00,89.87
2889.00,89.86
2888.00,89.85
2887.00,89.85
2886.00,89.87
2885.00,89.89
2884.00,89.92
2883.00,89.94
2882.00,89.97
2881.00,90.00
2880.00,90.03
2879.00,90.07
2878.00,90.11
2877.00,90.14
2876.00,90.15
2875.00,90.16
2874.00,90.15
2873.00,90.15
2872.00,90.16
2871.00,90.17
2870.00,90.18
2869.00,90.19
2868.00,90.21
2867.00,90.23
2866.00,90.26
2865.00,90.27
2864.00,90.28
2863.00,90.28
2862.00,90.27
2861.00,90.26
2860.00,90.26
2859.00,90.28
2858.00,90.30
2857.00,90.32
2856.00,90.33
2855.00,90.34
2854.00,90.34
2853.00,90.34
2852.00,90.35
2851.00,90.35
2850.00,90.36
2849.00,90.38
2848.00,90.40
2847.00,90.43
2846.00,90.47
2845.00,90.50
2844.00,90.54
2843.00,90.57
2842.00,90.60
2841.00,90.62
2840.00,90.65
2839.00,90.66
2838.00,90.67
2837.00,90.69
2836.00,90.70
2835.00,90.70
2834.00,90.71
2833.00,90.70
2832.00,90.70
2831.00,90.70
2830.00,90.70
2829.00,90.72
2828.00,90.73
2827.00,90.75
2826.00,90.76
2825.00,90.77
2824.00,90.77
2823.00,90.77
2822.00,90.77
2821.00,90.77
2820.00,90.77
2819.00,90.77
2818.00,90.77
2817.00,90.76
2816.00,90.77
2815.00,90.78
2814.00,90.79
2813.00,90.80
2812.00,90.81
2811.00,90.81
2810.00,90.81
2809.00,90.80
2808.00,90.79
2807.00,90.77
2806.00,90.77
2805.00,90.78
2804.00,90.80
2803.00,90.82
2802.00,90.84
2801.00,90.86
2800.00,90.86
2799.00,90.85
2798.00,90.83
2797.00,90.83
2796.00,90.83
2795.00,90.84
2794.00,90.85
2793.00,90.86
2792.00,90.87
2791.00,90.88
2790.00,90.88
2789.00,90.88
2788.00,90.88
2787.00,90.89
2786.00,90.90
2785.00,90.91
2784.00,90.92
2783.00,90.93
2782.00,90.94
2781.00,90.95
2780.00,90.96
2779.00,90.97
2778.00,90.96
2777.00,90.96
2776.00,90.95
2775.00,90.93
2774.00,90.91
2773.00,90.89
2772.00,90.88
2771.00,90.88
2770.00,90.89
2769.00,90.90
2768.00,90.90
2767.00,90.90
2766.00,90.89
2765.00,90.89
2764.00,90.89
2763.00,90.88
2762.00,90.87
2761.00,90.85
2760.00,90.84
2759.00,90.84
2758.00,90.85
2757.00,90.85
2756.00,90.85
2755.00,90.84
2754.00,90.84
2753.00,90.84
2752.00,90.85
2751.00,90.85
2750.00,90.86
2749.00,90.86
2748.00,90.86
2747.00,90.87
2746.00,90.86
2745.00,90.86
2744.00,90.85
2743.00,90.85
2742.00,90.85
2741.00,90.84
2740.00,90.84
2739.00,90.82
2738.00,90.81
2737.00,90.79
2736.00,90.78
2735.00,90.77
2734.00,90.77
2733.00,90.78
2732.00,90.78
2731.00,90.78
2730.00,90.78
2729.00,90.78
2728.00,90.78
2727.00,90.78
2726.00,90.79
2725.00,90.81
2724.00,90.82
2723.00,90.83
2722.00,90.84
2721.00,90.84
2720.00,90.84
2719.00,90.85
2718.00,90.86
2717.00,90.87
2716.00,90.88
2715.00,90.89
2714.00,90.91
2713.00,90.93
2712.00,90.94
2711.00,90.94
2710.00,90.95
2709.00,90.95
2708.00,90.96
2707.00,90.97
2706.00,90.98
2705.00,90.99
2704.00,91.00
2703.00,91.00
2702.00,90.99
2701.00,90.99
2700.00,90.99
2699.00,90.99
2698.00,90.98
2697.00,90.97
2696.00,90.96
2695.00,90.96
2694.00,90.96
2693.00,90.97
2692.00,90.97
2691.00,90.96
2690.00,90.96
2689.00,90.96
2688.00,90.96
2687.00,90.97
2686.00,90.97
2685.00,90.96
2684.00,90.95
2683.00,90.94
2682.00,90.92
2681.00,90.91
2680.00,90.90
2679.00,90.90
2678.00,90.91
2677.00,90.92
2676.00,90.92
2675.00,90.91
2674.00,90.90
2673.00,90.89
2672.00,90.89
2671.00,90.89
2670.00,90.89
2669.00,90.89
2668.00,90.89
2667.00,90.89
2666.00,90.89
2665.00,90.88
2664.00,90.88
2663.00,90.86
2662.00,90.85
2661.00,90.83
2660.00,90.81
2659.00,90.80
2658.00,90.79
2657.00,90.78
2656.00,90.76
2655.00,90.75
2654.00,90.73
2653.00,90.73
2652.00,90.72
2651.00,90.71
2650.00,90.71
2649.00,90.69
2648.00,90.67
2647.00,90.65
2646.00,90.63
2645.00,90.62
2644.00,90.61
2643.00,90.59
2642.00,90.57
2641.00,90.57
2640.00,90.57
2639.00,90.57
2638.00,90.57
2637.00,90.57
2636.00,90.58
2635.00,90.59
2634.00,90.59
2633.00,90.58
2632.00,90.55
2631.00,90.52
2630.00,90.48
2629.00,90.46
2628.00,90.47
2627.00,90.48
2626.00,90.50
2625.00,90.50
2624.00,90.50
2623.00,90.50
2622.00,90.49
2621.00,90.48
2620.00,90.48
2619.00,90.47
2618.00,90.47
2617.00,90.46
2616.00,90.46
2615.00,90.46
2614.00,90.46
2613.00,90.47
2612.00,90.47
2611.00,90.47
2610.00,90.46
2609.00,90.44
2608.00,90.42
2607.00,90.42
2606.00,90.43
2605.00,90.43
2604.00,90.42
2603.00,90.40
2602.00,90.38
2601.00,90.37
2600.00,90.37
2599.00,90.38
2598.00,90.39
2597.00,90.40
2596.00,90.39
2595.00,90.36
2594.00,90.32
2593.00,90.29
2592.00,90.27
2591.00,90.25
2590.00,90.23
2589.00,90.22
2588.00,90.22
2587.00,90.23
2586.00,90.25
2585.00,90.26
2584.00,90.27
2583.00,90.27
2582.00,90.26
2581.00,90.25
2580.00,90.22
2579.00,90.21
2578.00,90.21
2577.00,90.21
2576.00,90.21
2575.00,90.21
2574.00,90.22
2573.00,90.22
2572.00,90.23
2571.00,90.22
2570.00,90.21
2569.00,90.18
2568.00,90.16
2567.00,90.15
2566.00,90.14
2565.00,90.11
2564.00,90.09
2563.00,90.07
2562.00,90.07
2561.00,90.08
2560.00,90.09
2559.00,90.10
2558.00,90.10
2557.00,90.10
2556.00,90.09
2555.00,90.09
2554.00,90.08
2553.00,90.07
2552.00,90.06
2551.00,90.05
2550.00,90.07
2549.00,90.08
2548.00,90.08
2547.00,90.06
2546.00,90.05
2545.00,90.05
2544.00,90.07
2543.00,90.08
2542.00,90.06
2541.00,90.04
2540.00,90.02
2539.00,90.02
2538.00,90.03
2537.00,90.05
2536.00,90.04
2535.00,90.03
2534.00,90.02
2533.00,90.01
2532.00,90.02
2531.00,90.03
2530.00,90.02
2529.00,90.00
2528.00,89.97
2527.00,89.97
2526.00,89.98
2525.00,90.00
2524.00,90.03
2523.00,90.06
2522.00,90.08
2521.00,90.10
2520.00,90.11
2519.00,90.11
2518.00,90.10
2517.00,90.08
2516.00,90.07
2515.00,90.08
2514.00,90.09
2513.00,90.10
2512.00,90.10
2511.00,90.10
2510.00,90.10
2509.00,90.11
2508.00,90.12
2507.00,90.12
2506.00,90.12
2505.00,90.12
2504.00,90.11
2503.00,90.09
2502.00,90.08
2501.00,90.08
2500.00,90.09
2499.00,90.12
2498.00,90.13
2497.00,90.12
2496.00,90.10
2495.00,90.07
2494.00,90.05
2493.00,90.04
2492.00,90.04
2491.00,90.05
2490.00,90.06
2489.00,90.07
2488.00,90.08
2487.00,90.11
2486.00,90.13
2485.00,90.13
2484.00,90.12
2483.00,90.10
2482.00,90.09
2481.00,90.08
2480.00,90.05
2479.00,90.03
2478.00,90.03
2477.00,90.05
2476.00,90.07
2475.00,90.08
2474.00,90.09
2473.00,90.09
2472.00,90.08
2471.00,90.08
2470.00,90.09
2469.00,90.09
2468.00,90.09
2467.00,90.09
2466.00,90.10
2465.00,90.11
2464.00,90.11
2463.00,90.11
2462.00,90.11
2461.00,90.11
2460.00,90.12
2459.00,90.13
2458.00,90.14
2457.00,90.13
2456.00,90.12
2455.00,90.10
2454.00,90.09
2453.00,90.09
2452.00,90.08
2451.00,90.07
2450.00,90.04
2449.00,90.02
2448.00,90.01
2447.00,90.01
2446.00,90.03
2445.00,90.06
2444.00,90.09
2443.00,90.11
2442.00,90.11
2441.00,90.12
2440.00,90.14
2439.00,90.16
2438.00,90.17
2437.00,90.16
2436.00,90.14
2435.00,90.11
2434.00,90.10
2433.00,90.10
2432.00,90.10
2431.00,90.09
2430.00,90.08
2429.00,90.09
2428.00,90.10
2427.00,90.12
2426.00,90.13
2425.00,90.14
2424.00,90.15
2423.00,90.18
2422.00,90.21
2421.00,90.24
2420.00,90.24
2419.00,90.23
2418.00,90.21
2417.00,90.21
2416.00,90.23
2415.00,90.25
2414.00,90.25
2413.00,90.23
2412.00,90.21
2411.00,90.20
2410.00,90.19
2409.00,90.19
2408.00,90.19
2407.00,90.20
2406.00,90.20
2405.00,90.21
2404.00,90.22
2403.00,90.22
2402.00,90.22
2401.00,90.22
2400.00,90.22
2399.00,90.22
2398.00,90.24
2397.00,90.26
2396.00,90.27
2395.00,90.26
2394.00,90.24
2393.00,90.22
2392.00,90.21
2391.00,90.21
2390.00,90.21
2389.00,90.21
2388.00,90.22
2387.00,90.23
2386.00,90.24
2385.00,90.27
2384.00,90.29
2383.00,90.32
2382.00,90.33
2381.00,90.34
2380.00,90.33
2379.00,90.34
2378.00,90.35
2377.00,90.36
2376.00,90.37
2375.00,90.37
2374.00,90.39
2373.00,90.41
2372.00,90.43
2371.00,90.43
2370.00,90.42
2369.00,90.42
2368.00,90.44
2367.00,90.46
2366.00,90.49
2365.00,90.51
2364.00,90.52
2363.00,90.52
2362.00,90.50
2361.00,90.46
2360.00,90.41
2359.00,90.39
2358.00,90.39
2357.00,90.44
2356.00,90.51
2355.00,90.59
2354.00,90.67
2353.00,90.68
2352.00,90.63
2351.00,90.58
2350.00,90.58
2349.00,90.65
2348.00,90.77
2347.00,90.85
2346.00,90.85
2345.00,90.77
2344.00,90.68
2343.00,90.61
2342.00,90.57
2341.00,90.56
2340.00,90.55
2339.00,90.56
2338.00,90.56
2337.00,90.57
2336.00,90.59
2335.00,90.63
2334.00,90.68
2333.00,90.70
2332.00,90.68
2331.00,90.64
2330.00,90.59
2329.00,90.52
2328.00,90.47
2327.00,90.43
2326.00,90.41
2325.00,90.40
2324.00,90.40
2323.00,90.39
2322.00,90.38
2321.00,90.36
2320.00,90.34
2319.00,90.32
2318.00,90.30
2317.00,90.27
2316.00,90.26
2315.00,90.25
2314.00,90.25
2313.00,90.25
2312.00,90.22
2311.00,90.19
2310.00,90.14
2309.00,90.11
2308.00,90.10
2307.00,90.10
2306.00,90.10
2305.00,90.09
2304.00,90.07
2303.00,90.04
2302.00,90.02
2301.00,90.02
2300.00,90.01
2299.00,90.00
2298.00,89.98
2297.00,89.95
2296.00,89.91
2295.00,89.88
2294.00,89.86
2293.00,89.85
2292.00,89.85
2291.00,89.84
2290.00,89.82
2289.00,89.78
2288.00,89.75
2287.00,89.73
2286.00,89.72
2285.00,89.70
2284.00,89.68
2283.00,89.67
2282.00,89.67
2281.00,89.68
2280.00,89.67
2279.00,89.64
2278.00,89.59
2277.00,89.56
2276.00,89.55
2275.00,89.55
2274.00,89.55
2273.00,89.54
2272.00,89.51
2271.00,89.49
2270.00,89.48
2269.00,89.48
2268.00,89.48
2267.00,89.46
2266.00,89.46
2265.00,89.46
2264.00,89.47
2263.00,89.46
2262.00,89.43
2261.00,89.41
2260.00,89.41
2259.00,89.43
2258.00,89.44
2257.00,89.44
2256.00,89.43
2255.00,89.41
2254.00,89.39
2253.00,89.36
2252.00,89.35
2251.00,89.35
2250.00,89.35
2249.00,89.35
2248.00,89.33
2247.00,89.29
2246.00,89.25
2245.00,89.22
2244.00,89.22
2243.00,89.25
2242.00,89.29
2241.00,89.30
2240.00,89.28
2239.00,89.25
2238.00,89.23
2237.00,89.22
2236.00,89.22
2235.00,89.21
2234.00,89.19
2233.00,89.19
2232.00,89.19
2231.00,89.18
2230.00,89.16
2229.00,89.13
2228.00,89.10
2227.00,89.08
2226.00,89.07
2225.00,89.05
2224.00,89.04
2223.00,89.02
2222.00,89.00
2221.00,88.98
2220.00,88.96
2219.00,88.94
2218.00,88.94
2217.00,88.94
2216.00,88.95
2215.00,88.97
2214.00,88.98
2213.00,88.98
2212.00,88.96
2211.00,88.92
2210.00,88.90
2209.00,88.89
2208.00,88.91
2207.00,88.91
2206.00,88.89
2205.00,88.86
2204.00,88.84
2203.00,88.83
2202.00,88.82
2201.00,88.77
2200.00,88.70
2199.00,88.66
2198.00,88.66
2197.00,88.67
2196.00,88.67
2195.00,88.65
2194.00,88.63
2193.00,88.63
2192.00,88.64
2191.00,88.64
2190.00,88.64
2189.00,88.64
2188.00,88.64
2187.00,88.65
2186.00,88.65
2185.00,88.67
2184.00,88.69
2183.00,88.71
2182.00,88.71
2181.00,88.70
2180.00,88.69
2179.00,88.66
2178.00,88.63
2177.00,88.62
2176.00,88.64
2175.00,88.68
2174.00,88.68
2173.00,88.63
2172.00,88.55
2171.00,88.49
2170.00,88.46
2169.00,88.46
2168.00,88.45
2167.00,88.42
2166.00,88.34
2165.00,88.21
2164.00,88.08
2163.00,88.00
2162.00,88.00
2161.00,88.09
2160.00,88.26
2159.00,88.46
2158.00,88.64
2157.00,88.75
2156.00,88.78
2155.00,88.77
2154.00,88.77
2153.00,88.79
2152.00,88.82
2151.00,88.85
2150.00,88.86
2149.00,88.88
2148.00,88.90
2147.00,88.95
2146.00,89.00
2145.00,89.05
2144.00,89.09
2143.00,89.12
2142.00,89.13
2141.00,89.14
2140.00,89.15
2139.00,89.17
2138.00,89.19
2137.00,89.20
2136.00,89.20
2135.00,89.23
2134.00,89.28
2133.00,89.32
2132.00,89.34
2131.00,89.36
2130.00,89.37
2129.00,89.38
2128.00,89.38
2127.00,89.39
2126.00,89.40
2125.00,89.40
2124.00,89.39
2123.00,89.38
2122.00,89.39
2121.00,89.41
2120.00,89.40
2119.00,89.39
2118.00,89.37
2117.00,89.36
2116.00,89.34
2115.00,89.30
2114.00,89.25
2113.00,89.22
2112.00,89.20
2111.00,89.20
2110.00,89.23
2109.00,89.27
2108.00,89.33
2107.00,89.38
2106.00,89.40
2105.00,89.39
2104.00,89.36
2103.00,89.34
2102.00,89.33
2101.00,89.33
2100.00,89.33
2099.00,89.33
2098.00,89.34
2097.00,89.37
2096.00,89.39
2095.00,89.41
2094.00,89.42
2093.00,89.42
2092.00,89.42
2091.00,89.42
2090.00,89.43
2089.00,89.45
2088.00,89.47
2087.00,89.49
2086.00,89.52
2085.00,89.54
2084.00,89.55
2083.00,89.54
2082.00,89.50
2081.00,89.46
2080.00,89.44
2079.00,89.44
2078.00,89.45
2077.00,89.46
2076.00,89.45
2075.00,89.42
2074.00,89.40
2073.00,89.39
2072.00,89.41
2071.00,89.44
2070.00,89.44
2069.00,89.42
2068.00,89.38
2067.00,89.35
2066.00,89.36
2065.00,89.40
2064.00,89.42
2063.00,89.42
2062.00,89.41
2061.00,89.42
2060.00,89.44
2059.00,89.45
2058.00,89.44
2057.00,89.43
2056.00,89.41
2055.00,89.37
2054.00,89.31
2053.00,89.21
2052.00,89.11
2051.00,89.04
2050.00,89.02
2049.00,89.04
2048.00,89.06
2047.00,89.08
2046.00,89.09
2045.00,89.10
2044.00,89.08
2043.00,89.04
2042.00,89.00
2041.00,88.95
2040.00,88.89
2039.00,88.83
2038.00,88.78
2037.00,88.75
2036.00,88.75
2035.00,88.76
2034.00,88.78
2033.00,88.79
2032.00,88.78
2031.00,88.77
2030.00,88.77
2029.00,88.79
2028.00,88.79
2027.00,88.78
2026.00,88.76
2025.00,88.75
2024.00,88.74
2023.00,88.76
2022.00,88.79
2021.00,88.83
2020.00,88.87
2019.00,88.88
2018.00,88.88
2017.00,88.87
2016.00,88.87
2015.00,88.88
2014.00,88.89
2013.00,88.89
2012.00,88.89
2011.00,88.90
2010.00,88.95
2009.00,89.01
2008.00,89.04
2007.00,89.06
2006.00,89.08
2005.00,89.14
2004.00,89.20
2003.00,89.23
2002.00,89.22
2001.00,89.19
2000.00,89.19
1999.00,89.22
1998.00,89.27
1997.00,89.29
1996.00,89.28
1995.00,89.25
1994.00,89.22
1993.00,89.20
1992.00,89.20
1991.00,89.20
1990.00,89.22
1989.00,89.25
1988.00,89.28
1987.00,89.27
1986.00,89.23
1985.00,89.18
1984.00,89.15
1983.00,89.11
1982.00,89.05
1981.00,88.95
1980.00,88.88
1979.00,88.87
1978.00,88.91
1977.00,88.97
1976.00,89.02
1975.00,89.06
1974.00,89.10
1973.00,89.13
1972.00,89.17
1971.00,89.22
1970.00,89.27
1969.00,89.30
1968.00,89.30
1967.00,89.28
1966.00,89.27
1965.00,89.27
1964.00,89.27
1963.00,89.27
1962.00,89.29
1961.00,89.35
1960.00,89.40
1959.00,89.44
1958.00,89.47
1957.00,89.49
1956.00,89.52
1955.00,89.53
1954.00,89.52
1953.00,89.50
1952.00,89.48
1951.00,89.49
1950.00,89.53
1949.00,89.56
1948.00,89.59
1947.00,89.62
1946.00,89.66
1945.00,89.71
1944.00,89.74
1943.00,89.76
1942.00,89.78
1941.00,89.80
1940.00,89.83
1939.00,89.85
1938.00,89.87
1937.00,89.90
1936.00,89.94
1935.00,89.99
1934.00,90.03
1933.00,90.05
1932.00,90.06
1931.00,90.06
1930.00,90.06
1929.00,90.08
1928.00,90.11
1927.00,90.17
1926.00,90.23
1925.00,90.29
1924.00,90.33
1923.00,90.33
1922.00,90.32
1921.00,90.31
1920.00,90.33
1919.00,90.37
1918.00,90.41
1917.00,90.44
1916.00,90.44
1915.00,90.45
1914.00,90.48
1913.00,90.51
1912.00,90.55
1911.00,90.58
1910.00,90.62
1909.00,90.65
1908.00,90.67
1907.00,90.70
1906.00,90.74
1905.00,90.76
1904.00,90.75
1903.00,90.74
1902.00,90.75
1901.00,90.79
1900.00,90.82
1899.00,90.85
1898.00,90.87
1897.00,90.89
1896.00,90.90
1895.00,90.92
1894.00,90.94
1893.00,90.98
1892.00,91.02
1891.00,91.05
1890.00,91.08
1889.00,91.09
1888.00,91.10
1887.00,91.12
1886.00,91.13
1885.00,91.15
1884.00,91.16
1883.00,91.17
1882.00,91.18
1881.00,91.18
1880.00,91.18
1879.00,91.18
1878.00,91.19
1877.00,91.20
1876.00,91.20
1875.00,91.22
1874.00,91.26
1873.00,91.31
1872.00,91.34
1871.00,91.34
1870.00,91.32
1869.00,91.31
1868.00,91.32
1867.00,91.34
1866.00,91.36
1865.00,91.38
1864.00,91.37
1863.00,91.36
1862.00,91.36
1861.00,91.38
1860.00,91.42
1859.00,91.44
1858.00,91.46
1857.00,91.47
1856.00,91.48
1855.00,91.49
1854.00,91.50
1853.00,91.53
1852.00,91.56
1851.00,91.59
1850.00,91.61
1849.00,91.63
1848.00,91.65
1847.00,91.68
1846.00,91.72
1845.00,91.78
1844.00,91.83
1843.00,91.84
1842.00,91.82
1841.00,91.79
1840.00,91.77
1839.00,91.77
1838.00,91.78
1837.00,91.80
1836.00,91.82
1835.00,91.83
1834.00,91.83
1833.00,91.82
1832.00,91.80
1831.00,91.78
1830.00,91.77
1829.00,91.77
1828.00,91.77
1827.00,91.76
1826.00,91.75
1825.00,91.76
1824.00,91.78
1823.00,91.80
1822.00,91.81
1821.00,91.82
1820.00,91.82
1819.00,91.82
1818.00,91.84
1817.00,91.86
1816.00,91.88
1815.00,91.89
1814.00,91.90
1813.00,91.90
1812.00,91.90
1811.00,91.91
1810.00,91.94
1809.00,91.98
1808.00,92.02
1807.00,92.06
1806.00,92.09
1805.00,92.11
1804.00,92.13
1803.00,92.16
1802.00,92.18
1801.00,92.19
1800.00,92.19
1799.00,92.20
1798.00,92.22
1797.00,92.25
1796.00,92.28
1795.00,92.33
1794.00,92.38
1793.00,92.43
1792.00,92.48
1791.00,92.50
1790.00,92.52
1789.00,92.53
1788.00,92.54
1787.00,92.57
1786.00,92.61
1785.00,92.65
1784.00,92.68
1783.00,92.69
1782.00,92.71
1781.00,92.75
1780.00,92.81
1779.00,92.87
1778.00,92.92
1777.00,92.96
1776.00,93.00
1775.00,93.04
1774.00,93.09
1773.00,93.15
1772.00,93.21
1771.00,93.24
1770.00,93.27
1769.00,93.29
1768.00,93.33
1767.00,93.35
1766.00,93.37
1765.00,93.39
1764.00,93.41
1763.00,93.42
1762.00,93.43
1761.00,93.45
1760.00,93.45
1759.00,93.44
1758.00,93.43
1757.00,93.41
1756.00,93.37
1755.00,93.31
1754.00,93.24
1753.00,93.18
1752.00,93.09
1751.00,92.96
1750.00,92.77
1749.00,92.54
1748.00,92.27
1747.00,91.95
1746.00,91.58
1745.00,91.17
1744.00,90.69
1743.00,90.13
1742.00,89.48
1741.00,88.71
1740.00,87.76
1739.00,86.75
1738.00,85.86
1737.00,85.07
1736.00,84.17
1735.00,82.85
1734.00,81.14
1733.00,79.54
1732.00,78.27
1731.00,77.09
1730.00,75.82
1729.00,74.49
1728.00,73.19
1727.00,71.92
1726.00,70.66
1725.00,69.34
1724.00,67.96
1723.00,66.60
1722.00,65.37
1721.00,64.29
1720.00,63.24
1719.00,61.96
1718.00,60.40
1717.00,58.86
1716.00,57.61
1715.00,56.54
1714.00,55.58
1713.00,54.79
1712.00,54.20
1711.00,53.74
1710.00,53.42
1709.00,53.35
1708.00,53.57
1707.00,54.06
1706.00,54.85
1705.00,55.89
1704.00,56.96
1703.00,57.93
1702.00,59.03
1701.00,60.68
1700.00,62.71
1699.00,64.29
1698.00,65.38
1697.00,66.50
1696.00,67.89
1695.00,69.25
1694.00,70.27
1693.00,71.04
1692.00,71.75
1691.00,72.47
1690.00,73.17
1689.00,73.81
1688.00,74.35
1687.00,74.77
1686.00,75.15
1685.00,75.61
1684.00,76.15
1683.00,76.57
1682.00,76.87
1681.00,77.12
1680.00,77.37
1679.00,77.62
1678.00,77.85
1677.00,78.11
1676.00,78.43
1675.00,78.79
1674.00,79.14
1673.00,79.45
1672.00,79.76
1671.00,80.09
1670.00,80.48
1669.00,80.88
1668.00,81.24
1667.00,81.52
1666.00,81.74
1665.00,81.95
1664.00,82.17
1663.00,82.40
1662.00,82.62
1661.00,82.83
1660.00,83.03
1659.00,83.20
1658.00,83.37
1657.00,83.55
1656.00,83.73
1655.00,83.91
1654.00,84.10
1653.00,84.31
1652.00,84.46
1651.00,84.54
1650.00,84.60
1649.00,84.68
1648.00,84.81
1647.00,84.96
1646.00,85.10
1645.00,85.21
1644.00,85.32
1643.00,85.41
1642.00,85.50
1641.00,85.59
1640.00,85.66
1639.00,85.71
1638.00,85.73
1637.00,85.76
1636.00,85.79
1635.00,85.84
1634.00,85.90
1633.00,85.98
1632.00,86.08
1631.00,86.19
1630.00,86.31
1629.00,86.44
1628.00,86.56
1627.00,86.67
1626.00,86.77
1625.00,86.87
1624.00,86.98
1623.00,87.09
1622.00,87.17
1621.00,87.24
1620.00,87.30
1619.00,87.36
1618.00,87.40
1617.00,87.42
1616.00,87.40
1615.00,87.34
1614.00,87.24
1613.00,87.10
1612.00,86.87
1611.00,86.52
1610.00,86.03
1609.00,85.38
1608.00,84.60
1607.00,83.72
1606.00,82.81
1605.00,81.95
1604.00,81.15
1603.00,80.48
1602.00,80.01
1601.00,79.77
1600.00,79.74
1599.00,79.91
1598.00,80.25
1597.00,80.72
1596.00,81.28
1595.00,81.89
1594.00,82.52
1593.00,83.12
1592.00,83.68
1591.00,84.18
1590.00,84.64
1589.00,85.04
1588.00,85.38
1587.00,85.66
1586.00,85.90
1585.00,86.10
1584.00,86.26
1583.00,86.40
1582.00,86.52
1581.00,86.63
1580.00,86.74
1579.00,86.85
1578.00,86.96
1577.00,87.09
1576.00,87.25
1575.00,87.40
1574.00,87.51
1573.00,87.60
1572.00,87.70
1571.00,87.80
1570.00,87.90
1569.00,87.99
1568.00,88.07
1567.00,88.15
1566.00,88.22
1565.00,88.30
1564.00,88.38
1563.00,88.44
1562.00,88.51
1561.00,88.57
1560.00,88.64
1559.00,88.72
1558.00,88.77
1557.00,88.80
1556.00,88.84
1555.00,88.90
1554.00,88.97
1553.00,89.03
1552.00,89.09
1551.00,89.13
1550.00,89.17
1549.00,89.21
1548.00,89.24
1547.00,89.26
1546.00,89.28
1545.00,89.30
1544.00,89.34
1543.00,89.38
1542.00,89.42
1541.00,89.47
1540.00,89.57
1539.00,89.67
1538.00,89.73
1537.00,89.76
1536.00,89.79
1535.00,89.83
1534.00,89.89
1533.00,89.95
1532.00,90.00
1531.00,90.04
1530.00,90.08
1529.00,90.14
1528.00,90.21
1527.00,90.27
1526.00,90.31
1525.00,90.34
1524.00,90.38
1523.00,90.43
1522.00,90.49
1521.00,90.55
1520.00,90.58
1519.00,90.60
1518.00,90.62
1517.00,90.64
1516.00,90.64
1515.00,90.63
1514.00,90.60
1513.00,90.56
1512.00,90.51
1511.00,90.43
1510.00,90.32
1509.00,90.15
1508.00,89.79
1507.00,89.07
1506.00,88.19
1505.00,87.49
1504.00,87.01
1503.00,86.67
1502.00,86.46
1501.00,86.42
1500.00,86.57
1499.00,86.91
1498.00,87.37
1497.00,87.89
1496.00,88.38
1495.00,88.77
1494.00,89.04
1493.00,89.24
1492.00,89.40
1491.00,89.54
1490.00,89.62
1489.00,89.63
1488.00,89.57
1487.00,89.44
1486.00,89.23
1485.00,88.93
1484.00,88.54
1483.00,88.05
1482.00,87.47
1481.00,86.86
1480.00,86.33
1479.00,85.93
1478.00,85.67
1477.00,85.58
1476.00,85.67
1475.00,85.94
1474.00,86.32
1473.00,86.77
1472.00,87.18
1471.00,87.43
1470.00,87.57
1469.00,87.65
1468.00,87.73
1467.00,87.81
1466.00,87.88
1465.00,87.93
1464.00,87.95
1463.00,87.91
1462.00,87.85
1461.00,87.77
1460.00,87.71
1459.00,87.68
1458.00,87.69
1457.00,87.75
1456.00,87.82
1455.00,87.87
1454.00,87.91
1453.00,87.97
1452.00,88.06
1451.00,88.17
1450.00,88.29
1449.00,88.45
1448.00,88.62
1447.00,88.80
1446.00,88.94
1445.00,89.08
1444.00,89.21
1443.00,89.34
1442.00,89.45
1441.00,89.55
1440.00,89.64
1439.00,89.73
1438.00,89.84
1437.00,89.98
1436.00,90.13
1435.00,90.24
1434.00,90.33
1433.00,90.43
1432.00,90.55
1431.00,90.68
1430.00,90.81
1429.00,90.94
1428.00,91.06
1427.00,91.15
1426.00,91.23
1425.00,91.30
1424.00,91.35
1423.00,91.40
1422.00,91.43
1421.00,91.48
1420.00,91.50
1419.00,91.47
1418.00,91.39
1417.00,91.27
1416.00,91.13
1415.00,90.97
1414.00,90.78
1413.00,90.57
1412.00,90.33
1411.00,90.06
1410.00,89.79
1409.00,89.55
1408.00,89.35
1407.00,89.20
1406.00,89.11
1405.00,89.09
1404.00,89.14
1403.00,89.24
1402.00,89.37
1401.00,89.50
1400.00,89.65
1399.00,89.77
1398.00,89.86
1397.00,89.91
1396.00,89.91
1395.00,89.87
1394.00,89.78
1393.00,89.67
1392.00,89.53
1391.00,89.37
1390.00,89.19
1389.00,88.98
1388.00,88.70
1387.00,88.33
1386.00,87.90
1385.00,87.42
1384.00,86.89
1383.00,86.29
1382.00,85.63
1381.00,84.93
1380.00,84.21
1379.00,83.51
1378.00,82.88
1377.00,82.37
1376.00,82.01
1375.00,81.81
1374.00,81.80
1373.00,81.96
1372.00,82.26
1371.00,82.69
1370.00,83.22
1369.00,83.84
1368.00,84.50
1367.00,85.15
1366.00,85.76
1365.00,86.35
1364.00,86.94
1363.00,87.54
1362.00,88.11
1361.00,88.59
1360.00,88.99
1359.00,89.34
1358.00,89.64
1357.00,89.86
1356.00,90.02
1355.00,90.11
1354.00,90.14
1353.00,90.08
1352.00,89.92
1351.00,89.63
1350.00,89.17
1349.00,88.50
1348.00,87.59
1347.00,86.44
1346.00,85.04
1345.00,83.46
1344.00,81.80
1343.00,80.22
1342.00,78.83
1341.00,77.70
1340.00,76.91
1339.00,76.49
1338.00,76.38
1337.00,76.44
1336.00,76.52
1335.00,76.53
1334.00,76.43
1333.00,76.28
1332.00,76.16
1331.00,76.22
1330.00,76.61
1329.00,77.45
1328.00,78.78
1327.00,80.53
1326.00,82.51
1325.00,84.46
1324.00,86.20
1323.00,87.61
1322.00,88.70
1321.00,89.52
1320.00,90.14
1319.00,90.61
1318.00,90.95
1317.00,91.21
1316.00,91.41
1315.00,91.55
1314.00,91.64
1313.00,91.71
1312.00,91.75
1311.00,91.74
1310.00,91.69
1309.00,91.58
1308.00,91.44
1307.00,91.26
1306.00,91.05
1305.00,90.79
1304.00,90.47
1303.00,90.09
1302.00,89.64
1301.00,89.14
1300.00,88.61
1299.00,88.06
1298.00,87.49
1297.00,86.91
1296.00,86.33
1295.00,85.75
1294.00,85.20
1293.00,84.67
1292.00,84.18
1291.00,83.72
1290.00,83.30
1289.00,82.89
1288.00,82.48
1287.00,82.04
1286.00,81.56
1285.00,81.00
1284.00,80.34
1283.00,79.59
1282.00,78.81
1281.00,78.03
1280.00,77.30
1279.00,76.67
1278.00,76.18
1277.00,75.84
1276.00,75.67
1275.00,75.66
1274.00,75.80
1273.00,76.03
1272.00,76.29
1271.00,76.50
1270.00,76.57
1269.00,76.45
1268.00,76.10
1267.00,75.56
1266.00,74.84
1265.00,73.97
1264.00,72.99
1263.00,71.94
1262.00,70.84
1261.00,69.71
1260.00,68.58
1259.00,67.49
1258.00,66.44
1257.00,65.41
1256.00,64.39
1255.00,63.39
1254.00,62.43
1253.00,61.50
1252.00,60.64
1251.00,59.87
1250.00,59.21
1249.00,58.65
1248.00,58.18
1247.00,57.83
1246.00,57.61
1245.00,57.51
1244.00,57.52
1243.00,57.62
1242.00,57.81
1241.00,58.05
1240.00,58.35
1239.00,58.73
1238.00,59.17
1237.00,59.65
1236.00,60.14
1235.00,60.66
1234.00,61.20
1233.00,61.76
1232.00,62.31
1231.00,62.88
1230.00,63.43
1229.00,63.95
1228.00,64.40
1227.00,64.79
1226.00,65.13
1225.00,65.40
1224.00,65.59
1223.00,65.71
1222.00,65.77
1221.00,65.77
1220.00,65.73
1219.00,65.68
1218.00,65.66
1217.00,65.69
1216.00,65.78
1215.00,66.00
1214.00,66.36
1213.00,66.90
1212.00,67.64
1211.00,68.58
1210.00,69.71
1209.00,71.00
1208.00,72.42
1207.00,73.97
1206.00,75.60
1205.00,77.28
1204.00,78.94
1203.00,80.54
1202.00,82.00
1201.00,83.26
1200.00,84.27
1199.00,85.02
1198.00,85.44
1197.00,85.47
1196.00,85.03
1195.00,84.07
1194.00,82.59
1193.00,80.64
1192.00,78.34
1191.00,75.86
1190.00,73.41
1189.00,71.11
1188.00,69.06
1187.00,67.26
1186.00,65.68
1185.00,64.25
1184.00,62.95
1183.00,61.78
1182.00,60.75
1181.00,59.87
1180.00,59.20
1179.00,58.77
1178.00,58.61
1177.00,58.69
1176.00,58.94
1175.00,59.32
1174.00,59.77
1173.00,60.22
1172.00,60.64
1171.00,61.02
1170.00,61.35
1169.00,61.64
1168.00,61.87
1167.00,62.11
1166.00,62.38
1165.00,62.66
1164.00,62.96
1163.00,63.30
1162.00,63.69
1161.00,64.14
1160.00,64.62
1159.00,65.14
1158.00,65.68
1157.00,66.23
1156.00,66.81
1155.00,67.45
1154.00,68.15
1153.00,68.91
1152.00,69.71
1151.00,70.53
1150.00,71.30
1149.00,71.87
1148.00,72.14
1147.00,72.00
1146.00,71.44
1145.00,70.52
1144.00,69.37
1143.00,68.21
1142.00,67.16
1141.00,66.28
1140.00,65.55
1139.00,64.96
1138.00,64.46
1137.00,64.01
1136.00,63.58
1135.00,63.17
1134.00,62.80
1133.00,62.47
1132.00,62.19
1131.00,62.01
1130.00,62.00
1129.00,62.23
1128.00,62.73
1127.00,63.48
1126.00,64.41
1125.00,65.39
1124.00,66.35
1123.00,67.26
1122.00,68.10
1121.00,68.84
1120.00,69.50
1119.00,70.10
1118.00,70.66
1117.00,71.15
1116.00,71.57
1115.00,71.91
1114.00,72.12
1113.00,72.16
1112.00,72.00
1111.00,71.67
1110.00,71.15
1109.00,70.44
1108.00,69.59
1107.00,68.66
1106.00,67.72
1105.00,66.79
1104.00,65.92
1103.00,65.13
1102.00,64.44
1101.00,63.82
1100.00,63.23
1099.00,62.67
1098.00,62.13
1097.00,61.59
1096.00,61.06
1095.00,60.58
1094.00,60.14
1093.00,59.74
1092.00,59.37
1091.00,59.05
1090.00,58.79
1089.00,58.56
1088.00,58.37
1087.00,58.27
1086.00,58.27
1085.00,58.35
1084.00,58.50
1083.00,58.75
1082.00,59.09
1081.00,59.49
1080.00,59.92
1079.00,60.38
1078.00,60.87
1077.00,61.36
1076.00,61.86
1075.00,62.37
1074.00,62.92
1073.00,63.45
1072.00,63.95
1071.00,64.43
1070.00,64.88
1069.00,65.30
1068.00,65.67
1067.00,66.03
1066.00,66.37
1065.00,66.69
1064.00,67.01
1063.00,67.32
1062.00,67.62
1061.00,67.90
1060.00,68.13
1059.00,68.34
1058.00,68.54
1057.00,68.72
1056.00,68.89
1055.00,69.08
1054.00,69.27
1053.00,69.43
1052.00,69.58
1051.00,69.70
1050.00,69.82
1049.00,69.94
1048.00,70.06
1047.00,70.20
1046.00,70.36
1045.00,70.49
1044.00,70.61
1043.00,70.72
1042.00,70.84
1041.00,70.96
1040.00,71.10
1039.00,71.26
1038.00,71.44
1037.00,71.62
1036.00,71.78
1035.00,71.93
1034.00,72.09
1033.00,72.25
1032.00,72.42
1031.00,72.59
1030.00,72.77
1029.00,72.94
1028.00,73.08
1027.00,73.23
1026.00,73.39
1025.00,73.56
1024.00,73.74
1023.00,73.91
1022.00,74.09
1021.00,74.26
1020.00,74.42
1019.00,74.59
1018.00,74.77
1017.00,74.95
1016.00,75.12
1015.00,75.28
1014.00,75.41
1013.00,75.51
1012.00,75.54
1011.00,75.48
1010.00,75.34
1009.00,75.09
1008.00,74.73
1007.00,74.28
1006.00,73.76
1005.00,73.21
1004.00,72.66
1003.00,72.14
1002.00,71.68
1001.00,71.28
1000.00,70.94
999.00,70.68
998.00,70.48
997.00,70.34
996.00,70.23
995.00,70.15
994.00,70.11
993.00,70.08
992.00,70.05
991.00,70.03
990.00,70.00
989.00,69.94
988.00,69.87
987.00,69.77
986.00,69.65
985.00,69.48
984.00,69.31
983.00,69.17
982.00,69.08
981.00,69.07
980.00,69.11
979.00,69.20
978.00,69.31
977.00,69.45
976.00,69.59
975.00,69.75
974.00,69.90
973.00,70.04
972.00,70.18
971.00,70.33
970.00,70.49
969.00,70.63
968.00,70.76
967.00,70.87
966.00,70.97
965.00,71.04
964.00,71.13
963.00,71.25
962.00,71.43
961.00,71.64
960.00,71.88
959.00,72.12
958.00,72.36
957.00,72.61
956.00,72.85
955.00,73.09
954.00,73.34
953.00,73.58
952.00,73.81
951.00,74.03
950.00,74.22
949.00,74.39
948.00,74.50
947.00,74.56
946.00,74.53
945.00,74.42
944.00,74.22
943.00,73.95
942.00,73.60
941.00,73.18
940.00,72.72
939.00,72.26
938.00,71.80
937.00,71.32
936.00,70.83
935.00,70.36
934.00,69.96
933.00,69.65
932.00,69.45
931.00,69.35
930.00,69.31
929.00,69.28
928.00,69.20
927.00,69.05
926.00,68.84
925.00,68.55
924.00,68.22
923.00,67.88
922.00,67.55
921.00,67.23
920.00,66.95
919.00,66.75
918.00,66.67
917.00,66.69
916.00,66.83
915.00,67.07
914.00,67.39
913.00,67.76
912.00,68.14
911.00,68.52
910.00,68.85
909.00,69.10
908.00,69.22
907.00,69.20
906.00,69.06
905.00,68.82
904.00,68.59
903.00,68.44
902.00,68.45
901.00,68.60
900.00,68.89
899.00,69.29
898.00,69.77
897.00,70.27
896.00,70.75
895.00,71.20
894.00,71.62
893.00,72.01
892.00,72.35
891.00,72.64
890.00,72.90
889.00,73.13
888.00,73.34
887.00,73.55
886.00,73.75
885.00,73.92
884.00,74.07
883.00,74.22
882.00,74.37
881.00,74.50
880.00,74.61
879.00,74.73
878.00,74.87
877.00,74.99
876.00,75.10
875.00,75.20
874.00,75.33
873.00,75.46
872.00,75.59
871.00,75.72
870.00,75.85
869.00,75.96
868.00,76.07
867.00,76.18
866.00,76.31
865.00,76.46
864.00,76.59
863.00,76.69
862.00,76.75
861.00,76.79
860.00,76.80
859.00,76.81
858.00,76.85
857.00,76.92
856.00,77.00
855.00,77.09
854.00,77.17
853.00,77.23
852.00,77.25
851.00,77.24
850.00,77.19
849.00,77.11
848.00,77.01
847.00,76.90
846.00,76.75
845.00,76.55
844.00,76.26
843.00,75.88
842.00,75.38
841.00,74.79
840.00,74.16
839.00,73.60
838.00,73.16
837.00,72.82
836.00,72.52
835.00,72.26
834.00,72.01
833.00,71.79
832.00,71.58
831.00,71.37
830.00,71.16
829.00,70.93
828.00,70.70
827.00,70.51
826.00,70.41
825.00,70.42
824.00,70.54
823.00,70.77
822.00,71.08
821.00,71.43
820.00,71.79
819.00,72.10
818.00,72.26
817.00,72.14
816.00,71.68
815.00,70.97
814.00,70.22
813.00,69.68
812.00,69.54
811.00,69.78
810.00,70.28
809.00,70.87
808.00,71.47
807.00,72.05
806.00,72.59
805.00,73.08
804.00,73.53
803.00,73.95
802.00,74.34
801.00,74.68
800.00,74.98
799.00,75.27
798.00,75.55
797.00,75.81
796.00,76.06
795.00,76.32
794.00,76.58
793.00,76.82
792.00,77.02
791.00,77.20
790.00,77.35
789.00,77.46
788.00,77.52
787.00,77.55
786.00,77.54
785.00,77.49
784.00,77.40
783.00,77.31
782.00,77.25
781.00,77.26
780.00,77.35
779.00,77.46
778.00,77.43
777.00,77.09
776.00,76.32
775.00,75.06
774.00,73.31
773.00,71.08
772.00,68.44
771.00,65.51
770.00,62.45
769.00,59.36
768.00,56.36
767.00,53.56
766.00,51.06
765.00,48.97
764.00,47.37
763.00,46.37
762.00,45.99
761.00,46.18
760.00,46.86
759.00,47.97
758.00,49.39
757.00,50.98
756.00,52.61
755.00,54.21
754.00,55.74
753.00,57.17
752.00,58.48
751.00,59.72
750.00,60.87
749.00,61.90
748.00,62.81
747.00,63.63
746.00,64.35
745.00,64.90
744.00,65.26
743.00,65.46
742.00,65.57
741.00,65.62
740.00,65.64
739.00,65.68
738.00,65.78
737.00,65.93
736.00,66.13
735.00,66.41
734.00,66.77
733.00,67.17
732.00,67.57
731.00,67.97
730.00,68.38
729.00,68.78
728.00,69.15
727.00,69.47
726.00,69.79
725.00,70.09
724.00,70.35
723.00,70.57
722.00,70.76
721.00,70.93
720.00,71.11
719.00,71.29
718.00,71.45
717.00,71.59
716.00,71.70
715.00,71.81
714.00,71.91
713.00,71.99
712.00,72.07
711.00,72.20
710.00,72.38
709.00,72.54
708.00,72.65
707.00,72.71
706.00,72.78
705.00,72.86
704.00,72.95
703.00,73.03
702.00,73.09
701.00,73.16
700.00,73.25
699.00,73.35
698.00,73.46
697.00,73.58
696.00,73.65
695.00,73.70
694.00,73.73
693.00,73.77
692.00,73.81
691.00,73.86
690.00,73.92
689.00,74.00
688.00,74.10
687.00,74.21
686.00,74.30
685.00,74.36
684.00,74.42
683.00,74.46
682.00,74.47
681.00,74.46
680.00,74.47
679.00,74.53
678.00,74.65
677.00,74.77
676.00,74.84
675.00,74.84
674.00,74.81
673.00,74.79
672.00,74.82
671.00,74.88
670.00,74.94
669.00,74.94
668.00,74.78
667.00,74.65
666.00,74.70
665.00,74.85
664.00,74.95
663.00,74.98
662.00,74.97
661.00,74.95
660.00,74.96
659.00,75.01
658.00,75.08
657.00,75.16
656.00,75.23
655.00,75.28
654.00,75.35
653.00,75.40
652.00,75.43
651.00,75.46
650.00,75.51
649.00,75.61
648.00,75.71
647.00,75.74
646.00,75.58
645.00,75.12
644.00,74.27
643.00,73.12
642.00,71.95
641.00,71.15
640.00,71.00
639.00,71.53
638.00,72.45
637.00,73.32
636.00,73.88
635.00,74.14
634.00,74.25
633.00,74.36
632.00,74.54
631.00,74.77
630.00,74.96
629.00,75.03
628.00,74.99
627.00,74.84
626.00,74.60
625.00,74.23
624.00,73.84
623.00,73.62
622.00,73.71
621.00,73.98
620.00,74.21
619.00,74.27
618.00,74.23
617.00,74.29
616.00,74.53
615.00,74.87
614.00,75.12
613.00,75.22
612.00,75.26
611.00,75.34
610.00,75.44
609.00,75.46
608.00,75.41
607.00,75.32
606.00,75.23
605.00,75.17
604.00,75.25
603.00,75.55
602.00,75.96
601.00,76.28
600.00,76.38
599.00,76.35
598.00,76.34
597.00,76.43
596.00,76.63
595.00,76.86
594.00,76.94
593.00,76.78
592.00,76.47
591.00,76.23
590.00,76.20
589.00,76.31
588.00,76.42
587.00,76.49
586.00,76.52
585.00,76.52
584.00,76.56
583.00,76.68
582.00,76.82
581.00,76.92
580.00,77.01
579.00,77.11
578.00,77.13
577.00,77.00
576.00,76.87
575.00,76.97
574.00,77.24
573.00,77.43
572.00,77.39
571.00,77.17
570.00,76.80
569.00,76.36
568.00,76.04
567.00,76.03
566.00,76.25
565.00,76.44
564.00,76.58
563.00,76.74
562.00,76.79
561.00,76.54
560.00,76.15
559.00,76.06
558.00,76.39
557.00,76.77
556.00,76.86
555.00,76.69
554.00,76.41
553.00,76.06
552.00,75.72
551.00,75.46
550.00,75.21
