Created as New Dataset,137. Polyester Du Pont
cm-1,%T
4000.00,100.75
3999.00,100.76
3998.00,100.77
3997.00,100.77
3996.00,100.75
3995.00,100.73
3994.00,100.71
3993.00,100.70
3992.00,100.71
3991.00,100.73
3990.00,100.75
3989.00,100.76
3988.00,100.75
3987.00,100.74
3986.00,100.72
3985.00,100.70
3984.00,100.70
3983.00,100.71
3982.00,100.73
3981.00,100.74
3980.00,100.73
3979.00,100.72
3978.00,100.71
3977.00,100.71
3976.00,100.73
3975.00,100.75
3974.00,100.76
3973.00,100.78
3972.00,100.79
3971.00,100.80
3970.00,100.80
3969.00,100.81
3968.00,100.81
3967.00,100.80
3966.00,100.78
3965.00,100.75
3964.00,100.73
3963.00,100.71
3962.00,100.71
3961.00,100.71
3960.00,100.72
3959.00,100.73
3958.00,100.74
3957.00,100.75
3956.00,100.75
3955.00,100.75
3954.00,100.74
3953.00,100.75
3952.00,100.76
3951.00,100.77
3950.00,100.77
3949.00,100.75
3948.00,100.73
3947.00,100.71
3946.00,100.70
3945.00,100.69
3944.00,100.70
3943.00,100.71
3942.00,100.72
3941.00,100.73
3940.00,100.73
3939.00,100.72
3938.00,100.73
3937.00,100.73
3936.00,100.73
3935.00,100.71
3934.00,100.70
3933.00,100.68
3932.00,100.68
3931.00,100.68
3930.00,100.68
3929.00,100.68
3928.00,100.68
3927.00,100.68
3926.00,100.70
3925.00,100.73
3924.00,100.75
3923.00,100.74
3922.00,100.72
3921.00,100.71
3920.00,100.70
3919.00,100.69
3918.00,100.68
3917.00,100.67
3916.00,100.67
3915.00,100.67
3914.00,100.67
3913.00,100.68
3912.00,100.70
3911.00,100.71
3910.00,100.72
3909.00,100.71
3908.00,100.70
3907.00,100.68
3906.00,100.68
3905.00,100.69
3904.00,100.69
3903.00,100.66
3902.00,100.63
3901.00,100.60
3900.00,100.60
3899.00,100.61
3898.00,100.63
3897.00,100.64
3896.00,100.65
3895.00,100.67
3894.00,100.68
3893.00,100.69
3892.00,100.70
3891.00,100.72
3890.00,100.72
3889.00,100.68
3888.00,100.65
3887.00,100.63
3886.00,100.65
3885.00,100.66
3884.00,100.63
3883.00,100.58
3882.00,100.55
3881.00,100.58
3880.00,100.63
3879.00,100.66
3878.00,100.66
3877.00,100.64
3876.00,100.63
3875.00,100.64
3874.00,100.65
3873.00,100.62
3872.00,100.59
3871.00,100.61
3870.00,100.67
3869.00,100.71
3868.00,100.68
3867.00,100.62
3866.00,100.59
3865.00,100.62
3864.00,100.65
3863.00,100.66
3862.00,100.65
3861.00,100.65
3860.00,100.68
3859.00,100.71
3858.00,100.75
3857.00,100.77
3856.00,100.76
3855.00,100.74
3854.00,100.71
3853.00,100.69
3852.00,100.65
3851.00,100.61
3850.00,100.59
3849.00,100.59
3848.00,100.60
3847.00,100.61
3846.00,100.63
3845.00,100.64
3844.00,100.64
3843.00,100.63
3842.00,100.60
3841.00,100.57
3840.00,100.56
3839.00,100.57
3838.00,100.57
3837.00,100.57
3836.00,100.56
3835.00,100.55
3834.00,100.56
3833.00,100.58
3832.00,100.59
3831.00,100.58
3830.00,100.56
3829.00,100.54
3828.00,100.54
3827.00,100.56
3826.00,100.60
3825.00,100.61
3824.00,100.58
3823.00,100.56
3822.00,100.58
3821.00,100.62
3820.00,100.60
3819.00,100.53
3818.00,100.44
3817.00,100.43
3816.00,100.47
3815.00,100.51
3814.00,100.52
3813.00,100.51
3812.00,100.52
3811.00,100.54
3810.00,100.54
3809.00,100.54
3808.00,100.56
3807.00,100.60
3806.00,100.62
3805.00,100.59
3804.00,100.53
3803.00,100.49
3802.00,100.51
3801.00,100.52
3800.00,100.50
3799.00,100.47
3798.00,100.46
3797.00,100.50
3796.00,100.54
3795.00,100.55
3794.00,100.52
3793.00,100.50
3792.00,100.50
3791.00,100.51
3790.00,100.52
3789.00,100.54
3788.00,100.54
3787.00,100.54
3786.00,100.53
3785.00,100.53
3784.00,100.53
3783.00,100.53
3782.00,100.53
3781.00,100.53
3780.00,100.55
3779.00,100.56
3778.00,100.55
3777.00,100.53
3776.00,100.50
3775.00,100.50
3774.00,100.50
3773.00,100.49
3772.00,100.46
3771.00,100.45
3770.00,100.46
3769.00,100.46
3768.00,100.44
3767.00,100.43
3766.00,100.44
3765.00,100.46
3764.00,100.48
3763.00,100.47
3762.00,100.47
3761.00,100.50
3760.00,100.53
3759.00,100.54
3758.00,100.52
3757.00,100.48
3756.00,100.45
3755.00,100.42
3754.00,100.40
3753.00,100.42
3752.00,100.44
3751.00,100.45
3750.00,100.45
3749.00,100.44
3748.00,100.41
3747.00,100.36
3746.00,100.33
3745.00,100.37
3744.00,100.42
3743.00,100.42
3742.00,100.39
3741.00,100.39
3740.00,100.42
3739.00,100.44
3738.00,100.44
3737.00,100.42
3736.00,100.40
3735.00,100.40
3734.00,100.39
3733.00,100.39
3732.00,100.41
3731.00,100.42
3730.00,100.43
3729.00,100.43
3728.00,100.42
3727.00,100.40
3726.00,100.38
3725.00,100.35
3724.00,100.32
3723.00,100.31
3722.00,100.31
3721.00,100.30
3720.00,100.27
3719.00,100.27
3718.00,100.28
3717.00,100.31
3716.00,100.33
3715.00,100.35
3714.00,100.37
3713.00,100.39
3712.00,100.39
3711.00,100.36
3710.00,100.32
3709.00,100.30
3708.00,100.30
3707.00,100.32
3706.00,100.33
3705.00,100.33
3704.00,100.31
3703.00,100.30
3702.00,100.31
3701.00,100.33
3700.00,100.35
3699.00,100.36
3698.00,100.37
3697.00,100.38
3696.00,100.39
3695.00,100.37
3694.00,100.35
3693.00,100.33
3692.00,100.31
3691.00,100.29
3690.00,100.28
3689.00,100.28
3688.00,100.28
3687.00,100.27
3686.00,100.26
3685.00,100.25
3684.00,100.26
3683.00,100.27
3682.00,100.26
3681.00,100.25
3680.00,100.25
3679.00,100.25
3678.00,100.22
3677.00,100.20
3676.00,100.21
3675.00,100.23
3674.00,100.21
3673.00,100.15
3672.00,100.09
3671.00,100.06
3670.00,100.05
3669.00,100.02
3668.00,99.98
3667.00,99.97
3666.00,99.99
3665.00,100.04
3664.00,100.08
3663.00,100.10
3662.00,100.10
3661.00,100.10
3660.00,100.09
3659.00,100.07
3658.00,100.05
3657.00,100.04
3656.00,100.05
3655.00,100.04
3654.00,100.02
3653.00,99.99
3652.00,99.98
3651.00,99.99
3650.00,99.97
3649.00,99.93
3648.00,99.89
3647.00,99.87
3646.00,99.87
3645.00,99.87
3644.00,99.89
3643.00,99.93
3642.00,99.97
3641.00,99.99
3640.00,99.99
3639.00,99.98
3638.00,99.96
3637.00,99.95
3636.00,99.94
3635.00,99.96
3634.00,99.99
3633.00,100.00
3632.00,99.97
3631.00,99.92
3630.00,99.90
3629.00,99.91
3628.00,99.91
3627.00,99.89
3626.00,99.87
3625.00,99.88
3624.00,99.90
3623.00,99.91
3622.00,99.90
3621.00,99.87
3620.00,99.86
3619.00,99.85
3618.00,99.86
3617.00,99.86
3616.00,99.86
3615.00,99.86
3614.00,99.86
3613.00,99.88
3612.00,99.90
3611.00,99.92
3610.00,99.94
3609.00,99.97
3608.00,99.98
3607.00,99.97
3606.00,99.95
3605.00,99.94
3604.00,99.95
3603.00,99.97
3602.00,99.98
3601.00,99.97
3600.00,99.96
3599.00,99.95
3598.00,99.94
3597.00,99.93
3596.00,99.93
3595.00,99.94
3594.00,99.98
3593.00,100.02
3592.00,100.06
3591.00,100.08
3590.00,100.08
3589.00,100.06
3588.00,100.03
3587.00,100.00
3586.00,99.96
3585.00,99.94
3584.00,99.93
3583.00,99.95
3582.00,99.97
3581.00,99.99
3580.00,99.99
3579.00,99.98
3578.00,99.95
3577.00,99.94
3576.00,99.95
3575.00,99.97
3574.00,99.98
3573.00,99.96
3572.00,99.92
3571.00,99.85
3570.00,99.78
3569.00,99.72
3568.00,99.69
3567.00,99.69
3566.00,99.72
3565.00,99.75
3564.00,99.78
3563.00,99.80
3562.00,99.82
3561.00,99.82
3560.00,99.80
3559.00,99.78
3558.00,99.76
3557.00,99.74
3556.00,99.73
3555.00,99.72
3554.00,99.71
3553.00,99.69
3552.00,99.68
3551.00,99.67
3550.00,99.67
3549.00,99.69
3548.00,99.72
3547.00,99.75
3546.00,99.76
3545.00,99.77
3544.00,99.77
3543.00,99.78
3542.00,99.79
3541.00,99.80
3540.00,99.81
3539.00,99.83
3538.00,99.84
3537.00,99.84
3536.00,99.82
3535.00,99.79
3534.00,99.76
3533.00,99.75
3532.00,99.75
3531.00,99.76
3530.00,99.77
3529.00,99.78
3528.00,99.80
3527.00,99.81
3526.00,99.82
3525.00,99.82
3524.00,99.83
3523.00,99.84
3522.00,99.86
3521.00,99.87
3520.00,99.86
3519.00,99.84
3518.00,99.82
3517.00,99.80
3516.00,99.80
3515.00,99.82
3514.00,99.85
3513.00,99.86
3512.00,99.86
3511.00,99.85
3510.00,99.85
3509.00,99.85
3508.00,99.85
3507.00,99.83
3506.00,99.81
3505.00,99.79
3504.00,99.79
3503.00,99.81
3502.00,99.84
3501.00,99.87
3500.00,99.89
3499.00,99.89
3498.00,99.88
3497.00,99.86
3496.00,99.86
3495.00,99.86
3494.00,99.87
3493.00,99.88
3492.00,99.90
3491.00,99.92
3490.00,99.93
3489.00,99.92
3488.00,99.89
3487.00,99.86
3486.00,99.86
3485.00,99.87
3484.00,99.89
3483.00,99.91
3482.00,99.89
3481.00,99.87
3480.00,99.84
3479.00,99.83
3478.00,99.84
3477.00,99.85
3476.00,99.87
3475.00,99.89
3474.00,99.90
3473.00,99.88
3472.00,99.84
3471.00,99.82
3470.00,99.80
3469.00,99.81
3468.00,99.83
3467.00,99.85
3466.00,99.86
3465.00,99.85
3464.00,99.83
3463.00,99.81
3462.00,99.79
3461.00,99.78
3460.00,99.77
3459.00,99.76
3458.00,99.74
3457.00,99.73
3456.00,99.72
3455.00,99.71
3454.00,99.71
3453.00,99.69
3452.00,99.67
3451.00,99.63
3450.00,99.59
3449.00,99.55
3448.00,99.52
3447.00,99.50
3446.00,99.50
3445.00,99.50
3444.00,99.50
3443.00,99.48
3442.00,99.45
3441.00,99.42
3440.00,99.38
3439.00,99.36
3438.00,99.35
3437.00,99.34
3436.00,99.34
3435.00,99.34
3434.00,99.33
3433.00,99.33
3432.00,99.34
3431.00,99.34
3430.00,99.35
3429.00,99.36
3428.00,99.35
3427.00,99.35
3426.00,99.35
3425.00,99.38
3424.00,99.41
3423.00,99.45
3422.00,99.50
3421.00,99.54
3420.00,99.57
3419.00,99.58
3418.00,99.58
3417.00,99.58
3416.00,99.58
3415.00,99.59
3414.00,99.60
3413.00,99.62
3412.00,99.64
3411.00,99.67
3410.00,99.69
3409.00,99.71
3408.00,99.72
3407.00,99.74
3406.00,99.77
3405.00,99.80
3404.00,99.84
3403.00,99.86
3402.00,99.86
3401.00,99.84
3400.00,99.82
3399.00,99.81
3398.00,99.81
3397.00,99.83
3396.00,99.85
3395.00,99.86
3394.00,99.86
3393.00,99.87
3392.00,99.89
3391.00,99.91
3390.00,99.92
3389.00,99.92
3388.00,99.92
3387.00,99.92
3386.00,99.93
3385.00,99.93
3384.00,99.92
3383.00,99.90
3382.00,99.88
3381.00,99.87
3380.00,99.87
3379.00,99.88
3378.00,99.89
3377.00,99.91
3376.00,99.92
3375.00,99.94
3374.00,99.94
3373.00,99.92
3372.00,99.91
3371.00,99.90
3370.00,99.90
3369.00,99.91
3368.00,99.92
3367.00,99.93
3366.00,99.94
3365.00,99.95
3364.00,99.95
3363.00,99.93
3362.00,99.92
3361.00,99.89
3360.00,99.87
3359.00,99.86
3358.00,99.87
3357.00,99.88
3356.00,99.90
3355.00,99.91
3354.00,99.91
3353.00,99.90
3352.00,99.89
3351.00,99.89
3350.00,99.89
3349.00,99.89
3348.00,99.88
3347.00,99.87
3346.00,99.85
3345.00,99.82
3344.00,99.79
3343.00,99.77
3342.00,99.78
3341.00,99.79
3340.00,99.82
3339.00,99.84
3338.00,99.83
3337.00,99.81
3336.00,99.80
3335.00,99.80
3334.00,99.82
3333.00,99.84
3332.00,99.86
3331.00,99.87
3330.00,99.86
3329.00,99.85
3328.00,99.84
3327.00,99.84
3326.00,99.84
3325.00,99.84
3324.00,99.84
3323.00,99.85
3322.00,99.86
3321.00,99.88
3320.00,99.89
3319.00,99.90
3318.00,99.91
3317.00,99.92
3316.00,99.93
3315.00,99.94
3314.00,99.94
3313.00,99.95
3312.00,99.94
3311.00,99.92
3310.00,99.88
3309.00,99.86
3308.00,99.84
3307.00,99.84
3306.00,99.86
3305.00,99.87
3304.00,99.88
3303.00,99.87
3302.00,99.86
3301.00,99.84
3300.00,99.83
3299.00,99.83
3298.00,99.84
3297.00,99.86
3296.00,99.87
3295.00,99.86
3294.00,99.85
3293.00,99.84
3292.00,99.84
3291.00,99.86
3290.00,99.88
3289.00,99.89
3288.00,99.90
3287.00,99.89
3286.00,99.89
3285.00,99.89
3284.00,99.90
3283.00,99.89
3282.00,99.87
3281.00,99.84
3280.00,99.82
3279.00,99.81
3278.00,99.81
3277.00,99.81
3276.00,99.81
3275.00,99.81
3274.00,99.82
3273.00,99.83
3272.00,99.84
3271.00,99.84
3270.00,99.83
3269.00,99.82
3268.00,99.81
3267.00,99.81
3266.00,99.81
3265.00,99.82
3264.00,99.83
3263.00,99.84
3262.00,99.85
3261.00,99.86
3260.00,99.87
3259.00,99.88
3258.00,99.90
3257.00,99.90
3256.00,99.90
3255.00,99.89
3254.00,99.87
3253.00,99.86
3252.00,99.85
3251.00,99.83
3250.00,99.82
3249.00,99.82
3248.00,99.83
3247.00,99.83
3246.00,99.83
3245.00,99.82
3244.00,99.80
3243.00,99.79
3242.00,99.79
3241.00,99.80
3240.00,99.80
3239.00,99.79
3238.00,99.79
3237.00,99.78
3236.00,99.78
3235.00,99.77
3234.00,99.76
3233.00,99.76
3232.00,99.76
3231.00,99.78
3230.00,99.79
3229.00,99.80
3228.00,99.82
3227.00,99.82
3226.00,99.83
3225.00,99.83
3224.00,99.82
3223.00,99.81
3222.00,99.81
3221.00,99.82
3220.00,99.81
3219.00,99.79
3218.00,99.76
3217.00,99.74
3216.00,99.73
3215.00,99.73
3214.00,99.73
3213.00,99.74
3212.00,99.76
3211.00,99.78
3210.00,99.81
3209.00,99.83
3208.00,99.84
3207.00,99.84
3206.00,99.83
3205.00,99.83
3204.00,99.82
3203.00,99.81
3202.00,99.80
3201.00,99.81
3200.00,99.82
3199.00,99.83
3198.00,99.83
3197.00,99.82
3196.00,99.81
3195.00,99.79
3194.00,99.78
3193.00,99.76
3192.00,99.75
3191.00,99.75
3190.00,99.74
3189.00,99.75
3188.00,99.75
3187.00,99.76
3186.00,99.77
3185.00,99.78
3184.00,99.79
3183.00,99.79
3182.00,99.77
3181.00,99.75
3180.00,99.74
3179.00,99.75
3178.00,99.77
3177.00,99.77
3176.00,99.77
3175.00,99.76
3174.00,99.74
3173.00,99.73
3172.00,99.73
3171.00,99.73
3170.00,99.74
3169.00,99.75
3168.00,99.76
3167.00,99.76
3166.00,99.76
3165.00,99.75
3164.00,99.75
3163.00,99.74
3162.00,99.74
3161.00,99.72
3160.00,99.71
3159.00,99.70
3158.00,99.70
3157.00,99.70
3156.00,99.70
3155.00,99.69
3154.00,99.68
3153.00,99.68
3152.00,99.68
3151.00,99.67
3150.00,99.66
3149.00,99.64
3148.00,99.62
3147.00,99.62
3146.00,99.63
3145.00,99.65
3144.00,99.66
3143.00,99.66
3142.00,99.66
3141.00,99.65
3140.00,99.64
3139.00,99.64
3138.00,99.62
3137.00,99.60
3136.00,99.58
3135.00,99.56
3134.00,99.55
3133.00,99.54
3132.00,99.53
3131.00,99.52
3130.00,99.51
3129.00,99.51
3128.00,99.50
3127.00,99.50
3126.00,99.49
3125.00,99.49
3124.00,99.49
3123.00,99.49
3122.00,99.49
3121.00,99.47
3120.00,99.44
3119.00,99.42
3118.00,99.42
3117.00,99.41
3116.00,99.40
3115.00,99.38
3114.00,99.36
3113.00,99.34
3112.00,99.32
3111.00,99.30
3110.00,99.29
3109.00,99.28
3108.00,99.28
3107.00,99.27
3106.00,99.26
3105.00,99.24
3104.00,99.22
3103.00,99.22
3102.00,99.24
3101.00,99.26
3100.00,99.28
3099.00,99.29
3098.00,99.30
3097.00,99.32
3096.00,99.32
3095.00,99.31
3094.00,99.29
3093.00,99.28
3092.00,99.27
3091.00,99.26
3090.00,99.25
3089.00,99.23
3088.00,99.22
3087.00,99.20
3086.00,99.18
3085.00,99.16
3084.00,99.14
3083.00,99.12
3082.00,99.11
3081.00,99.10
3080.00,99.10
3079.00,99.09
3078.00,99.10
3077.00,99.10
3076.00,99.09
3075.00,99.07
3074.00,99.04
3073.00,99.02
3072.00,99.02
3071.00,99.04
3070.00,99.06
3069.00,99.09
3068.00,99.10
3067.00,99.09
3066.00,99.09
3065.00,99.08
3064.00,99.08
3063.00,99.07
3062.00,99.06
3061.00,99.05
3060.00,99.04
3059.00,99.04
3058.00,99.03
3057.00,99.01
3056.00,99.00
3055.00,99.00
3054.00,99.01
3053.00,99.03
3052.00,99.07
3051.00,99.10
3050.00,99.13
3049.00,99.16
3048.00,99.20
3047.00,99.25
3046.00,99.31
3045.00,99.35
3044.00,99.39
3043.00,99.42
3042.00,99.44
3041.00,99.44
3040.00,99.44
3039.00,99.44
3038.00,99.44
3037.00,99.44
3036.00,99.44
3035.00,99.42
3034.00,99.41
3033.00,99.40
3032.00,99.39
3031.00,99.38
3030.00,99.36
3029.00,99.33
3028.00,99.30
3027.00,99.28
3026.00,99.26
3025.00,99.25
3024.00,99.23
3023.00,99.22
3022.00,99.19
3021.00,99.16
3020.00,99.12
3019.00,99.08
3018.00,99.04
3017.00,99.00
3016.00,98.97
3015.00,98.93
3014.00,98.89
3013.00,98.85
3012.00,98.81
3011.00,98.76
3010.00,98.73
3009.00,98.69
3008.00,98.66
3007.00,98.63
3006.00,98.60
3005.00,98.57
3004.00,98.55
3003.00,98.53
3002.00,98.51
3001.00,98.50
3000.00,98.48
2999.00,98.45
2998.00,98.41
2997.00,98.37
2996.00,98.32
2995.00,98.28
2994.00,98.24
2993.00,98.21
2992.00,98.18
2991.00,98.15
2990.00,98.11
2989.00,98.07
2988.00,98.01
2987.00,97.93
2986.00,97.86
2985.00,97.78
2984.00,97.71
2983.00,97.64
2982.00,97.56
2981.00,97.49
2980.00,97.42
2979.00,97.36
2978.00,97.30
2977.00,97.24
2976.00,97.17
2975.00,97.11
2974.00,97.05
2973.00,97.00
2972.00,96.96
2971.00,96.93
2970.00,96.91
2969.00,96.90
2968.00,96.90
2967.00,96.91
2966.00,96.92
2965.00,96.94
2964.00,96.96
2963.00,96.99
2962.00,97.03
2961.00,97.09
2960.00,97.16
2959.00,97.24
2958.00,97.31
2957.00,97.38
2956.00,97.45
2955.00,97.54
2954.00,97.64
2953.00,97.72
2952.00,97.79
2951.00,97.87
2950.00,97.94
2949.00,98.02
2948.00,98.08
2947.00,98.15
2946.00,98.21
2945.00,98.28
2944.00,98.33
2943.00,98.37
2942.00,98.40
2941.00,98.44
2940.00,98.48
2939.00,98.52
2938.00,98.54
2937.00,98.54
2936.00,98.53
2935.00,98.52
2934.00,98.52
2933.00,98.54
2932.00,98.55
2931.00,98.57
2930.00,98.58
2929.00,98.59
2928.00,98.58
2927.00,98.56
2926.00,98.53
2925.00,98.50
2924.00,98.47
2923.00,98.45
2922.00,98.44
2921.00,98.42
2920.00,98.41
2919.00,98.38
2918.00,98.35
2917.00,98.30
2916.00,98.26
2915.00,98.21
2914.00,98.18
2913.00,98.15
2912.00,98.12
2911.00,98.09
2910.00,98.07
2909.00,98.06
2908.00,98.06
2907.00,98.07
2906.00,98.11
2905.00,98.15
2904.00,98.20
2903.00,98.25
2902.00,98.29
2901.00,98.33
2900.00,98.37
2899.00,98.42
2898.00,98.47
2897.00,98.50
2896.00,98.51
2895.00,98.52
2894.00,98.53
2893.00,98.54
2892.00,98.56
2891.00,98.58
2890.00,98.62
2889.00,98.65
2888.00,98.67
2887.00,98.67
2886.00,98.68
2885.00,98.70
2884.00,98.73
2883.00,98.76
2882.00,98.77
2881.00,98.77
2880.00,98.77
2879.00,98.77
2878.00,98.79
2877.00,98.82
2876.00,98.84
2875.00,98.85
2874.00,98.85
2873.00,98.84
2872.00,98.83
2871.00,98.83
2870.00,98.84
2869.00,98.85
2868.00,98.85
2867.00,98.85
2866.00,98.86
2865.00,98.86
2864.00,98.86
2863.00,98.86
2862.00,98.86
2861.00,98.87
2860.00,98.87
2859.00,98.88
2858.00,98.88
2857.00,98.88
2856.00,98.88
2855.00,98.89
2854.00,98.92
2853.00,98.96
2852.00,98.99
2851.00,99.03
2850.00,99.06
2849.00,99.08
2848.00,99.11
2847.00,99.13
2846.00,99.16
2845.00,99.18
2844.00,99.20
2843.00,99.23
2842.00,99.25
2841.00,99.28
2840.00,99.31
2839.00,99.33
2838.00,99.34
2837.00,99.35
2836.00,99.36
2835.00,99.39
2834.00,99.41
2833.00,99.42
2832.00,99.42
2831.00,99.40
2830.00,99.40
2829.00,99.40
2828.00,99.40
2827.00,99.42
2826.00,99.43
2825.00,99.43
2824.00,99.43
2823.00,99.43
2822.00,99.44
2821.00,99.44
2820.00,99.44
2819.00,99.44
2818.00,99.44
2817.00,99.44
2816.00,99.44
2815.00,99.44
2814.00,99.44
2813.00,99.42
2812.00,99.40
2811.00,99.39
2810.00,99.38
2809.00,99.39
2808.00,99.39
2807.00,99.39
2806.00,99.40
2805.00,99.40
2804.00,99.39
2803.00,99.38
2802.00,99.37
2801.00,99.38
2800.00,99.40
2799.00,99.42
2798.00,99.43
2797.00,99.43
2796.00,99.42
2795.00,99.42
2794.00,99.43
2793.00,99.43
2792.00,99.44
2791.00,99.44
2790.00,99.45
2789.00,99.46
2788.00,99.47
2787.00,99.48
2786.00,99.49
2785.00,99.50
2784.00,99.51
2783.00,99.51
2782.00,99.52
2781.00,99.53
2780.00,99.54
2779.00,99.55
2778.00,99.56
2777.00,99.57
2776.00,99.57
2775.00,99.57
2774.00,99.56
2773.00,99.56
2772.00,99.56
2771.00,99.55
2770.00,99.56
2769.00,99.57
2768.00,99.59
2767.00,99.60
2766.00,99.60
2765.00,99.58
2764.00,99.56
2763.00,99.54
2762.00,99.54
2761.00,99.56
2760.00,99.57
2759.00,99.58
2758.00,99.57
2757.00,99.55
2756.00,99.53
2755.00,99.51
2754.00,99.51
2753.00,99.51
2752.00,99.51
2751.00,99.51
2750.00,99.51
2749.00,99.52
2748.00,99.53
2747.00,99.55
2746.00,99.56
2745.00,99.57
2744.00,99.57
2743.00,99.57
2742.00,99.58
2741.00,99.58
2740.00,99.57
2739.00,99.56
2738.00,99.55
2737.00,99.54
2736.00,99.54
2735.00,99.54
2734.00,99.54
2733.00,99.54
2732.00,99.54
2731.00,99.55
2730.00,99.56
2729.00,99.57
2728.00,99.58
2727.00,99.58
2726.00,99.58
2725.00,99.58
2724.00,99.58
2723.00,99.59
2722.00,99.60
2721.00,99.61
2720.00,99.61
2719.00,99.62
2718.00,99.62
2717.00,99.63
2716.00,99.63
2715.00,99.63
2714.00,99.62
2713.00,99.62
2712.00,99.62
2711.00,99.63
2710.00,99.64
2709.00,99.65
2708.00,99.65
2707.00,99.65
2706.00,99.64
2705.00,99.63
2704.00,99.62
2703.00,99.61
2702.00,99.62
2701.00,99.62
2700.00,99.62
2699.00,99.62
2698.00,99.63
2697.00,99.63
2696.00,99.63
2695.00,99.63
2694.00,99.63
2693.00,99.63
2692.00,99.63
2691.00,99.63
2690.00,99.63
2689.00,99.63
2688.00,99.63
2687.00,99.62
2686.00,99.61
2685.00,99.61
2684.00,99.62
2683.00,99.63
2682.00,99.63
2681.00,99.62
2680.00,99.61
2679.00,99.62
2678.00,99.62
2677.00,99.62
2676.00,99.62
2675.00,99.61
2674.00,99.61
2673.00,99.60
2672.00,99.60
2671.00,99.61
2670.00,99.62
2669.00,99.64
2668.00,99.65
2667.00,99.63
2666.00,99.60
2665.00,99.57
2664.00,99.55
2663.00,99.54
2662.00,99.53
2661.00,99.52
2660.00,99.50
2659.00,99.48
2658.00,99.47
2657.00,99.47
2656.00,99.46
2655.00,99.45
2654.00,99.45
2653.00,99.44
2652.00,99.43
2651.00,99.42
2650.00,99.40
2649.00,99.39
2648.00,99.38
2647.00,99.37
2646.00,99.37
2645.00,99.36
2644.00,99.35
2643.00,99.34
2642.00,99.34
2641.00,99.34
2640.00,99.33
2639.00,99.31
2638.00,99.29
2637.00,99.28
2636.00,99.27
2635.00,99.26
2634.00,99.25
2633.00,99.23
2632.00,99.22
2631.00,99.21
2630.00,99.22
2629.00,99.24
2628.00,99.25
2627.00,99.25
2626.00,99.23
2625.00,99.22
2624.00,99.20
2623.00,99.19
2622.00,99.20
2621.00,99.21
2620.00,99.22
2619.00,99.21
2618.00,99.20
2617.00,99.17
2616.00,99.15
2615.00,99.14
2614.00,99.14
2613.00,99.14
2612.00,99.13
2611.00,99.12
2610.00,99.12
2609.00,99.12
2608.00,99.12
2607.00,99.11
2606.00,99.11
2605.00,99.11
2604.00,99.11
2603.00,99.11
2602.00,99.09
2601.00,99.07
2600.00,99.05
2599.00,99.05
2598.00,99.04
2597.00,99.03
2596.00,99.02
2595.00,99.01
2594.00,99.00
2593.00,98.99
2592.00,98.97
2591.00,98.96
2590.00,98.95
2589.00,98.95
2588.00,98.95
2587.00,98.96
2586.00,98.98
2585.00,98.99
2584.00,98.98
2583.00,98.96
2582.00,98.95
2581.00,98.95
2580.00,98.95
2579.00,98.96
2578.00,98.96
2577.00,98.96
2576.00,98.95
2575.00,98.94
2574.00,98.94
2573.00,98.94
2572.00,98.95
2571.00,98.96
2570.00,98.97
2569.00,98.98
2568.00,98.99
2567.00,98.99
2566.00,99.00
2565.00,99.01
2564.00,99.00
2563.00,98.99
2562.00,98.97
2561.00,98.96
2560.00,98.95
2559.00,98.95
2558.00,98.95
2557.00,98.94
2556.00,98.92
2555.00,98.90
2554.00,98.89
2553.00,98.89
2552.00,98.90
2551.00,98.91
2550.00,98.92
2549.00,98.93
2548.00,98.92
2547.00,98.90
2546.00,98.88
2545.00,98.87
2544.00,98.86
2543.00,98.85
2542.00,98.83
2541.00,98.82
2540.00,98.82
2539.00,98.84
2538.00,98.86
2537.00,98.89
2536.00,98.91
2535.00,98.91
2534.00,98.91
2533.00,98.90
2532.00,98.89
2531.00,98.89
2530.00,98.88
2529.00,98.89
2528.00,98.89
2527.00,98.89
2526.00,98.88
2525.00,98.86
2524.00,98.86
2523.00,98.87
2522.00,98.90
2521.00,98.92
2520.00,98.94
2519.00,98.96
2518.00,98.95
2517.00,98.94
2516.00,98.92
2515.00,98.92
2514.00,98.92
2513.00,98.91
2512.00,98.89
2511.00,98.89
2510.00,98.89
2509.00,98.90
2508.00,98.90
2507.00,98.90
2506.00,98.90
2505.00,98.91
2504.00,98.92
2503.00,98.94
2502.00,98.96
2501.00,98.97
2500.00,98.98
2499.00,98.98
2498.00,98.99
2497.00,98.99
2496.00,98.99
2495.00,98.99
2494.00,98.98
2493.00,98.97
2492.00,98.95
2491.00,98.94
2490.00,98.94
2489.00,98.94
2488.00,98.96
2487.00,98.98
2486.00,98.99
2485.00,98.98
2484.00,98.97
2483.00,98.95
2482.00,98.95
2481.00,98.98
2480.00,99.02
2479.00,99.06
2478.00,99.07
2477.00,99.05
2476.00,99.02
2475.00,98.98
2474.00,98.97
2473.00,98.97
2472.00,98.98
2471.00,98.99
2470.00,98.99
2469.00,98.99
2468.00,98.98
2467.00,98.97
2466.00,98.97
2465.00,98.98
2464.00,98.99
2463.00,98.99
2462.00,98.98
2461.00,98.98
2460.00,98.98
2459.00,98.98
2458.00,98.97
2457.00,98.97
2456.00,98.97
2455.00,98.99
2454.00,99.01
2453.00,99.02
2452.00,99.03
2451.00,99.03
2450.00,99.02
2449.00,99.01
2448.00,99.00
2447.00,99.01
2446.00,99.01
2445.00,99.00
2444.00,98.97
2443.00,98.96
2442.00,98.98
2441.00,99.01
2440.00,99.02
2439.00,99.01
2438.00,98.99
2437.00,98.99
2436.00,99.00
2435.00,99.00
2434.00,98.99
2433.00,98.98
2432.00,98.97
2431.00,98.96
2430.00,98.95
2429.00,98.95
2428.00,98.96
2427.00,98.98
2426.00,98.98
2425.00,98.98
2424.00,98.97
2423.00,98.97
2422.00,98.99
2421.00,99.00
2420.00,99.02
2419.00,99.02
2418.00,99.01
2417.00,99.01
2416.00,99.00
2415.00,99.00
2414.00,98.99
2413.00,98.99
2412.00,98.98
2411.00,98.97
2410.00,98.97
2409.00,98.96
2408.00,98.96
2407.00,98.97
2406.00,98.97
2405.00,98.97
2404.00,98.96
2403.00,98.97
2402.00,99.00
2401.00,99.03
2400.00,99.05
2399.00,99.03
2398.00,99.00
2397.00,98.98
2396.00,98.97
2395.00,98.97
2394.00,98.99
2393.00,99.00
2392.00,99.01
2391.00,99.01
2390.00,99.01
2389.00,99.02
2388.00,99.04
2387.00,99.07
2386.00,99.11
2385.00,99.16
2384.00,99.22
2383.00,99.28
2382.00,99.34
2381.00,99.40
2380.00,99.45
2379.00,99.49
2378.00,99.53
2377.00,99.56
2376.00,99.58
2375.00,99.58
2374.00,99.57
2373.00,99.53
2372.00,99.49
2371.00,99.50
2370.00,99.56
2369.00,99.66
2368.00,99.73
2367.00,99.74
2366.00,99.71
2365.00,99.69
2364.00,99.66
2363.00,99.62
2362.00,99.55
2361.00,99.50
2360.00,99.52
2359.00,99.60
2358.00,99.69
2357.00,99.74
2356.00,99.73
2355.00,99.69
2354.00,99.67
2353.00,99.78
2352.00,99.97
2351.00,100.11
2350.00,100.11
2349.00,99.97
2348.00,99.83
2347.00,99.78
2346.00,99.79
2345.00,99.78
2344.00,99.69
2343.00,99.62
2342.00,99.61
2341.00,99.65
2340.00,99.68
2339.00,99.66
2338.00,99.62
2337.00,99.57
2336.00,99.55
2335.00,99.55
2334.00,99.56
2333.00,99.54
2332.00,99.51
2331.00,99.47
2330.00,99.47
2329.00,99.45
2328.00,99.40
2327.00,99.30
2326.00,99.18
2325.00,99.09
2324.00,99.04
2323.00,99.05
2322.00,99.08
2321.00,99.11
2320.00,99.11
2319.00,99.10
2318.00,99.09
2317.00,99.11
2316.00,99.15
2315.00,99.20
2314.00,99.23
2313.00,99.24
2312.00,99.23
2311.00,99.20
2310.00,99.17
2309.00,99.14
2308.00,99.11
2307.00,99.08
2306.00,99.04
2305.00,98.98
2304.00,98.92
2303.00,98.88
2302.00,98.87
2301.00,98.87
2300.00,98.85
2299.00,98.81
2298.00,98.77
2297.00,98.74
2296.00,98.72
2295.00,98.71
2294.00,98.69
2293.00,98.66
2292.00,98.63
2291.00,98.59
2290.00,98.56
2289.00,98.53
2288.00,98.49
2287.00,98.44
2286.00,98.39
2285.00,98.35
2284.00,98.32
2283.00,98.31
2282.00,98.31
2281.00,98.33
2280.00,98.34
2279.00,98.35
2278.00,98.35
2277.00,98.36
2276.00,98.37
2275.00,98.36
2274.00,98.33
2273.00,98.30
2272.00,98.28
2271.00,98.28
2270.00,98.27
2269.00,98.26
2268.00,98.27
2267.00,98.30
2266.00,98.32
2265.00,98.34
2264.00,98.34
2263.00,98.32
2262.00,98.29
2261.00,98.27
2260.00,98.24
2259.00,98.21
2258.00,98.17
2257.00,98.15
2256.00,98.16
2255.00,98.19
2254.00,98.19
2253.00,98.18
2252.00,98.17
2251.00,98.18
2250.00,98.20
2249.00,98.20
2248.00,98.20
2247.00,98.20
2246.00,98.20
2245.00,98.20
2244.00,98.19
2243.00,98.18
2242.00,98.18
2241.00,98.18
2240.00,98.16
2239.00,98.13
2238.00,98.11
2237.00,98.11
2236.00,98.12
2235.00,98.13
2234.00,98.13
2233.00,98.12
2232.00,98.10
2231.00,98.09
2230.00,98.10
2229.00,98.13
2228.00,98.16
2227.00,98.17
2226.00,98.15
2225.00,98.12
2224.00,98.10
2223.00,98.09
2222.00,98.07
2221.00,98.02
2220.00,97.96
2219.00,97.91
2218.00,97.90
2217.00,97.92
2216.00,97.95
2215.00,97.97
2214.00,97.98
2213.00,98.01
2212.00,98.06
2211.00,98.10
2210.00,98.09
2209.00,98.03
2208.00,97.97
2207.00,97.94
2206.00,97.95
2205.00,97.96
2204.00,97.95
2203.00,97.92
2202.00,97.89
2201.00,97.85
2200.00,97.82
2199.00,97.80
2198.00,97.81
2197.00,97.84
2196.00,97.87
2195.00,97.89
2194.00,97.87
2193.00,97.84
2192.00,97.80
2191.00,97.78
2190.00,97.79
2189.00,97.80
2188.00,97.77
2187.00,97.71
2186.00,97.65
2185.00,97.61
2184.00,97.62
2183.00,97.67
2182.00,97.74
2181.00,97.80
2180.00,97.84
2179.00,97.85
2178.00,97.85
2177.00,97.84
2176.00,97.85
2175.00,97.86
2174.00,97.83
2173.00,97.75
2172.00,97.64
2171.00,97.53
2170.00,97.46
2169.00,97.41
2168.00,97.35
2167.00,97.29
2166.00,97.23
2165.00,97.18
2164.00,97.12
2163.00,97.06
2162.00,97.03
2161.00,97.11
2160.00,97.32
2159.00,97.61
2158.00,97.87
2157.00,98.03
2156.00,98.08
2155.00,98.08
2154.00,98.05
2153.00,98.02
2152.00,97.98
2151.00,97.94
2150.00,97.91
2149.00,97.91
2148.00,97.91
2147.00,97.92
2146.00,97.96
2145.00,98.01
2144.00,98.07
2143.00,98.11
2142.00,98.16
2141.00,98.20
2140.00,98.25
2139.00,98.29
2138.00,98.31
2137.00,98.33
2136.00,98.35
2135.00,98.38
2134.00,98.41
2133.00,98.43
2132.00,98.44
2131.00,98.44
2130.00,98.45
2129.00,98.44
2128.00,98.44
2127.00,98.43
2126.00,98.43
2125.00,98.43
2124.00,98.42
2123.00,98.38
2122.00,98.33
2121.00,98.30
2120.00,98.30
2119.00,98.30
2118.00,98.30
2117.00,98.27
2116.00,98.22
2115.00,98.17
2114.00,98.15
2113.00,98.14
2112.00,98.14
2111.00,98.12
2110.00,98.09
2109.00,98.05
2108.00,98.03
2107.00,98.01
2106.00,98.00
2105.00,98.00
2104.00,98.01
2103.00,98.03
2102.00,98.06
2101.00,98.07
2100.00,98.06
2099.00,98.04
2098.00,98.05
2097.00,98.09
2096.00,98.15
2095.00,98.19
2094.00,98.18
2093.00,98.15
2092.00,98.12
2091.00,98.12
2090.00,98.12
2089.00,98.12
2088.00,98.13
2087.00,98.14
2086.00,98.15
2085.00,98.16
2084.00,98.16
2083.00,98.14
2082.00,98.10
2081.00,98.05
2080.00,98.01
2079.00,97.98
2078.00,97.97
2077.00,97.96
2076.00,97.95
2075.00,97.97
2074.00,98.01
2073.00,98.07
2072.00,98.12
2071.00,98.15
2070.00,98.16
2069.00,98.16
2068.00,98.16
2067.00,98.16
2066.00,98.15
2065.00,98.14
2064.00,98.13
2063.00,98.12
2062.00,98.11
2061.00,98.11
2060.00,98.11
2059.00,98.11
2058.00,98.10
2057.00,98.08
2056.00,98.07
2055.00,98.05
2054.00,98.01
2053.00,97.94
2052.00,97.85
2051.00,97.76
2050.00,97.71
2049.00,97.71
2048.00,97.74
2047.00,97.78
2046.00,97.81
2045.00,97.82
2044.00,97.81
2043.00,97.78
2042.00,97.75
2041.00,97.74
2040.00,97.73
2039.00,97.70
2038.00,97.67
2037.00,97.66
2036.00,97.68
2035.00,97.71
2034.00,97.72
2033.00,97.72
2032.00,97.73
2031.00,97.77
2030.00,97.81
2029.00,97.82
2028.00,97.81
2027.00,97.80
2026.00,97.80
2025.00,97.81
2024.00,97.81
2023.00,97.83
2022.00,97.86
2021.00,97.88
2020.00,97.87
2019.00,97.84
2018.00,97.80
2017.00,97.78
2016.00,97.81
2015.00,97.88
2014.00,97.94
2013.00,97.97
2012.00,97.98
2011.00,97.98
2010.00,97.95
2009.00,97.90
2008.00,97.87
2007.00,97.87
2006.00,97.89
2005.00,97.93
2004.00,97.98
2003.00,98.04
2002.00,98.07
2001.00,98.08
2000.00,98.05
1999.00,98.01
1998.00,97.95
1997.00,97.87
1996.00,97.78
1995.00,97.73
1994.00,97.70
1993.00,97.70
1992.00,97.72
1991.00,97.75
1990.00,97.79
1989.00,97.82
1988.00,97.81
1987.00,97.77
1986.00,97.71
1985.00,97.64
1984.00,97.56
1983.00,97.46
1982.00,97.35
1981.00,97.26
1980.00,97.22
1979.00,97.24
1978.00,97.34
1977.00,97.48
1976.00,97.60
1975.00,97.65
1974.00,97.63
1973.00,97.55
1972.00,97.48
1971.00,97.45
1970.00,97.45
1969.00,97.47
1968.00,97.47
1967.00,97.46
1966.00,97.43
1965.00,97.41
1964.00,97.40
1963.00,97.39
1962.00,97.41
1961.00,97.45
1960.00,97.49
1959.00,97.52
1958.00,97.54
1957.00,97.54
1956.00,97.53
1955.00,97.54
1954.00,97.54
1953.00,97.54
1952.00,97.54
1951.00,97.56
1950.00,97.60
1949.00,97.65
1948.00,97.71
1947.00,97.78
1946.00,97.85
1945.00,97.89
1944.00,97.90
1943.00,97.89
1942.00,97.89
1941.00,97.95
1940.00,98.06
1939.00,98.17
1938.00,98.24
1937.00,98.25
1936.00,98.23
1935.00,98.22
1934.00,98.26
1933.00,98.31
1932.00,98.34
1931.00,98.33
1930.00,98.31
1929.00,98.30
1928.00,98.32
1927.00,98.38
1926.00,98.45
1925.00,98.52
1924.00,98.59
1923.00,98.65
1922.00,98.70
1921.00,98.71
1920.00,98.69
1919.00,98.64
1918.00,98.60
1917.00,98.59
1916.00,98.62
1915.00,98.65
1914.00,98.68
1913.00,98.70
1912.00,98.74
1911.00,98.79
1910.00,98.83
1909.00,98.84
1908.00,98.84
1907.00,98.84
1906.00,98.85
1905.00,98.84
1904.00,98.83
1903.00,98.81
1902.00,98.81
1901.00,98.83
1900.00,98.84
1899.00,98.86
1898.00,98.87
1897.00,98.87
1896.00,98.88
1895.00,98.90
1894.00,98.93
1893.00,98.96
1892.00,98.98
1891.00,98.98
1890.00,98.98
1889.00,98.97
1888.00,98.97
1887.00,98.96
1886.00,98.94
1885.00,98.93
1884.00,98.93
1883.00,98.94
1882.00,98.97
1881.00,99.00
1880.00,99.01
1879.00,99.00
1878.00,98.98
1877.00,98.98
1876.00,99.00
1875.00,99.03
1874.00,99.05
1873.00,99.07
1872.00,99.07
1871.00,99.07
1870.00,99.07
1869.00,99.06
1868.00,99.06
1867.00,99.05
1866.00,99.03
1865.00,99.02
1864.00,99.03
1863.00,99.05
1862.00,99.06
1861.00,99.07
1860.00,99.06
1859.00,99.04
1858.00,99.03
1857.00,99.01
1856.00,99.00
1855.00,98.99
1854.00,98.98
1853.00,98.96
1852.00,98.94
1851.00,98.92
1850.00,98.90
1849.00,98.89
1848.00,98.89
1847.00,98.88
1846.00,98.86
1845.00,98.83
1844.00,98.81
1843.00,98.78
1842.00,98.76
1841.00,98.72
1840.00,98.68
1839.00,98.65
1838.00,98.63
1837.00,98.60
1836.00,98.57
1835.00,98.54
1834.00,98.54
1833.00,98.54
1832.00,98.52
1831.00,98.49
1830.00,98.47
1829.00,98.48
1828.00,98.49
1827.00,98.50
1826.00,98.50
1825.00,98.50
1824.00,98.49
1823.00,98.47
1822.00,98.45
1821.00,98.45
1820.00,98.46
1819.00,98.48
1818.00,98.50
1817.00,98.52
1816.00,98.54
1815.00,98.55
1814.00,98.56
1813.00,98.57
1812.00,98.57
1811.00,98.57
1810.00,98.57
1809.00,98.58
1808.00,98.57
1807.00,98.55
1806.00,98.54
1805.00,98.54
1804.00,98.56
1803.00,98.59
1802.00,98.60
1801.00,98.60
1800.00,98.59
1799.00,98.58
1798.00,98.58
1797.00,98.59
1796.00,98.60
1795.00,98.59
1794.00,98.57
1793.00,98.57
1792.00,98.57
1791.00,98.56
1790.00,98.55
1789.00,98.52
1788.00,98.50
1787.00,98.49
1786.00,98.48
1785.00,98.47
1784.00,98.46
1783.00,98.45
1782.00,98.43
1781.00,98.43
1780.00,98.42
1779.00,98.40
1778.00,98.38
1777.00,98.38
1776.00,98.38
1775.00,98.37
1774.00,98.33
1773.00,98.28
1772.00,98.22
1771.00,98.15
1770.00,98.10
1769.00,98.06
1768.00,98.02
1767.00,97.97
1766.00,97.91
1765.00,97.86
1764.00,97.81
1763.00,97.73
1762.00,97.62
1761.00,97.51
1760.00,97.41
1759.00,97.29
1758.00,97.14
1757.00,96.98
1756.00,96.79
1755.00,96.57
1754.00,96.33
1753.00,96.06
1752.00,95.71
1751.00,95.22
1750.00,94.61
1749.00,93.92
1748.00,93.16
1747.00,92.33
1746.00,91.41
1745.00,90.39
1744.00,89.26
1743.00,88.03
1742.00,86.74
1741.00,85.37
1740.00,83.88
1739.00,82.39
1738.00,81.10
1737.00,79.99
1736.00,78.85
1735.00,77.36
1734.00,75.56
1733.00,73.92
1732.00,72.59
1731.00,71.35
1730.00,70.04
1729.00,68.70
1728.00,67.39
1727.00,66.11
1726.00,64.83
1725.00,63.54
1724.00,62.23
1723.00,60.94
1722.00,59.74
1721.00,58.70
1720.00,57.72
1719.00,56.62
1718.00,55.35
1717.00,54.18
1716.00,53.34
1715.00,52.76
1714.00,52.39
1713.00,52.34
1712.00,52.64
1711.00,53.22
1710.00,54.05
1709.00,55.16
1708.00,56.56
1707.00,58.22
1706.00,60.15
1705.00,62.17
1704.00,63.96
1703.00,65.45
1702.00,66.94
1701.00,68.87
1700.00,71.10
1699.00,72.89
1698.00,74.11
1697.00,75.24
1696.00,76.53
1695.00,77.81
1694.00,78.78
1693.00,79.50
1692.00,80.14
1691.00,80.79
1690.00,81.44
1689.00,82.02
1688.00,82.51
1687.00,82.92
1686.00,83.32
1685.00,83.79
1684.00,84.33
1683.00,84.80
1682.00,85.17
1681.00,85.53
1680.00,85.93
1679.00,86.33
1678.00,86.70
1677.00,87.07
1676.00,87.47
1675.00,87.90
1674.00,88.29
1673.00,88.60
1672.00,88.89
1671.00,89.22
1670.00,89.61
1669.00,90.02
1668.00,90.38
1667.00,90.67
1666.00,90.92
1665.00,91.18
1664.00,91.48
1663.00,91.82
1662.00,92.15
1661.00,92.43
1660.00,92.65
1659.00,92.84
1658.00,93.03
1657.00,93.21
1656.00,93.39
1655.00,93.57
1654.00,93.77
1653.00,94.03
1652.00,94.24
1651.00,94.30
1650.00,94.28
1649.00,94.29
1648.00,94.36
1647.00,94.47
1646.00,94.60
1645.00,94.71
1644.00,94.78
1643.00,94.84
1642.00,94.89
1641.00,94.95
1640.00,95.00
1639.00,95.06
1638.00,95.11
1637.00,95.17
1636.00,95.26
1635.00,95.36
1634.00,95.43
1633.00,95.46
1632.00,95.48
1631.00,95.50
1630.00,95.53
1629.00,95.56
1628.00,95.59
1627.00,95.63
1626.00,95.65
1625.00,95.67
1624.00,95.69
1623.00,95.70
1622.00,95.69
1621.00,95.66
1620.00,95.61
1619.00,95.54
1618.00,95.43
1617.00,95.31
1616.00,95.22
1615.00,95.18
1614.00,95.17
1613.00,95.21
1612.00,95.29
1611.00,95.41
1610.00,95.54
1609.00,95.69
1608.00,95.84
1607.00,95.97
1606.00,96.10
1605.00,96.23
1604.00,96.35
1603.00,96.46
1602.00,96.55
1601.00,96.63
1600.00,96.70
1599.00,96.76
1598.00,96.80
1597.00,96.84
1596.00,96.88
1595.00,96.92
1594.00,96.96
1593.00,96.99
1592.00,96.99
1591.00,96.96
1590.00,96.90
1589.00,96.83
1588.00,96.74
1587.00,96.62
1586.00,96.46
1585.00,96.25
1584.00,96.01
1583.00,95.73
1582.00,95.44
1581.00,95.18
1580.00,94.98
1579.00,94.87
1578.00,94.87
1577.00,95.01
1576.00,95.26
1575.00,95.55
1574.00,95.77
1573.00,95.94
1572.00,96.10
1571.00,96.28
1570.00,96.48
1569.00,96.69
1568.00,96.86
1567.00,96.97
1566.00,97.04
1565.00,97.12
1564.00,97.22
1563.00,97.33
1562.00,97.43
1561.00,97.50
1560.00,97.53
1559.00,97.55
1558.00,97.58
1557.00,97.61
1556.00,97.62
1555.00,97.64
1554.00,97.67
1553.00,97.70
1552.00,97.73
1551.00,97.77
1550.00,97.80
1549.00,97.82
1548.00,97.83
1547.00,97.85
1546.00,97.87
1545.00,97.90
1544.00,97.91
1543.00,97.89
1542.00,97.87
1541.00,97.86
1540.00,97.87
1539.00,97.89
1538.00,97.89
1537.00,97.85
1536.00,97.79
1535.00,97.73
1534.00,97.68
1533.00,97.64
1532.00,97.62
1531.00,97.59
1530.00,97.54
1529.00,97.50
1528.00,97.49
1527.00,97.49
1526.00,97.49
1525.00,97.49
1524.00,97.50
1523.00,97.54
1522.00,97.60
1521.00,97.67
1520.00,97.69
1519.00,97.66
1518.00,97.62
1517.00,97.59
1516.00,97.55
1515.00,97.47
1514.00,97.33
1513.00,97.10
1512.00,96.80
1511.00,96.43
1510.00,95.98
1509.00,95.40
1508.00,94.58
1507.00,93.56
1506.00,92.81
1505.00,92.66
1504.00,92.95
1503.00,93.50
1502.00,94.18
1501.00,94.90
1500.00,95.56
1499.00,96.13
1498.00,96.60
1497.00,96.96
1496.00,97.19
1495.00,97.32
1494.00,97.36
1493.00,97.35
1492.00,97.30
1491.00,97.25
1490.00,97.17
1489.00,97.02
1488.00,96.82
1487.00,96.59
1486.00,96.34
1485.00,96.08
1484.00,95.80
1483.00,95.52
1482.00,95.23
1481.00,94.93
1480.00,94.64
1479.00,94.39
1478.00,94.16
1477.00,93.95
1476.00,93.76
1475.00,93.61
1474.00,93.47
1473.00,93.35
1472.00,93.28
1471.00,93.29
1470.00,93.33
1469.00,93.38
1468.00,93.42
1467.00,93.44
1466.00,93.43
1465.00,93.37
1464.00,93.30
1463.00,93.21
1462.00,93.12
1461.00,93.04
1460.00,92.99
1459.00,92.96
1458.00,92.94
1457.00,92.92
1456.00,92.91
1455.00,92.90
1454.00,92.89
1453.00,92.93
1452.00,93.01
1451.00,93.12
1450.00,93.25
1449.00,93.41
1448.00,93.59
1447.00,93.75
1446.00,93.87
1445.00,93.96
1444.00,94.05
1443.00,94.15
1442.00,94.26
1441.00,94.38
1440.00,94.49
1439.00,94.63
1438.00,94.80
1437.00,95.01
1436.00,95.23
1435.00,95.40
1434.00,95.55
1433.00,95.69
1432.00,95.85
1431.00,96.00
1430.00,96.15
1429.00,96.27
1428.00,96.35
1427.00,96.37
1426.00,96.34
1425.00,96.27
1424.00,96.14
1423.00,95.95
1422.00,95.72
1421.00,95.40
1420.00,94.91
1419.00,94.17
1418.00,93.23
1417.00,92.13
1416.00,90.86
1415.00,89.41
1414.00,87.82
1413.00,86.16
1412.00,84.55
1411.00,83.17
1410.00,82.19
1409.00,81.69
1408.00,81.69
1407.00,82.19
1406.00,83.12
1405.00,84.33
1404.00,85.61
1403.00,86.82
1402.00,87.87
1401.00,88.82
1400.00,89.72
1399.00,90.53
1398.00,91.20
1397.00,91.71
1396.00,92.11
1395.00,92.47
1394.00,92.75
1393.00,92.96
1392.00,93.11
1391.00,93.22
1390.00,93.33
1389.00,93.43
1388.00,93.49
1387.00,93.51
1386.00,93.50
1385.00,93.47
1384.00,93.44
1383.00,93.41
1382.00,93.38
1381.00,93.34
1380.00,93.30
1379.00,93.25
1378.00,93.20
1377.00,93.14
1376.00,93.09
1375.00,93.02
1374.00,92.96
1373.00,92.90
1372.00,92.87
1371.00,92.88
1370.00,92.95
1369.00,93.08
1368.00,93.26
1367.00,93.48
1366.00,93.71
1365.00,93.96
1364.00,94.21
1363.00,94.43
1362.00,94.58
1361.00,94.66
1360.00,94.66
1359.00,94.62
1358.00,94.54
1357.00,94.42
1356.00,94.25
1355.00,94.03
1354.00,93.74
1353.00,93.39
1352.00,92.96
1351.00,92.44
1350.00,91.81
1349.00,91.04
1348.00,90.14
1347.00,89.11
1346.00,87.96
1345.00,86.71
1344.00,85.42
1343.00,84.18
1342.00,83.06
1341.00,82.12
1340.00,81.44
1339.00,81.12
1338.00,81.23
1337.00,81.76
1336.00,82.67
1335.00,83.89
1334.00,85.32
1333.00,86.83
1332.00,88.32
1331.00,89.65
1330.00,90.78
1329.00,91.65
1328.00,92.30
1327.00,92.74
1326.00,93.02
1325.00,93.18
1324.00,93.26
1323.00,93.26
1322.00,93.20
1321.00,93.11
1320.00,92.98
1319.00,92.83
1318.00,92.66
1317.00,92.47
1316.00,92.26
1315.00,92.02
1314.00,91.76
1313.00,91.48
1312.00,91.17
1311.00,90.85
1310.00,90.51
1309.00,90.17
1308.00,89.80
1307.00,89.43
1306.00,89.07
1305.00,88.70
1304.00,88.32
1303.00,87.89
1302.00,87.40
1301.00,86.84
1300.00,86.22
1299.00,85.56
1298.00,84.87
1297.00,84.16
1296.00,83.43
1295.00,82.72
1294.00,82.02
1293.00,81.33
1292.00,80.65
1291.00,80.00
1290.00,79.37
1289.00,78.76
1288.00,78.17
1287.00,77.60
1286.00,77.06
1285.00,76.53
1284.00,76.02
1283.00,75.53
1282.00,75.05
1281.00,74.57
1280.00,74.08
1279.00,73.58
1278.00,73.06
1277.00,72.50
1276.00,71.90
1275.00,71.26
1274.00,70.57
1273.00,69.83
1272.00,69.03
1271.00,68.19
1270.00,67.32
1269.00,66.43
1268.00,65.54
1267.00,64.66
1266.00,63.83
1265.00,63.04
1264.00,62.30
1263.00,61.64
1262.00,61.08
1261.00,60.58
1260.00,60.15
1259.00,59.79
1258.00,59.49
1257.00,59.21
1256.00,58.93
1255.00,58.65
1254.00,58.36
1253.00,58.03
1252.00,57.65
1251.00,57.25
1250.00,56.84
1249.00,56.42
1248.00,56.00
1247.00,55.62
1246.00,55.30
1245.00,55.05
1244.00,54.87
1243.00,54.79
1242.00,54.83
1241.00,54.97
1240.00,55.25
1239.00,55.68
1238.00,56.26
1237.00,56.96
1236.00,57.76
1235.00,58.66
1234.00,59.64
1233.00,60.68
1232.00,61.73
1231.00,62.79
1230.00,63.84
1229.00,64.85
1228.00,65.80
1227.00,66.70
1226.00,67.57
1225.00,68.40
1224.00,69.18
1223.00,69.95
1222.00,70.71
1221.00,71.49
1220.00,72.27
1219.00,73.06
1218.00,73.86
1217.00,74.62
1216.00,75.37
1215.00,76.10
1214.00,76.81
1213.00,77.49
1212.00,78.13
1211.00,78.74
1210.00,79.31
1209.00,79.85
1208.00,80.37
1207.00,80.90
1206.00,81.43
1205.00,81.95
1204.00,82.46
1203.00,82.96
1202.00,83.45
1201.00,83.93
1200.00,84.39
1199.00,84.84
1198.00,85.28
1197.00,85.70
1196.00,86.10
1195.00,86.47
1194.00,86.82
1193.00,87.15
1192.00,87.47
1191.00,87.77
1190.00,88.03
1189.00,88.25
1188.00,88.42
1187.00,88.55
1186.00,88.63
1185.00,88.65
1184.00,88.61
1183.00,88.50
1182.00,88.35
1181.00,88.15
1180.00,87.94
1179.00,87.73
1178.00,87.56
1177.00,87.44
1176.00,87.37
1175.00,87.37
1174.00,87.46
1173.00,87.65
1172.00,87.94
1171.00,88.31
1170.00,88.73
1169.00,89.18
1168.00,89.62
1167.00,90.01
1166.00,90.31
1165.00,90.53
1164.00,90.65
1163.00,90.70
1162.00,90.68
1161.00,90.63
1160.00,90.54
1159.00,90.44
1158.00,90.33
1157.00,90.21
1156.00,90.06
1155.00,89.87
1154.00,89.64
1153.00,89.35
1152.00,89.02
1151.00,88.67
1150.00,88.30
1149.00,87.91
1148.00,87.51
1147.00,87.08
1146.00,86.63
1145.00,86.14
1144.00,85.62
1143.00,85.07
1142.00,84.48
1141.00,83.85
1140.00,83.18
1139.00,82.47
1138.00,81.72
1137.00,80.92
1136.00,80.08
1135.00,79.20
1134.00,78.28
1133.00,77.31
1132.00,76.29
1131.00,75.27
1130.00,74.26
1129.00,73.26
1128.00,72.26
1127.00,71.27
1126.00,70.32
1125.00,69.41
1124.00,68.54
1123.00,67.75
1122.00,67.05
1121.00,66.45
1120.00,65.96
1119.00,65.59
1118.00,65.34
1117.00,65.19
1116.00,65.13
1115.00,65.14
1114.00,65.19
1113.00,65.20
1112.00,65.11
1111.00,64.89
1110.00,64.49
1109.00,63.89
1108.00,63.10
1107.00,62.23
1106.00,61.33
1105.00,60.44
1104.00,59.59
1103.00,58.82
1102.00,58.15
1101.00,57.56
1100.00,57.06
1099.00,56.66
1098.00,56.38
1097.00,56.18
1096.00,56.06
1095.00,56.05
1094.00,56.14
1093.00,56.30
1092.00,56.52
1091.00,56.80
1090.00,57.13
1089.00,57.46
1088.00,57.79
1087.00,58.17
1086.00,58.60
1085.00,59.09
1084.00,59.64
1083.00,60.28
1082.00,61.02
1081.00,61.83
1080.00,62.69
1079.00,63.65
1078.00,64.70
1077.00,65.77
1076.00,66.83
1075.00,67.86
1074.00,68.86
1073.00,69.81
1072.00,70.73
1071.00,71.60
1070.00,72.42
1069.00,73.16
1068.00,73.84
1067.00,74.47
1066.00,75.09
1065.00,75.69
1064.00,76.28
1063.00,76.83
1062.00,77.33
1061.00,77.76
1060.00,78.12
1059.00,78.44
1058.00,78.72
1057.00,78.94
1056.00,79.11
1055.00,79.24
1054.00,79.35
1053.00,79.44
1052.00,79.50
1051.00,79.54
1050.00,79.55
1049.00,79.53
1048.00,79.50
1047.00,79.48
1046.00,79.50
1045.00,79.57
1044.00,79.69
1043.00,79.85
1042.00,80.05
1041.00,80.26
1040.00,80.48
1039.00,80.70
1038.00,80.94
1037.00,81.19
1036.00,81.46
1035.00,81.75
1034.00,82.03
1033.00,82.27
1032.00,82.46
1031.00,82.56
1030.00,82.53
1029.00,82.33
1028.00,81.85
1027.00,81.03
1026.00,79.84
1025.00,78.31
1024.00,76.54
1023.00,74.63
1022.00,72.67
1021.00,70.75
1020.00,69.04
1019.00,67.75
1018.00,67.06
1017.00,67.07
1016.00,67.78
1015.00,69.10
1014.00,70.83
1013.00,72.70
1012.00,74.52
1011.00,76.16
1010.00,77.58
1009.00,78.78
1008.00,79.78
1007.00,80.61
1006.00,81.28
1005.00,81.82
1004.00,82.25
1003.00,82.61
1002.00,82.92
1001.00,83.18
1000.00,83.42
999.00,83.62
998.00,83.81
997.00,83.98
996.00,84.13
995.00,84.26
994.00,84.37
993.00,84.43
992.00,84.47
991.00,84.50
990.00,84.53
989.00,84.56
988.00,84.57
987.00,84.56
986.00,84.52
985.00,84.43
984.00,84.30
983.00,84.12
982.00,83.91
981.00,83.67
980.00,83.42
979.00,83.16
978.00,82.89
977.00,82.60
976.00,82.31
975.00,82.04
974.00,81.80
973.00,81.62
972.00,81.51
971.00,81.47
970.00,81.49
969.00,81.58
968.00,81.72
967.00,81.92
966.00,82.16
965.00,82.43
964.00,82.70
963.00,82.98
962.00,83.26
961.00,83.54
960.00,83.82
959.00,84.11
958.00,84.42
957.00,84.73
956.00,85.02
955.00,85.30
954.00,85.56
953.00,85.83
952.00,86.08
951.00,86.30
950.00,86.51
949.00,86.69
948.00,86.87
947.00,87.05
946.00,87.25
945.00,87.45
944.00,87.64
943.00,87.83
942.00,87.99
941.00,88.12
940.00,88.23
939.00,88.33
938.00,88.42
937.00,88.51
936.00,88.62
935.00,88.73
934.00,88.86
933.00,88.97
932.00,89.07
931.00,89.17
930.00,89.26
929.00,89.34
928.00,89.42
927.00,89.49
926.00,89.56
925.00,89.62
924.00,89.65
923.00,89.67
922.00,89.70
921.00,89.74
920.00,89.78
919.00,89.82
918.00,89.82
917.00,89.79
916.00,89.73
915.00,89.65
914.00,89.55
913.00,89.46
912.00,89.35
911.00,89.21
910.00,89.05
909.00,88.88
908.00,88.72
907.00,88.55
906.00,88.38
905.00,88.19
904.00,87.99
903.00,87.81
902.00,87.67
901.00,87.57
900.00,87.49
899.00,87.44
898.00,87.40
897.00,87.39
896.00,87.39
895.00,87.40
894.00,87.42
893.00,87.43
892.00,87.41
891.00,87.37
890.00,87.27
889.00,87.11
888.00,86.88
887.00,86.55
886.00,86.12
885.00,85.57
884.00,84.91
883.00,84.15
882.00,83.29
881.00,82.33
880.00,81.25
879.00,80.08
878.00,78.85
877.00,77.59
876.00,76.34
875.00,75.16
874.00,74.22
873.00,73.74
872.00,73.91
871.00,74.75
870.00,76.05
869.00,77.51
868.00,78.87
867.00,80.00
866.00,80.87
865.00,81.49
864.00,81.93
863.00,82.22
862.00,82.43
861.00,82.56
860.00,82.65
859.00,82.70
858.00,82.71
857.00,82.67
856.00,82.60
855.00,82.54
854.00,82.49
853.00,82.43
852.00,82.32
851.00,82.15
850.00,81.93
849.00,81.72
848.00,81.58
847.00,81.53
846.00,81.59
845.00,81.73
844.00,81.94
843.00,82.21
842.00,82.50
841.00,82.81
840.00,83.12
839.00,83.44
838.00,83.79
837.00,84.15
836.00,84.50
835.00,84.85
834.00,85.19
833.00,85.53
832.00,85.84
831.00,86.13
830.00,86.39
829.00,86.63
828.00,86.86
827.00,87.07
826.00,87.28
825.00,87.45
824.00,87.59
823.00,87.71
822.00,87.80
821.00,87.86
820.00,87.90
819.00,87.94
818.00,87.99
817.00,88.03
816.00,88.07
815.00,88.11
814.00,88.17
813.00,88.25
812.00,88.35
811.00,88.45
810.00,88.52
809.00,88.58
808.00,88.63
807.00,88.70
806.00,88.78
805.00,88.86
804.00,88.94
803.00,89.01
802.00,89.04
801.00,89.01
800.00,88.89
799.00,88.63
798.00,88.18
797.00,87.54
796.00,86.78
795.00,86.05
794.00,85.50
793.00,85.22
792.00,85.22
791.00,85.45
790.00,85.82
789.00,86.22
788.00,86.64
787.00,87.07
786.00,87.48
785.00,87.86
784.00,88.19
783.00,88.49
782.00,88.76
781.00,89.01
780.00,89.24
779.00,89.46
778.00,89.64
777.00,89.79
776.00,89.90
775.00,90.00
774.00,90.13
773.00,90.29
772.00,90.48
771.00,90.69
770.00,90.93
769.00,91.16
768.00,91.35
767.00,91.52
766.00,91.68
765.00,91.83
764.00,91.98
763.00,92.11
762.00,92.24
761.00,92.35
760.00,92.45
759.00,92.53
758.00,92.60
757.00,92.67
756.00,92.73
755.00,92.80
754.00,92.86
753.00,92.89
752.00,92.90
751.00,92.90
750.00,92.90
749.00,92.86
748.00,92.76
747.00,92.56
746.00,92.26
745.00,91.82
744.00,91.19
743.00,90.33
742.00,89.21
741.00,87.80
740.00,86.02
739.00,83.86
738.00,81.41
737.00,78.83
736.00,76.28
735.00,73.83
734.00,71.44
733.00,69.06
732.00,66.65
731.00,64.24
730.00,61.85
729.00,59.48
728.00,57.15
727.00,54.93
726.00,52.99
725.00,51.49
724.00,50.65
723.00,50.55
722.00,51.18
721.00,52.42
720.00,54.09
719.00,56.00
718.00,57.95
717.00,59.81
716.00,61.52
715.00,63.04
714.00,64.37
713.00,65.53
712.00,66.58
711.00,67.55
710.00,68.47
709.00,69.30
708.00,70.05
707.00,70.78
706.00,71.51
705.00,72.25
704.00,73.01
703.00,73.78
702.00,74.60
701.00,75.48
700.00,76.40
699.00,77.34
698.00,78.25
697.00,79.07
696.00,79.76
695.00,80.31
694.00,80.74
693.00,81.10
692.00,81.42
691.00,81.73
690.00,82.03
689.00,82.28
688.00,82.46
687.00,82.56
686.00,82.60
685.00,82.58
684.00,82.51
683.00,82.42
682.00,82.36
681.00,82.39
680.00,82.54
679.00,82.80
678.00,83.14
677.00,83.50
676.00,83.88
675.00,84.26
674.00,84.62
673.00,84.93
672.00,85.18
671.00,85.35
670.00,85.44
669.00,85.51
668.00,85.57
667.00,85.68
666.00,85.85
665.00,86.01
664.00,86.10
663.00,86.19
662.00,86.31
661.00,86.47
660.00,86.62
659.00,86.76
658.00,86.87
657.00,86.95
656.00,87.00
655.00,87.00
654.00,86.99
653.00,87.02
652.00,87.09
651.00,87.15
650.00,87.17
649.00,87.16
648.00,87.16
647.00,87.18
646.00,87.24
645.00,87.32
644.00,87.42
643.00,87.54
642.00,87.69
641.00,87.87
640.00,88.01
639.00,88.03
638.00,87.92
637.00,87.73
636.00,87.50
635.00,87.24
634.00,86.93
633.00,86.65
632.00,86.50
631.00,86.57
630.00,86.85
629.00,87.26
628.00,87.69
627.00,88.04
626.00,88.25
625.00,88.31
624.00,88.24
623.00,88.06
622.00,87.85
621.00,87.70
620.00,87.61
619.00,87.59
618.00,87.69
617.00,87.97
616.00,88.34
615.00,88.58
614.00,88.51
613.00,88.27
612.00,88.07
611.00,88.04
610.00,88.17
609.00,88.38
608.00,88.60
607.00,88.73
606.00,88.74
605.00,88.64
604.00,88.32
603.00,87.53
602.00,86.29
601.00,85.12
600.00,84.82
599.00,85.65
598.00,87.05
597.00,88.11
596.00,88.51
595.00,88.56
594.00,88.64
593.00,88.83
592.00,88.97
591.00,88.96
590.00,88.82
589.00,88.64
588.00,88.55
587.00,88.68
586.00,88.94
585.00,89.06
584.00,88.95
583.00,88.76
582.00,88.62
581.00,88.37
580.00,87.76
579.00,86.94
578.00,86.41
577.00,86.53
576.00,87.25
575.00,88.18
574.00,88.84
573.00,89.01
572.00,88.84
571.00,88.61
570.00,88.53
569.00,88.62
568.00,88.72
567.00,88.69
566.00,88.43
565.00,87.99
564.00,87.57
563.00,87.40
562.00,87.52
561.00,87.79
560.00,88.09
559.00,88.43
558.00,88.75
557.00,88.91
556.00,88.80
555.00,88.53
554.00,88.21
553.00,87.84
552.00,87.42
551.00,87.13
550.00,87.21
