Created as New Dataset,189 Courtaulds
cm-1,%T
4000.00,99.51
3999.00,99.52
3998.00,99.53
3997.00,99.55
3996.00,99.56
3995.00,99.57
3994.00,99.57
3993.00,99.57
3992.00,99.55
3991.00,99.54
3990.00,99.54
3989.00,99.55
3988.00,99.56
3987.00,99.58
3986.00,99.58
3985.00,99.56
3984.00,99.54
3983.00,99.52
3982.00,99.51
3981.00,99.52
3980.00,99.54
3979.00,99.55
3978.00,99.55
3977.00,99.55
3976.00,99.54
3975.00,99.55
3974.00,99.56
3973.00,99.58
3972.00,99.59
3971.00,99.59
3970.00,99.59
3969.00,99.60
3968.00,99.60
3967.00,99.61
3966.00,99.62
3965.00,99.61
3964.00,99.60
3963.00,99.58
3962.00,99.57
3961.00,99.57
3960.00,99.57
3959.00,99.59
3958.00,99.60
3957.00,99.61
3956.00,99.61
3955.00,99.61
3954.00,99.61
3953.00,99.62
3952.00,99.62
3951.00,99.62
3950.00,99.62
3949.00,99.62
3948.00,99.61
3947.00,99.60
3946.00,99.59
3945.00,99.58
3944.00,99.57
3943.00,99.56
3942.00,99.57
3941.00,99.58
3940.00,99.60
3939.00,99.60
3938.00,99.60
3937.00,99.59
3936.00,99.59
3935.00,99.59
3934.00,99.60
3933.00,99.60
3932.00,99.59
3931.00,99.56
3930.00,99.54
3929.00,99.51
3928.00,99.50
3927.00,99.50
3926.00,99.52
3925.00,99.54
3924.00,99.56
3923.00,99.57
3922.00,99.57
3921.00,99.57
3920.00,99.58
3919.00,99.60
3918.00,99.61
3917.00,99.62
3916.00,99.62
3915.00,99.61
3914.00,99.61
3913.00,99.61
3912.00,99.60
3911.00,99.59
3910.00,99.58
3909.00,99.56
3908.00,99.57
3907.00,99.58
3906.00,99.60
3905.00,99.61
3904.00,99.60
3903.00,99.58
3902.00,99.58
3901.00,99.58
3900.00,99.59
3899.00,99.60
3898.00,99.61
3897.00,99.61
3896.00,99.61
3895.00,99.61
3894.00,99.59
3893.00,99.57
3892.00,99.56
3891.00,99.55
3890.00,99.56
3889.00,99.56
3888.00,99.57
3887.00,99.57
3886.00,99.58
3885.00,99.59
3884.00,99.60
3883.00,99.62
3882.00,99.63
3881.00,99.63
3880.00,99.61
3879.00,99.59
3878.00,99.57
3877.00,99.56
3876.00,99.55
3875.00,99.55
3874.00,99.55
3873.00,99.55
3872.00,99.56
3871.00,99.56
3870.00,99.57
3869.00,99.57
3868.00,99.56
3867.00,99.55
3866.00,99.55
3865.00,99.54
3864.00,99.53
3863.00,99.53
3862.00,99.54
3861.00,99.55
3860.00,99.57
3859.00,99.57
3858.00,99.56
3857.00,99.55
3856.00,99.54
3855.00,99.55
3854.00,99.54
3853.00,99.50
3852.00,99.47
3851.00,99.46
3850.00,99.47
3849.00,99.50
3848.00,99.54
3847.00,99.58
3846.00,99.61
3845.00,99.62
3844.00,99.63
3843.00,99.61
3842.00,99.58
3841.00,99.54
3840.00,99.51
3839.00,99.50
3838.00,99.52
3837.00,99.55
3836.00,99.56
3835.00,99.57
3834.00,99.55
3833.00,99.54
3832.00,99.53
3831.00,99.53
3830.00,99.53
3829.00,99.54
3828.00,99.55
3827.00,99.57
3826.00,99.58
3825.00,99.59
3824.00,99.60
3823.00,99.60
3822.00,99.59
3821.00,99.56
3820.00,99.54
3819.00,99.53
3818.00,99.53
3817.00,99.54
3816.00,99.54
3815.00,99.53
3814.00,99.53
3813.00,99.53
3812.00,99.52
3811.00,99.51
3810.00,99.50
3809.00,99.50
3808.00,99.51
3807.00,99.53
3806.00,99.54
3805.00,99.55
3804.00,99.56
3803.00,99.57
3802.00,99.58
3801.00,99.57
3800.00,99.56
3799.00,99.55
3798.00,99.54
3797.00,99.52
3796.00,99.51
3795.00,99.51
3794.00,99.52
3793.00,99.53
3792.00,99.54
3791.00,99.53
3790.00,99.51
3789.00,99.51
3788.00,99.52
3787.00,99.53
3786.00,99.56
3785.00,99.58
3784.00,99.59
3783.00,99.59
3782.00,99.57
3781.00,99.56
3780.00,99.54
3779.00,99.52
3778.00,99.51
3777.00,99.50
3776.00,99.48
3775.00,99.47
3774.00,99.47
3773.00,99.47
3772.00,99.48
3771.00,99.51
3770.00,99.54
3769.00,99.56
3768.00,99.56
3767.00,99.55
3766.00,99.53
3765.00,99.50
3764.00,99.47
3763.00,99.45
3762.00,99.46
3761.00,99.49
3760.00,99.52
3759.00,99.54
3758.00,99.52
3757.00,99.49
3756.00,99.44
3755.00,99.40
3754.00,99.38
3753.00,99.37
3752.00,99.37
3751.00,99.35
3750.00,99.34
3749.00,99.34
3748.00,99.34
3747.00,99.36
3746.00,99.37
3745.00,99.37
3744.00,99.37
3743.00,99.37
3742.00,99.38
3741.00,99.40
3740.00,99.40
3739.00,99.39
3738.00,99.38
3737.00,99.37
3736.00,99.37
3735.00,99.38
3734.00,99.37
3733.00,99.37
3732.00,99.37
3731.00,99.38
3730.00,99.39
3729.00,99.41
3728.00,99.43
3727.00,99.44
3726.00,99.44
3725.00,99.43
3724.00,99.42
3723.00,99.39
3722.00,99.37
3721.00,99.35
3720.00,99.34
3719.00,99.35
3718.00,99.36
3717.00,99.37
3716.00,99.37
3715.00,99.37
3714.00,99.38
3713.00,99.40
3712.00,99.41
3711.00,99.41
3710.00,99.40
3709.00,99.39
3708.00,99.40
3707.00,99.40
3706.00,99.39
3705.00,99.37
3704.00,99.36
3703.00,99.36
3702.00,99.36
3701.00,99.37
3700.00,99.38
3699.00,99.38
3698.00,99.38
3697.00,99.38
3696.00,99.36
3695.00,99.33
3694.00,99.31
3693.00,99.31
3692.00,99.32
3691.00,99.34
3690.00,99.35
3689.00,99.34
3688.00,99.34
3687.00,99.34
3686.00,99.35
3685.00,99.35
3684.00,99.35
3683.00,99.34
3682.00,99.32
3681.00,99.31
3680.00,99.28
3679.00,99.26
3678.00,99.24
3677.00,99.22
3676.00,99.20
3675.00,99.18
3674.00,99.18
3673.00,99.20
3672.00,99.24
3671.00,99.27
3670.00,99.26
3669.00,99.22
3668.00,99.19
3667.00,99.17
3666.00,99.17
3665.00,99.17
3664.00,99.17
3663.00,99.18
3662.00,99.20
3661.00,99.21
3660.00,99.22
3659.00,99.20
3658.00,99.18
3657.00,99.15
3656.00,99.12
3655.00,99.10
3654.00,99.08
3653.00,99.06
3652.00,99.05
3651.00,99.05
3650.00,99.04
3649.00,99.02
3648.00,98.99
3647.00,98.96
3646.00,98.95
3645.00,98.94
3644.00,98.95
3643.00,98.95
3642.00,98.94
3641.00,98.92
3640.00,98.90
3639.00,98.89
3638.00,98.90
3637.00,98.90
3636.00,98.89
3635.00,98.86
3634.00,98.81
3633.00,98.76
3632.00,98.73
3631.00,98.71
3630.00,98.69
3629.00,98.67
3628.00,98.63
3627.00,98.61
3626.00,98.59
3625.00,98.57
3624.00,98.57
3623.00,98.56
3622.00,98.55
3621.00,98.53
3620.00,98.51
3619.00,98.49
3618.00,98.48
3617.00,98.47
3616.00,98.47
3615.00,98.47
3614.00,98.45
3613.00,98.43
3612.00,98.39
3611.00,98.34
3610.00,98.28
3609.00,98.22
3608.00,98.17
3607.00,98.14
3606.00,98.13
3605.00,98.14
3604.00,98.14
3603.00,98.11
3602.00,98.06
3601.00,98.00
3600.00,97.96
3599.00,97.92
3598.00,97.90
3597.00,97.87
3596.00,97.85
3595.00,97.83
3594.00,97.82
3593.00,97.83
3592.00,97.83
3591.00,97.82
3590.00,97.78
3589.00,97.72
3588.00,97.67
3587.00,97.62
3586.00,97.60
3585.00,97.58
3584.00,97.56
3583.00,97.53
3582.00,97.50
3581.00,97.47
3580.00,97.43
3579.00,97.40
3578.00,97.38
3577.00,97.34
3576.00,97.30
3575.00,97.25
3574.00,97.20
3573.00,97.16
3572.00,97.13
3571.00,97.11
3570.00,97.10
3569.00,97.07
3568.00,97.03
3567.00,96.98
3566.00,96.91
3565.00,96.86
3564.00,96.82
3563.00,96.77
3562.00,96.73
3561.00,96.68
3560.00,96.64
3559.00,96.61
3558.00,96.59
3557.00,96.56
3556.00,96.53
3555.00,96.50
3554.00,96.46
3553.00,96.41
3552.00,96.35
3551.00,96.29
3550.00,96.24
3549.00,96.20
3548.00,96.16
3547.00,96.12
3546.00,96.08
3545.00,96.05
3544.00,96.03
3543.00,96.01
3542.00,95.98
3541.00,95.94
3540.00,95.89
3539.00,95.83
3538.00,95.78
3537.00,95.74
3536.00,95.71
3535.00,95.68
3534.00,95.65
3533.00,95.60
3532.00,95.55
3531.00,95.51
3530.00,95.47
3529.00,95.44
3528.00,95.39
3527.00,95.35
3526.00,95.30
3525.00,95.25
3524.00,95.19
3523.00,95.12
3522.00,95.07
3521.00,95.02
3520.00,94.97
3519.00,94.93
3518.00,94.89
3517.00,94.85
3516.00,94.81
3515.00,94.76
3514.00,94.69
3513.00,94.61
3512.00,94.53
3511.00,94.46
3510.00,94.40
3509.00,94.35
3508.00,94.30
3507.00,94.25
3506.00,94.20
3505.00,94.14
3504.00,94.09
3503.00,94.03
3502.00,93.96
3501.00,93.89
3500.00,93.82
3499.00,93.74
3498.00,93.66
3497.00,93.58
3496.00,93.51
3495.00,93.44
3494.00,93.38
3493.00,93.30
3492.00,93.22
3491.00,93.15
3490.00,93.10
3489.00,93.06
3488.00,93.03
3487.00,93.01
3486.00,92.98
3485.00,92.94
3484.00,92.91
3483.00,92.88
3482.00,92.84
3481.00,92.80
3480.00,92.76
3479.00,92.74
3478.00,92.73
3477.00,92.70
3476.00,92.66
3475.00,92.63
3474.00,92.59
3473.00,92.54
3472.00,92.47
3471.00,92.40
3470.00,92.34
3469.00,92.28
3468.00,92.24
3467.00,92.19
3466.00,92.14
3465.00,92.08
3464.00,92.02
3463.00,91.96
3462.00,91.91
3461.00,91.87
3460.00,91.82
3459.00,91.76
3458.00,91.70
3457.00,91.64
3456.00,91.58
3455.00,91.52
3454.00,91.47
3453.00,91.41
3452.00,91.34
3451.00,91.27
3450.00,91.20
3449.00,91.13
3448.00,91.06
3447.00,91.00
3446.00,90.94
3445.00,90.89
3444.00,90.85
3443.00,90.82
3442.00,90.79
3441.00,90.76
3440.00,90.73
3439.00,90.69
3438.00,90.66
3437.00,90.65
3436.00,90.65
3435.00,90.66
3434.00,90.67
3433.00,90.67
3432.00,90.66
3431.00,90.64
3430.00,90.61
3429.00,90.58
3428.00,90.55
3427.00,90.52
3426.00,90.49
3425.00,90.49
3424.00,90.49
3423.00,90.49
3422.00,90.47
3421.00,90.44
3420.00,90.41
3419.00,90.37
3418.00,90.34
3417.00,90.32
3416.00,90.28
3415.00,90.23
3414.00,90.19
3413.00,90.15
3412.00,90.14
3411.00,90.14
3410.00,90.14
3409.00,90.12
3408.00,90.08
3407.00,90.03
3406.00,89.99
3405.00,89.97
3404.00,89.96
3403.00,89.97
3402.00,89.97
3401.00,89.97
3400.00,89.97
3399.00,89.96
3398.00,89.94
3397.00,89.91
3396.00,89.87
3395.00,89.83
3394.00,89.78
3393.00,89.74
3392.00,89.72
3391.00,89.70
3390.00,89.69
3389.00,89.69
3388.00,89.67
3387.00,89.65
3386.00,89.62
3385.00,89.60
3384.00,89.59
3383.00,89.59
3382.00,89.59
3381.00,89.60
3380.00,89.59
3379.00,89.57
3378.00,89.54
3377.00,89.52
3376.00,89.50
3375.00,89.48
3374.00,89.46
3373.00,89.43
3372.00,89.40
3371.00,89.37
3370.00,89.35
3369.00,89.34
3368.00,89.34
3367.00,89.34
3366.00,89.35
3365.00,89.34
3364.00,89.33
3363.00,89.30
3362.00,89.28
3361.00,89.27
3360.00,89.26
3359.00,89.26
3358.00,89.26
3357.00,89.25
3356.00,89.25
3355.00,89.24
3354.00,89.22
3353.00,89.19
3352.00,89.18
3351.00,89.17
3350.00,89.17
3349.00,89.17
3348.00,89.18
3347.00,89.18
3346.00,89.18
3345.00,89.18
3344.00,89.16
3343.00,89.14
3342.00,89.12
3341.00,89.09
3340.00,89.08
3339.00,89.08
3338.00,89.09
3337.00,89.10
3336.00,89.11
3335.00,89.12
3334.00,89.12
3333.00,89.11
3332.00,89.09
3331.00,89.09
3330.00,89.09
3329.00,89.10
3328.00,89.11
3327.00,89.12
3326.00,89.12
3325.00,89.12
3324.00,89.12
3323.00,89.12
3322.00,89.11
3321.00,89.11
3320.00,89.12
3319.00,89.12
3318.00,89.13
3317.00,89.14
3316.00,89.14
3315.00,89.15
3314.00,89.15
3313.00,89.15
3312.00,89.16
3311.00,89.16
3310.00,89.15
3309.00,89.14
3308.00,89.13
3307.00,89.12
3306.00,89.13
3305.00,89.14
3304.00,89.16
3303.00,89.18
3302.00,89.20
3301.00,89.20
3300.00,89.19
3299.00,89.19
3298.00,89.19
3297.00,89.20
3296.00,89.22
3295.00,89.25
3294.00,89.27
3293.00,89.28
3292.00,89.29
3291.00,89.29
3290.00,89.30
3289.00,89.32
3288.00,89.32
3287.00,89.32
3286.00,89.32
3285.00,89.33
3284.00,89.33
3283.00,89.33
3282.00,89.32
3281.00,89.30
3280.00,89.30
3279.00,89.31
3278.00,89.32
3277.00,89.34
3276.00,89.36
3275.00,89.39
3274.00,89.42
3273.00,89.45
3272.00,89.47
3271.00,89.50
3270.00,89.51
3269.00,89.51
3268.00,89.51
3267.00,89.52
3266.00,89.52
3265.00,89.54
3264.00,89.56
3263.00,89.57
3262.00,89.58
3261.00,89.60
3260.00,89.61
3259.00,89.63
3258.00,89.65
3257.00,89.66
3256.00,89.66
3255.00,89.67
3254.00,89.70
3253.00,89.72
3252.00,89.74
3251.00,89.74
3250.00,89.74
3249.00,89.75
3248.00,89.77
3247.00,89.81
3246.00,89.84
3245.00,89.87
3244.00,89.88
3243.00,89.88
3242.00,89.88
3241.00,89.90
3240.00,89.92
3239.00,89.96
3238.00,90.00
3237.00,90.04
3236.00,90.06
3235.00,90.07
3234.00,90.07
3233.00,90.07
3232.00,90.07
3231.00,90.08
3230.00,90.10
3229.00,90.13
3228.00,90.15
3227.00,90.18
3226.00,90.21
3225.00,90.22
3224.00,90.22
3223.00,90.20
3222.00,90.20
3221.00,90.21
3220.00,90.24
3219.00,90.29
3218.00,90.33
3217.00,90.37
3216.00,90.40
3215.00,90.43
3214.00,90.46
3213.00,90.49
3212.00,90.51
3211.00,90.52
3210.00,90.54
3209.00,90.55
3208.00,90.58
3207.00,90.60
3206.00,90.63
3205.00,90.66
3204.00,90.67
3203.00,90.68
3202.00,90.69
3201.00,90.70
3200.00,90.73
3199.00,90.76
3198.00,90.78
3197.00,90.80
3196.00,90.82
3195.00,90.85
3194.00,90.87
3193.00,90.90
3192.00,90.93
3191.00,90.97
3190.00,91.01
3189.00,91.04
3188.00,91.07
3187.00,91.10
3186.00,91.12
3185.00,91.14
3184.00,91.16
3183.00,91.18
3182.00,91.21
3181.00,91.24
3180.00,91.26
3179.00,91.28
3178.00,91.31
3177.00,91.35
3176.00,91.38
3175.00,91.40
3174.00,91.41
3173.00,91.41
3172.00,91.43
3171.00,91.44
3170.00,91.45
3169.00,91.46
3168.00,91.48
3167.00,91.51
3166.00,91.55
3165.00,91.58
3164.00,91.63
3163.00,91.68
3162.00,91.73
3161.00,91.78
3160.00,91.81
3159.00,91.83
3158.00,91.85
3157.00,91.86
3156.00,91.89
3155.00,91.93
3154.00,91.97
3153.00,92.01
3152.00,92.03
3151.00,92.04
3150.00,92.06
3149.00,92.08
3148.00,92.12
3147.00,92.16
3146.00,92.21
3145.00,92.25
3144.00,92.29
3143.00,92.33
3142.00,92.36
3141.00,92.40
3140.00,92.43
3139.00,92.47
3138.00,92.50
3137.00,92.53
3136.00,92.55
3135.00,92.58
3134.00,92.61
3133.00,92.65
3132.00,92.69
3131.00,92.72
3130.00,92.75
3129.00,92.77
3128.00,92.79
3127.00,92.82
3126.00,92.86
3125.00,92.90
3124.00,92.95
3123.00,93.00
3122.00,93.05
3121.00,93.09
3120.00,93.13
3119.00,93.15
3118.00,93.16
3117.00,93.16
3116.00,93.17
3115.00,93.20
3114.00,93.24
3113.00,93.28
3112.00,93.31
3111.00,93.35
3110.00,93.41
3109.00,93.47
3108.00,93.52
3107.00,93.56
3106.00,93.59
3105.00,93.62
3104.00,93.66
3103.00,93.69
3102.00,93.73
3101.00,93.76
3100.00,93.79
3099.00,93.81
3098.00,93.85
3097.00,93.89
3096.00,93.93
3095.00,93.98
3094.00,94.01
3093.00,94.04
3092.00,94.06
3091.00,94.07
3090.00,94.08
3089.00,94.09
3088.00,94.12
3087.00,94.16
3086.00,94.20
3085.00,94.24
3084.00,94.27
3083.00,94.31
3082.00,94.35
3081.00,94.38
3080.00,94.40
3079.00,94.43
3078.00,94.46
3077.00,94.51
3076.00,94.56
3075.00,94.60
3074.00,94.63
3073.00,94.65
3072.00,94.67
3071.00,94.70
3070.00,94.74
3069.00,94.79
3068.00,94.83
3067.00,94.86
3066.00,94.88
3065.00,94.90
3064.00,94.93
3063.00,94.95
3062.00,94.98
3061.00,94.99
3060.00,95.00
3059.00,95.02
3058.00,95.04
3057.00,95.06
3056.00,95.09
3055.00,95.12
3054.00,95.14
3053.00,95.16
3052.00,95.18
3051.00,95.20
3050.00,95.23
3049.00,95.27
3048.00,95.30
3047.00,95.33
3046.00,95.36
3045.00,95.38
3044.00,95.41
3043.00,95.44
3042.00,95.46
3041.00,95.49
3040.00,95.51
3039.00,95.54
3038.00,95.57
3037.00,95.60
3036.00,95.63
3035.00,95.66
3034.00,95.68
3033.00,95.69
3032.00,95.70
3031.00,95.73
3030.00,95.75
3029.00,95.77
3028.00,95.78
3027.00,95.79
3026.00,95.82
3025.00,95.85
3024.00,95.88
3023.00,95.90
3022.00,95.92
3021.00,95.95
3020.00,95.98
3019.00,95.99
3018.00,96.00
3017.00,96.01
3016.00,96.02
3015.00,96.05
3014.00,96.08
3013.00,96.09
3012.00,96.09
3011.00,96.08
3010.00,96.07
3009.00,96.08
3008.00,96.11
3007.00,96.13
3006.00,96.15
3005.00,96.16
3004.00,96.16
3003.00,96.17
3002.00,96.18
3001.00,96.19
3000.00,96.20
2999.00,96.21
2998.00,96.22
2997.00,96.24
2996.00,96.25
2995.00,96.26
2994.00,96.25
2993.00,96.24
2992.00,96.23
2991.00,96.22
2990.00,96.22
2989.00,96.21
2988.00,96.21
2987.00,96.21
2986.00,96.21
2985.00,96.20
2984.00,96.19
2983.00,96.18
2982.00,96.16
2981.00,96.14
2980.00,96.13
2979.00,96.12
2978.00,96.11
2977.00,96.09
2976.00,96.07
2975.00,96.05
2974.00,96.02
2973.00,95.99
2972.00,95.98
2971.00,95.97
2970.00,95.97
2969.00,95.96
2968.00,95.95
2967.00,95.93
2966.00,95.90
2965.00,95.86
2964.00,95.83
2963.00,95.81
2962.00,95.77
2961.00,95.73
2960.00,95.68
2959.00,95.63
2958.00,95.60
2957.00,95.57
2956.00,95.54
2955.00,95.52
2954.00,95.50
2953.00,95.48
2952.00,95.45
2951.00,95.40
2950.00,95.34
2949.00,95.28
2948.00,95.25
2947.00,95.22
2946.00,95.20
2945.00,95.15
2944.00,95.09
2943.00,95.02
2942.00,94.95
2941.00,94.90
2940.00,94.85
2939.00,94.81
2938.00,94.77
2937.00,94.71
2936.00,94.64
2935.00,94.56
2934.00,94.49
2933.00,94.42
2932.00,94.38
2931.00,94.34
2930.00,94.32
2929.00,94.29
2928.00,94.27
2927.00,94.24
2926.00,94.21
2925.00,94.17
2924.00,94.13
2923.00,94.09
2922.00,94.07
2921.00,94.06
2920.00,94.04
2919.00,94.01
2918.00,93.97
2917.00,93.93
2916.00,93.91
2915.00,93.90
2914.00,93.89
2913.00,93.87
2912.00,93.82
2911.00,93.78
2910.00,93.73
2909.00,93.70
2908.00,93.68
2907.00,93.65
2906.00,93.63
2905.00,93.60
2904.00,93.58
2903.00,93.56
2902.00,93.55
2901.00,93.54
2900.00,93.52
2899.00,93.50
2898.00,93.48
2897.00,93.45
2896.00,93.42
2895.00,93.39
2894.00,93.37
2893.00,93.37
2892.00,93.37
2891.00,93.38
2890.00,93.38
2889.00,93.38
2888.00,93.38
2887.00,93.39
2886.00,93.41
2885.00,93.44
2884.00,93.47
2883.00,93.50
2882.00,93.54
2881.00,93.56
2880.00,93.57
2879.00,93.59
2878.00,93.61
2877.00,93.63
2876.00,93.65
2875.00,93.67
2874.00,93.69
2873.00,93.71
2872.00,93.75
2871.00,93.78
2870.00,93.83
2869.00,93.87
2868.00,93.92
2867.00,93.97
2866.00,94.02
2865.00,94.08
2864.00,94.15
2863.00,94.20
2862.00,94.25
2861.00,94.29
2860.00,94.33
2859.00,94.38
2858.00,94.43
2857.00,94.47
2856.00,94.51
2855.00,94.54
2854.00,94.58
2853.00,94.62
2852.00,94.67
2851.00,94.72
2850.00,94.77
2849.00,94.82
2848.00,94.88
2847.00,94.96
2846.00,95.04
2845.00,95.11
2844.00,95.16
2843.00,95.19
2842.00,95.23
2841.00,95.26
2840.00,95.29
2839.00,95.32
2838.00,95.36
2837.00,95.40
2836.00,95.45
2835.00,95.49
2834.00,95.52
2833.00,95.54
2832.00,95.56
2831.00,95.58
2830.00,95.61
2829.00,95.65
2828.00,95.69
2827.00,95.72
2826.00,95.74
2825.00,95.76
2824.00,95.78
2823.00,95.80
2822.00,95.83
2821.00,95.85
2820.00,95.86
2819.00,95.88
2818.00,95.90
2817.00,95.92
2816.00,95.95
2815.00,95.96
2814.00,95.98
2813.00,96.00
2812.00,96.02
2811.00,96.03
2810.00,96.03
2809.00,96.03
2808.00,96.04
2807.00,96.06
2806.00,96.09
2805.00,96.11
2804.00,96.12
2803.00,96.13
2802.00,96.15
2801.00,96.17
2800.00,96.18
2799.00,96.20
2798.00,96.22
2797.00,96.24
2796.00,96.26
2795.00,96.27
2794.00,96.28
2793.00,96.30
2792.00,96.31
2791.00,96.32
2790.00,96.33
2789.00,96.33
2788.00,96.33
2787.00,96.33
2786.00,96.33
2785.00,96.34
2784.00,96.36
2783.00,96.37
2782.00,96.38
2781.00,96.38
2780.00,96.40
2779.00,96.43
2778.00,96.46
2777.00,96.50
2776.00,96.51
2775.00,96.52
2774.00,96.52
2773.00,96.51
2772.00,96.51
2771.00,96.51
2770.00,96.53
2769.00,96.55
2768.00,96.57
2767.00,96.58
2766.00,96.60
2765.00,96.62
2764.00,96.64
2763.00,96.65
2762.00,96.65
2761.00,96.64
2760.00,96.63
2759.00,96.63
2758.00,96.64
2757.00,96.65
2756.00,96.65
2755.00,96.65
2754.00,96.65
2753.00,96.66
2752.00,96.68
2751.00,96.70
2750.00,96.70
2749.00,96.71
2748.00,96.71
2747.00,96.72
2746.00,96.71
2745.00,96.70
2744.00,96.68
2743.00,96.67
2742.00,96.66
2741.00,96.66
2740.00,96.66
2739.00,96.67
2738.00,96.67
2737.00,96.69
2736.00,96.71
2735.00,96.73
2734.00,96.73
2733.00,96.72
2732.00,96.71
2731.00,96.72
2730.00,96.73
2729.00,96.74
2728.00,96.75
2727.00,96.76
2726.00,96.77
2725.00,96.79
2724.00,96.81
2723.00,96.82
2722.00,96.83
2721.00,96.84
2720.00,96.84
2719.00,96.84
2718.00,96.84
2717.00,96.84
2716.00,96.84
2715.00,96.85
2714.00,96.85
2713.00,96.85
2712.00,96.85
2711.00,96.85
2710.00,96.86
2709.00,96.88
2708.00,96.89
2707.00,96.90
2706.00,96.91
2705.00,96.91
2704.00,96.92
2703.00,96.93
2702.00,96.94
2701.00,96.95
2700.00,96.94
2699.00,96.93
2698.00,96.93
2697.00,96.94
2696.00,96.95
2695.00,96.95
2694.00,96.95
2693.00,96.96
2692.00,96.96
2691.00,96.97
2690.00,96.98
2689.00,96.99
2688.00,97.00
2687.00,97.01
2686.00,97.01
2685.00,97.00
2684.00,97.00
2683.00,97.00
2682.00,97.02
2681.00,97.03
2680.00,97.04
2679.00,97.05
2678.00,97.06
2677.00,97.07
2676.00,97.08
2675.00,97.09
2674.00,97.09
2673.00,97.08
2672.00,97.07
2671.00,97.07
2670.00,97.08
2669.00,97.10
2668.00,97.12
2667.00,97.14
2666.00,97.15
2665.00,97.15
2664.00,97.15
2663.00,97.14
2662.00,97.13
2661.00,97.11
2660.00,97.10
2659.00,97.10
2658.00,97.11
2657.00,97.12
2656.00,97.13
2655.00,97.14
2654.00,97.13
2653.00,97.12
2652.00,97.11
2651.00,97.10
2650.00,97.10
2649.00,97.10
2648.00,97.09
2647.00,97.09
2646.00,97.09
2645.00,97.09
2644.00,97.09
2643.00,97.09
2642.00,97.09
2641.00,97.09
2640.00,97.08
2639.00,97.07
2638.00,97.05
2637.00,97.04
2636.00,97.03
2635.00,97.03
2634.00,97.03
2633.00,97.04
2632.00,97.07
2631.00,97.08
2630.00,97.09
2629.00,97.09
2628.00,97.10
2627.00,97.11
2626.00,97.11
2625.00,97.10
2624.00,97.09
2623.00,97.09
2622.00,97.09
2621.00,97.09
2620.00,97.10
2619.00,97.10
2618.00,97.09
2617.00,97.08
2616.00,97.06
2615.00,97.05
2614.00,97.06
2613.00,97.08
2612.00,97.09
2611.00,97.08
2610.00,97.07
2609.00,97.05
2608.00,97.05
2607.00,97.06
2606.00,97.07
2605.00,97.08
2604.00,97.08
2603.00,97.09
2602.00,97.09
2601.00,97.09
2600.00,97.09
2599.00,97.08
2598.00,97.08
2597.00,97.08
2596.00,97.07
2595.00,97.07
2594.00,97.07
2593.00,97.07
2592.00,97.08
2591.00,97.08
2590.00,97.08
2589.00,97.07
2588.00,97.06
2587.00,97.05
2586.00,97.05
2585.00,97.05
2584.00,97.04
2583.00,97.02
2582.00,97.01
2581.00,97.01
2580.00,97.01
2579.00,97.01
2578.00,97.01
2577.00,97.01
2576.00,97.02
2575.00,97.02
2574.00,97.03
2573.00,97.03
2572.00,97.04
2571.00,97.04
2570.00,97.04
2569.00,97.04
2568.00,97.04
2567.00,97.04
2566.00,97.05
2565.00,97.06
2564.00,97.07
2563.00,97.07
2562.00,97.07
2561.00,97.06
2560.00,97.06
2559.00,97.06
2558.00,97.05
2557.00,97.04
2556.00,97.03
2555.00,97.03
2554.00,97.03
2553.00,97.04
2552.00,97.05
2551.00,97.05
2550.00,97.05
2549.00,97.04
2548.00,97.04
2547.00,97.05
2546.00,97.06
2545.00,97.07
2544.00,97.08
2543.00,97.09
2542.00,97.10
2541.00,97.11
2540.00,97.10
2539.00,97.09
2538.00,97.07
2537.00,97.05
2536.00,97.04
2535.00,97.05
2534.00,97.07
2533.00,97.07
2532.00,97.06
2531.00,97.05
2530.00,97.04
2529.00,97.04
2528.00,97.04
2527.00,97.04
2526.00,97.04
2525.00,97.04
2524.00,97.05
2523.00,97.05
2522.00,97.06
2521.00,97.05
2520.00,97.05
2519.00,97.05
2518.00,97.06
2517.00,97.08
2516.00,97.10
2515.00,97.11
2514.00,97.11
2513.00,97.11
2512.00,97.11
2511.00,97.11
2510.00,97.13
2509.00,97.14
2508.00,97.14
2507.00,97.12
2506.00,97.11
2505.00,97.10
2504.00,97.11
2503.00,97.11
2502.00,97.11
2501.00,97.12
2500.00,97.13
2499.00,97.15
2498.00,97.16
2497.00,97.16
2496.00,97.16
2495.00,97.17
2494.00,97.19
2493.00,97.20
2492.00,97.19
2491.00,97.17
2490.00,97.15
2489.00,97.14
2488.00,97.15
2487.00,97.17
2486.00,97.19
2485.00,97.21
2484.00,97.23
2483.00,97.24
2482.00,97.24
2481.00,97.24
2480.00,97.24
2479.00,97.24
2478.00,97.23
2477.00,97.21
2476.00,97.19
2475.00,97.17
2474.00,97.16
2473.00,97.17
2472.00,97.18
2471.00,97.21
2470.00,97.23
2469.00,97.25
2468.00,97.26
2467.00,97.24
2466.00,97.22
2465.00,97.21
2464.00,97.22
2463.00,97.24
2462.00,97.26
2461.00,97.27
2460.00,97.25
2459.00,97.22
2458.00,97.20
2457.00,97.21
2456.00,97.23
2455.00,97.25
2454.00,97.25
2453.00,97.26
2452.00,97.26
2451.00,97.28
2450.00,97.29
2449.00,97.29
2448.00,97.27
2447.00,97.25
2446.00,97.22
2445.00,97.22
2444.00,97.23
2443.00,97.26
2442.00,97.29
2441.00,97.32
2440.00,97.34
2439.00,97.35
2438.00,97.34
2437.00,97.33
2436.00,97.31
2435.00,97.30
2434.00,97.29
2433.00,97.28
2432.00,97.28
2431.00,97.29
2430.00,97.31
2429.00,97.34
2428.00,97.38
2427.00,97.41
2426.00,97.42
2425.00,97.41
2424.00,97.40
2423.00,97.39
2422.00,97.38
2421.00,97.36
2420.00,97.36
2419.00,97.36
2418.00,97.37
2417.00,97.39
2416.00,97.41
2415.00,97.43
2414.00,97.43
2413.00,97.43
2412.00,97.42
2411.00,97.43
2410.00,97.45
2409.00,97.48
2408.00,97.49
2407.00,97.49
2406.00,97.49
2405.00,97.49
2404.00,97.50
2403.00,97.52
2402.00,97.54
2401.00,97.56
2400.00,97.57
2399.00,97.58
2398.00,97.58
2397.00,97.57
2396.00,97.56
2395.00,97.55
2394.00,97.53
2393.00,97.53
2392.00,97.55
2391.00,97.58
2390.00,97.60
2389.00,97.61
2388.00,97.61
2387.00,97.60
2386.00,97.61
2385.00,97.61
2384.00,97.62
2383.00,97.63
2382.00,97.64
2381.00,97.66
2380.00,97.69
2379.00,97.73
2378.00,97.77
2377.00,97.79
2376.00,97.79
2375.00,97.76
2374.00,97.74
2373.00,97.72
2372.00,97.70
2371.00,97.67
2370.00,97.62
2369.00,97.54
2368.00,97.48
2367.00,97.45
2366.00,97.47
2365.00,97.55
2364.00,97.63
2363.00,97.66
2362.00,97.66
2361.00,97.65
2360.00,97.65
2359.00,97.64
2358.00,97.62
2357.00,97.58
2356.00,97.57
2355.00,97.59
2354.00,97.62
2353.00,97.64
2352.00,97.65
2351.00,97.64
2350.00,97.63
2349.00,97.63
2348.00,97.64
2347.00,97.66
2346.00,97.68
2345.00,97.70
2344.00,97.69
2343.00,97.66
2342.00,97.63
2341.00,97.62
2340.00,97.62
2339.00,97.61
2338.00,97.59
2337.00,97.59
2336.00,97.61
2335.00,97.63
2334.00,97.64
2333.00,97.65
2332.00,97.67
2331.00,97.68
2330.00,97.68
2329.00,97.66
2328.00,97.63
2327.00,97.59
2326.00,97.54
2325.00,97.49
2324.00,97.45
2323.00,97.42
2322.00,97.41
2321.00,97.43
2320.00,97.46
2319.00,97.49
2318.00,97.48
2317.00,97.47
2316.00,97.45
2315.00,97.43
2314.00,97.40
2313.00,97.37
2312.00,97.37
2311.00,97.40
2310.00,97.43
2309.00,97.45
2308.00,97.46
2307.00,97.45
2306.00,97.43
2305.00,97.39
2304.00,97.34
2303.00,97.31
2302.00,97.32
2301.00,97.35
2300.00,97.39
2299.00,97.41
2298.00,97.39
2297.00,97.35
2296.00,97.32
2295.00,97.29
2294.00,97.28
2293.00,97.25
2292.00,97.21
2291.00,97.19
2290.00,97.18
2289.00,97.18
2288.00,97.17
2287.00,97.14
2286.00,97.10
2285.00,97.08
2284.00,97.07
2283.00,97.07
2282.00,97.06
2281.00,97.05
2280.00,97.03
2279.00,97.02
2278.00,97.02
2277.00,97.02
2276.00,97.02
2275.00,97.01
2274.00,96.99
2273.00,96.97
2272.00,96.97
2271.00,96.97
2270.00,96.98
2269.00,96.98
2268.00,96.96
2267.00,96.95
2266.00,96.94
2265.00,96.95
2264.00,96.96
2263.00,96.95
2262.00,96.93
2261.00,96.89
2260.00,96.87
2259.00,96.86
2258.00,96.86
2257.00,96.85
2256.00,96.84
2255.00,96.81
2254.00,96.78
2253.00,96.76
2252.00,96.76
2251.00,96.76
2250.00,96.75
2249.00,96.74
2248.00,96.71
2247.00,96.70
2246.00,96.69
2245.00,96.69
2244.00,96.69
2243.00,96.70
2242.00,96.71
2241.00,96.71
2240.00,96.70
2239.00,96.66
2238.00,96.62
2237.00,96.60
2236.00,96.60
2235.00,96.59
2234.00,96.56
2233.00,96.52
2232.00,96.47
2231.00,96.44
2230.00,96.43
2229.00,96.43
2228.00,96.44
2227.00,96.44
2226.00,96.45
2225.00,96.46
2224.00,96.47
2223.00,96.48
2222.00,96.47
2221.00,96.45
2220.00,96.44
2219.00,96.43
2218.00,96.40
2217.00,96.37
2216.00,96.36
2215.00,96.36
2214.00,96.35
2213.00,96.33
2212.00,96.29
2211.00,96.27
2210.00,96.30
2209.00,96.35
2208.00,96.37
2207.00,96.33
2206.00,96.25
2205.00,96.16
2204.00,96.12
2203.00,96.13
2202.00,96.17
2201.00,96.22
2200.00,96.25
2199.00,96.26
2198.00,96.24
2197.00,96.21
2196.00,96.20
2195.00,96.23
2194.00,96.27
2193.00,96.25
2192.00,96.17
2191.00,96.06
2190.00,95.98
2189.00,95.95
2188.00,95.94
2187.00,95.94
2186.00,95.97
2185.00,96.02
2184.00,96.06
2183.00,96.07
2182.00,96.05
2181.00,96.02
2180.00,96.01
2179.00,96.02
2178.00,96.02
2177.00,96.01
2176.00,96.00
2175.00,96.00
2174.00,95.99
2173.00,95.97
2172.00,95.93
2171.00,95.89
2170.00,95.84
2169.00,95.78
2168.00,95.72
2167.00,95.65
2166.00,95.61
2165.00,95.58
2164.00,95.53
2163.00,95.45
2162.00,95.35
2161.00,95.32
2160.00,95.41
2159.00,95.60
2158.00,95.79
2157.00,95.93
2156.00,96.00
2155.00,96.02
2154.00,96.02
2153.00,96.02
2152.00,96.04
2151.00,96.08
2150.00,96.13
2149.00,96.17
2148.00,96.19
2147.00,96.21
2146.00,96.25
2145.00,96.27
2144.00,96.30
2143.00,96.34
2142.00,96.38
2141.00,96.42
2140.00,96.45
2139.00,96.45
2138.00,96.45
2137.00,96.48
2136.00,96.52
2135.00,96.59
2134.00,96.65
2133.00,96.69
2132.00,96.71
2131.00,96.72
2130.00,96.73
2129.00,96.75
2128.00,96.78
2127.00,96.82
2126.00,96.86
2125.00,96.89
2124.00,96.89
2123.00,96.89
2122.00,96.88
2121.00,96.86
2120.00,96.83
2119.00,96.80
2118.00,96.77
2117.00,96.75
2116.00,96.72
2115.00,96.71
2114.00,96.72
2113.00,96.74
2112.00,96.75
2111.00,96.74
2110.00,96.72
2109.00,96.70
2108.00,96.67
2107.00,96.65
2106.00,96.64
2105.00,96.65
2104.00,96.66
2103.00,96.67
2102.00,96.69
2101.00,96.73
2100.00,96.76
2099.00,96.79
2098.00,96.80
2097.00,96.81
2096.00,96.83
2095.00,96.85
2094.00,96.85
2093.00,96.83
2092.00,96.81
2091.00,96.80
2090.00,96.79
2089.00,96.79
2088.00,96.79
2087.00,96.76
2086.00,96.74
2085.00,96.72
2084.00,96.72
2083.00,96.71
2082.00,96.70
2081.00,96.69
2080.00,96.65
2079.00,96.62
2078.00,96.58
2077.00,96.55
2076.00,96.54
2075.00,96.54
2074.00,96.58
2073.00,96.62
2072.00,96.64
2071.00,96.62
2070.00,96.60
2069.00,96.59
2068.00,96.60
2067.00,96.61
2066.00,96.61
2065.00,96.58
2064.00,96.55
2063.00,96.50
2062.00,96.45
2061.00,96.40
2060.00,96.38
2059.00,96.37
2058.00,96.39
2057.00,96.43
2056.00,96.46
2055.00,96.45
2054.00,96.40
2053.00,96.31
2052.00,96.23
2051.00,96.19
2050.00,96.20
2049.00,96.21
2048.00,96.21
2047.00,96.17
2046.00,96.11
2045.00,96.04
2044.00,95.98
2043.00,95.94
2042.00,95.95
2041.00,95.99
2040.00,96.02
2039.00,96.02
2038.00,96.00
2037.00,95.99
2036.00,96.00
2035.00,96.02
2034.00,96.05
2033.00,96.06
2032.00,96.03
2031.00,95.95
2030.00,95.89
2029.00,95.89
2028.00,95.96
2027.00,96.04
2026.00,96.09
2025.00,96.11
2024.00,96.11
2023.00,96.11
2022.00,96.09
2021.00,96.07
2020.00,96.05
2019.00,96.05
2018.00,96.06
2017.00,96.08
2016.00,96.12
2015.00,96.15
2014.00,96.16
2013.00,96.16
2012.00,96.15
2011.00,96.13
2010.00,96.13
2009.00,96.16
2008.00,96.21
2007.00,96.29
2006.00,96.36
2005.00,96.43
2004.00,96.48
2003.00,96.49
2002.00,96.45
2001.00,96.39
2000.00,96.35
1999.00,96.36
1998.00,96.37
1997.00,96.36
1996.00,96.34
1995.00,96.35
1994.00,96.40
1993.00,96.44
1992.00,96.45
1991.00,96.42
1990.00,96.38
1989.00,96.35
1988.00,96.32
1987.00,96.32
1986.00,96.34
1985.00,96.34
1984.00,96.31
1983.00,96.26
1982.00,96.20
1981.00,96.16
1980.00,96.16
1979.00,96.21
1978.00,96.27
1977.00,96.31
1976.00,96.31
1975.00,96.31
1974.00,96.34
1973.00,96.37
1972.00,96.38
1971.00,96.37
1970.00,96.36
1969.00,96.36
1968.00,96.36
1967.00,96.35
1966.00,96.35
1965.00,96.38
1964.00,96.45
1963.00,96.54
1962.00,96.62
1961.00,96.66
1960.00,96.67
1959.00,96.66
1958.00,96.66
1957.00,96.67
1956.00,96.68
1955.00,96.69
1954.00,96.70
1953.00,96.71
1952.00,96.74
1951.00,96.76
1950.00,96.79
1949.00,96.82
1948.00,96.86
1947.00,96.90
1946.00,96.93
1945.00,96.95
1944.00,96.95
1943.00,96.97
1942.00,97.00
1941.00,97.03
1940.00,97.06
1939.00,97.07
1938.00,97.07
1937.00,97.07
1936.00,97.08
1935.00,97.10
1934.00,97.13
1933.00,97.14
1932.00,97.14
1931.00,97.13
1930.00,97.12
1929.00,97.12
1928.00,97.13
1927.00,97.15
1926.00,97.16
1925.00,97.16
1924.00,97.15
1923.00,97.15
1922.00,97.18
1921.00,97.21
1920.00,97.22
1919.00,97.23
1918.00,97.23
1917.00,97.23
1916.00,97.24
1915.00,97.23
1914.00,97.24
1913.00,97.25
1912.00,97.28
1911.00,97.30
1910.00,97.30
1909.00,97.30
1908.00,97.30
1907.00,97.34
1906.00,97.38
1905.00,97.43
1904.00,97.45
1903.00,97.46
1902.00,97.45
1901.00,97.43
1900.00,97.43
1899.00,97.46
1898.00,97.49
1897.00,97.52
1896.00,97.53
1895.00,97.54
1894.00,97.55
1893.00,97.55
1892.00,97.56
1891.00,97.56
1890.00,97.56
1889.00,97.56
1888.00,97.57
1887.00,97.58
1886.00,97.60
1885.00,97.62
1884.00,97.63
1883.00,97.63
1882.00,97.62
1881.00,97.60
1880.00,97.59
1879.00,97.59
1878.00,97.59
1877.00,97.61
1876.00,97.63
1875.00,97.65
1874.00,97.66
1873.00,97.66
1872.00,97.67
1871.00,97.67
1870.00,97.66
1869.00,97.65
1868.00,97.63
1867.00,97.62
1866.00,97.62
1865.00,97.63
1864.00,97.64
1863.00,97.65
1862.00,97.65
1861.00,97.64
1860.00,97.63
1859.00,97.62
1858.00,97.63
1857.00,97.64
1856.00,97.66
1855.00,97.67
1854.00,97.69
1853.00,97.71
1852.00,97.73
1851.00,97.74
1850.00,97.73
1849.00,97.72
1848.00,97.72
1847.00,97.73
1846.00,97.74
1845.00,97.75
1844.00,97.76
1843.00,97.76
1842.00,97.77
1841.00,97.77
1840.00,97.78
1839.00,97.78
1838.00,97.78
1837.00,97.77
1836.00,97.76
1835.00,97.75
1834.00,97.75
1833.00,97.74
1832.00,97.75
1831.00,97.75
1830.00,97.76
1829.00,97.77
1828.00,97.77
1827.00,97.78
1826.00,97.80
1825.00,97.82
1824.00,97.83
1823.00,97.83
1822.00,97.82
1821.00,97.81
1820.00,97.81
1819.00,97.81
1818.00,97.82
1817.00,97.82
1816.00,97.83
1815.00,97.85
1814.00,97.87
1813.00,97.89
1812.00,97.89
1811.00,97.87
1810.00,97.84
1809.00,97.83
1808.00,97.83
1807.00,97.85
1806.00,97.86
1805.00,97.87
1804.00,97.87
1803.00,97.87
1802.00,97.87
1801.00,97.87
1800.00,97.86
1799.00,97.85
1798.00,97.85
1797.00,97.86
1796.00,97.88
1795.00,97.90
1794.00,97.92
1793.00,97.92
1792.00,97.92
1791.00,97.91
1790.00,97.91
1789.00,97.91
1788.00,97.90
1787.00,97.89
1786.00,97.89
1785.00,97.90
1784.00,97.92
1783.00,97.92
1782.00,97.92
1781.00,97.92
1780.00,97.92
1779.00,97.92
1778.00,97.92
1777.00,97.91
1776.00,97.89
1775.00,97.89
1774.00,97.89
1773.00,97.89
1772.00,97.89
1771.00,97.88
1770.00,97.87
1769.00,97.87
1768.00,97.87
1767.00,97.88
1766.00,97.89
1765.00,97.89
1764.00,97.89
1763.00,97.89
1762.00,97.89
1761.00,97.88
1760.00,97.88
1759.00,97.88
1758.00,97.87
1757.00,97.86
1756.00,97.85
1755.00,97.85
1754.00,97.85
1753.00,97.84
1752.00,97.84
1751.00,97.83
1750.00,97.82
1749.00,97.82
1748.00,97.81
1747.00,97.80
1746.00,97.79
1745.00,97.78
1744.00,97.78
1743.00,97.77
1742.00,97.77
1741.00,97.77
1740.00,97.78
1739.00,97.79
1738.00,97.79
1737.00,97.77
1736.00,97.75
1735.00,97.71
1734.00,97.69
1733.00,97.70
1732.00,97.73
1731.00,97.75
1730.00,97.76
1729.00,97.75
1728.00,97.74
1727.00,97.72
1726.00,97.72
1725.00,97.73
1724.00,97.74
1723.00,97.74
1722.00,97.73
1721.00,97.71
1720.00,97.69
1719.00,97.67
1718.00,97.66
1717.00,97.66
1716.00,97.66
1715.00,97.67
1714.00,97.66
1713.00,97.65
1712.00,97.63
1711.00,97.63
1710.00,97.63
1709.00,97.62
1708.00,97.60
1707.00,97.57
1706.00,97.55
1705.00,97.54
1704.00,97.53
1703.00,97.53
1702.00,97.53
1701.00,97.52
1700.00,97.50
1699.00,97.49
1698.00,97.46
1697.00,97.43
1696.00,97.40
1695.00,97.38
1694.00,97.36
1693.00,97.35
1692.00,97.33
1691.00,97.30
1690.00,97.26
1689.00,97.22
1688.00,97.18
1687.00,97.15
1686.00,97.13
1685.00,97.10
1684.00,97.07
1683.00,97.05
1682.00,97.03
1681.00,96.99
1680.00,96.94
1679.00,96.90
1678.00,96.87
1677.00,96.83
1676.00,96.79
1675.00,96.76
1674.00,96.73
1673.00,96.70
1672.00,96.67
1671.00,96.63
1670.00,96.59
1669.00,96.54
1668.00,96.49
1667.00,96.45
1666.00,96.42
1665.00,96.38
1664.00,96.34
1663.00,96.28
1662.00,96.22
1661.00,96.17
1660.00,96.14
1659.00,96.11
1658.00,96.08
1657.00,96.06
1656.00,96.04
1655.00,96.00
1654.00,95.95
1653.00,95.89
1652.00,95.85
1651.00,95.84
1650.00,95.84
1649.00,95.83
1648.00,95.80
1647.00,95.76
1646.00,95.74
1645.00,95.73
1644.00,95.73
1643.00,95.74
1642.00,95.75
1641.00,95.75
1640.00,95.74
1639.00,95.75
1638.00,95.77
1637.00,95.79
1636.00,95.80
1635.00,95.81
1634.00,95.82
1633.00,95.83
1632.00,95.85
1631.00,95.88
1630.00,95.91
1629.00,95.95
1628.00,95.97
1627.00,96.00
1626.00,96.03
1625.00,96.06
1624.00,96.07
1623.00,96.08
1622.00,96.10
1621.00,96.13
1620.00,96.18
1619.00,96.22
1618.00,96.27
1617.00,96.32
1616.00,96.35
1615.00,96.38
1614.00,96.41
1613.00,96.44
1612.00,96.47
1611.00,96.49
1610.00,96.52
1609.00,96.55
1608.00,96.60
1607.00,96.64
1606.00,96.68
1605.00,96.71
1604.00,96.73
1603.00,96.75
1602.00,96.77
1601.00,96.79
1600.00,96.82
1599.00,96.85
1598.00,96.90
1597.00,96.94
1596.00,96.96
1595.00,96.97
1594.00,96.98
1593.00,96.99
1592.00,97.00
1591.00,97.03
1590.00,97.05
1589.00,97.08
1588.00,97.11
1587.00,97.13
1586.00,97.16
1585.00,97.18
1584.00,97.19
1583.00,97.20
1582.00,97.20
1581.00,97.22
1580.00,97.23
1579.00,97.24
1578.00,97.25
1577.00,97.27
1576.00,97.30
1575.00,97.33
1574.00,97.36
1573.00,97.38
1572.00,97.40
1571.00,97.41
1570.00,97.42
1569.00,97.43
1568.00,97.44
1567.00,97.44
1566.00,97.45
1565.00,97.46
1564.00,97.46
1563.00,97.46
1562.00,97.46
1561.00,97.48
1560.00,97.49
1559.00,97.51
1558.00,97.53
1557.00,97.53
1556.00,97.53
1555.00,97.52
1554.00,97.52
1553.00,97.52
1552.00,97.53
1551.00,97.53
1550.00,97.53
1549.00,97.53
1548.00,97.53
1547.00,97.53
1546.00,97.53
1545.00,97.53
1544.00,97.53
1543.00,97.53
1542.00,97.53
1541.00,97.54
1540.00,97.54
1539.00,97.54
1538.00,97.54
1537.00,97.54
1536.00,97.55
1535.00,97.55
1534.00,97.55
1533.00,97.56
1532.00,97.56
1531.00,97.56
1530.00,97.57
1529.00,97.57
1528.00,97.57
1527.00,97.57
1526.00,97.57
1525.00,97.56
1524.00,97.57
1523.00,97.57
1522.00,97.57
1521.00,97.56
1520.00,97.55
1519.00,97.53
1518.00,97.52
1517.00,97.52
1516.00,97.51
1515.00,97.51
1514.00,97.52
1513.00,97.53
1512.00,97.54
1511.00,97.55
1510.00,97.55
1509.00,97.54
1508.00,97.50
1507.00,97.46
1506.00,97.43
1505.00,97.40
1504.00,97.38
1503.00,97.37
1502.00,97.35
1501.00,97.34
1500.00,97.33
1499.00,97.31
1498.00,97.29
1497.00,97.25
1496.00,97.21
1495.00,97.17
1494.00,97.13
1493.00,97.10
1492.00,97.06
1491.00,97.02
1490.00,96.97
1489.00,96.91
1488.00,96.85
1487.00,96.79
1486.00,96.73
1485.00,96.68
1484.00,96.63
1483.00,96.58
1482.00,96.52
1481.00,96.45
1480.00,96.38
1479.00,96.30
1478.00,96.21
1477.00,96.11
1476.00,96.01
1475.00,95.93
1474.00,95.86
1473.00,95.78
1472.00,95.68
1471.00,95.59
1470.00,95.50
1469.00,95.43
1468.00,95.37
1467.00,95.31
1466.00,95.23
1465.00,95.15
1464.00,95.09
1463.00,95.05
1462.00,95.03
1461.00,95.02
1460.00,94.99
1459.00,94.96
1458.00,94.91
1457.00,94.83
1456.00,94.77
1455.00,94.72
1454.00,94.68
1453.00,94.63
1452.00,94.59
1451.00,94.56
1450.00,94.53
1449.00,94.49
1448.00,94.43
1447.00,94.37
1446.00,94.32
1445.00,94.28
1444.00,94.24
1443.00,94.21
1442.00,94.18
1441.00,94.16
1440.00,94.15
1439.00,94.14
1438.00,94.11
1437.00,94.06
1436.00,94.00
1435.00,93.97
1434.00,93.96
1433.00,93.94
1432.00,93.93
1431.00,93.90
1430.00,93.88
1429.00,93.85
1428.00,93.83
1427.00,93.81
1426.00,93.80
1425.00,93.79
1424.00,93.78
1423.00,93.78
1422.00,93.78
1421.00,93.78
1420.00,93.76
1419.00,93.74
1418.00,93.72
1417.00,93.73
1416.00,93.75
1415.00,93.77
1414.00,93.79
1413.00,93.80
1412.00,93.81
1411.00,93.83
1410.00,93.85
1409.00,93.88
1408.00,93.90
1407.00,93.91
1406.00,93.92
1405.00,93.93
1404.00,93.94
1403.00,93.96
1402.00,93.97
1401.00,93.97
1400.00,93.97
1399.00,93.97
1398.00,93.97
1397.00,93.98
1396.00,93.97
1395.00,93.94
1394.00,93.90
1393.00,93.86
1392.00,93.83
1391.00,93.80
1390.00,93.76
1389.00,93.71
1388.00,93.62
1387.00,93.52
1386.00,93.42
1385.00,93.31
1384.00,93.20
1383.00,93.06
1382.00,92.91
1381.00,92.76
1380.00,92.60
1379.00,92.46
1378.00,92.33
1377.00,92.22
1376.00,92.13
1375.00,92.04
1374.00,91.95
1373.00,91.88
1372.00,91.81
1371.00,91.76
1370.00,91.71
1369.00,91.68
1368.00,91.65
1367.00,91.64
1366.00,91.63
1365.00,91.64
1364.00,91.66
1363.00,91.70
1362.00,91.77
1361.00,91.85
1360.00,91.94
1359.00,92.02
1358.00,92.10
1357.00,92.17
1356.00,92.23
1355.00,92.29
1354.00,92.35
1353.00,92.40
1352.00,92.45
1351.00,92.49
1350.00,92.52
1349.00,92.53
1348.00,92.53
1347.00,92.54
1346.00,92.54
1345.00,92.53
1344.00,92.53
1343.00,92.51
1342.00,92.49
1341.00,92.45
1340.00,92.41
1339.00,92.36
1338.00,92.32
1337.00,92.29
1336.00,92.28
1335.00,92.27
1334.00,92.29
1333.00,92.31
1332.00,92.34
1331.00,92.37
1330.00,92.40
1329.00,92.41
1328.00,92.41
1327.00,92.39
1326.00,92.36
1325.00,92.34
1324.00,92.33
1323.00,92.31
1322.00,92.28
1321.00,92.22
1320.00,92.14
1319.00,92.05
1318.00,91.97
1317.00,91.90
1316.00,91.85
1315.00,91.83
1314.00,91.83
1313.00,91.85
1312.00,91.88
1311.00,91.94
1310.00,92.01
1309.00,92.09
1308.00,92.18
1307.00,92.28
1306.00,92.39
1305.00,92.49
1304.00,92.59
1303.00,92.69
1302.00,92.78
1301.00,92.87
1300.00,92.97
1299.00,93.07
1298.00,93.16
1297.00,93.23
1296.00,93.30
1295.00,93.39
1294.00,93.48
1293.00,93.58
1292.00,93.68
1291.00,93.78
1290.00,93.86
1289.00,93.94
1288.00,94.01
1287.00,94.07
1286.00,94.10
1285.00,94.12
1284.00,94.11
1283.00,94.09
1282.00,94.06
1281.00,94.02
1280.00,93.97
1279.00,93.93
1278.00,93.90
1277.00,93.88
1276.00,93.86
1275.00,93.84
1274.00,93.82
1273.00,93.80
1272.00,93.78
1271.00,93.76
1270.00,93.74
1269.00,93.72
1268.00,93.70
1267.00,93.68
1266.00,93.67
1265.00,93.65
1264.00,93.63
1263.00,93.60
1262.00,93.58
1261.00,93.58
1260.00,93.59
1259.00,93.61
1258.00,93.65
1257.00,93.71
1256.00,93.80
1255.00,93.89
1254.00,93.98
1253.00,94.06
1252.00,94.12
1251.00,94.18
1250.00,94.22
1249.00,94.25
1248.00,94.29
1247.00,94.31
1246.00,94.33
1245.00,94.32
1244.00,94.31
1243.00,94.29
1242.00,94.28
1241.00,94.27
1240.00,94.26
1239.00,94.27
1238.00,94.29
1237.00,94.31
1236.00,94.32
1235.00,94.31
1234.00,94.29
1233.00,94.29
1232.00,94.32
1231.00,94.35
1230.00,94.38
1229.00,94.40
1228.00,94.42
1227.00,94.47
1226.00,94.54
1225.00,94.63
1224.00,94.73
1223.00,94.85
1222.00,94.97
1221.00,95.07
1220.00,95.15
1219.00,95.23
1218.00,95.30
1217.00,95.37
1216.00,95.42
1215.00,95.46
1214.00,95.48
1213.00,95.48
1212.00,95.47
1211.00,95.44
1210.00,95.39
1209.00,95.31
1208.00,95.21
1207.00,95.10
1206.00,94.99
1205.00,94.88
1204.00,94.77
1203.00,94.67
1202.00,94.60
1201.00,94.56
1200.00,94.55
1199.00,94.56
1198.00,94.59
1197.00,94.65
1196.00,94.74
1195.00,94.86
1194.00,95.00
1193.00,95.15
1192.00,95.30
1191.00,95.43
1190.00,95.54
1189.00,95.63
1188.00,95.71
1187.00,95.78
1186.00,95.83
1185.00,95.85
1184.00,95.83
1183.00,95.76
1182.00,95.68
1181.00,95.59
1180.00,95.48
1179.00,95.34
1178.00,95.17
1177.00,95.00
1176.00,94.82
1175.00,94.62
1174.00,94.40
1173.00,94.16
1172.00,93.89
1171.00,93.61
1170.00,93.31
1169.00,92.98
1168.00,92.62
1167.00,92.26
1166.00,91.88
1165.00,91.49
1164.00,91.10
1163.00,90.73
1162.00,90.38
1161.00,90.09
1160.00,89.85
1159.00,89.68
1158.00,89.56
1157.00,89.49
1156.00,89.46
1155.00,89.47
1154.00,89.53
1153.00,89.62
1152.00,89.75
1151.00,89.91
1150.00,90.08
1149.00,90.26
1148.00,90.45
1147.00,90.62
1146.00,90.77
1145.00,90.89
1144.00,91.00
1143.00,91.11
1142.00,91.18
1141.00,91.19
1140.00,91.15
1139.00,91.09
1138.00,91.02
1137.00,90.92
1136.00,90.78
1135.00,90.62
1134.00,90.43
1133.00,90.23
1132.00,90.00
1131.00,89.78
1130.00,89.56
1129.00,89.34
1128.00,89.11
1127.00,88.85
1126.00,88.57
1125.00,88.28
1124.00,87.98
1123.00,87.70
1122.00,87.42
1121.00,87.17
1120.00,86.93
1119.00,86.71
1118.00,86.47
1117.00,86.22
1116.00,85.98
1115.00,85.77
1114.00,85.59
1113.00,85.45
1112.00,85.32
1111.00,85.21
1110.00,85.13
1109.00,85.05
1108.00,84.96
1107.00,84.88
1106.00,84.78
1105.00,84.68
1104.00,84.54
1103.00,84.36
1102.00,84.15
1101.00,83.90
1100.00,83.66
1099.00,83.43
1098.00,83.22
1097.00,83.03
1096.00,82.84
1095.00,82.66
1094.00,82.50
1093.00,82.35
1092.00,82.20
1091.00,82.07
1090.00,81.93
1089.00,81.79
1088.00,81.65
1087.00,81.53
1086.00,81.40
1085.00,81.24
1084.00,81.05
1083.00,80.84
1082.00,80.62
1081.00,80.40
1080.00,80.17
1079.00,79.94
1078.00,79.70
1077.00,79.46
1076.00,79.22
1075.00,78.97
1074.00,78.71
1073.00,78.43
1072.00,78.16
1071.00,77.92
1070.00,77.71
1069.00,77.50
1068.00,77.28
1067.00,77.04
1066.00,76.78
1065.00,76.50
1064.00,76.21
1063.00,75.95
1062.00,75.72
1061.00,75.52
1060.00,75.34
1059.00,75.20
1058.00,75.08
1057.00,74.96
1056.00,74.85
1055.00,74.76
1054.00,74.68
1053.00,74.59
1052.00,74.51
1051.00,74.44
1050.00,74.40
1049.00,74.36
1048.00,74.29
1047.00,74.21
1046.00,74.12
1045.00,74.00
1044.00,73.89
1043.00,73.81
1042.00,73.76
1041.00,73.72
1040.00,73.66
1039.00,73.60
1038.00,73.51
1037.00,73.41
1036.00,73.28
1035.00,73.12
1034.00,72.94
1033.00,72.75
1032.00,72.56
1031.00,72.36
1030.00,72.16
1029.00,71.94
1028.00,71.72
1027.00,71.51
1026.00,71.32
1025.00,71.15
1024.00,70.98
1023.00,70.82
1022.00,70.70
1021.00,70.59
1020.00,70.52
1019.00,70.48
1018.00,70.46
1017.00,70.46
1016.00,70.50
1015.00,70.62
1014.00,70.81
1013.00,71.03
1012.00,71.24
1011.00,71.45
1010.00,71.66
1009.00,71.86
1008.00,72.05
1007.00,72.23
1006.00,72.40
1005.00,72.53
1004.00,72.61
1003.00,72.65
1002.00,72.65
1001.00,72.60
1000.00,72.52
999.00,72.41
998.00,72.30
997.00,72.20
996.00,72.12
995.00,72.08
994.00,72.09
993.00,72.16
992.00,72.30
991.00,72.49
990.00,72.73
989.00,73.02
988.00,73.36
987.00,73.77
986.00,74.23
985.00,74.71
984.00,75.21
983.00,75.73
982.00,76.26
981.00,76.78
980.00,77.26
979.00,77.72
978.00,78.17
977.00,78.59
976.00,79.00
975.00,79.37
974.00,79.71
973.00,80.01
972.00,80.26
971.00,80.49
970.00,80.70
969.00,80.92
968.00,81.14
967.00,81.36
966.00,81.56
965.00,81.75
964.00,81.93
963.00,82.11
962.00,82.31
961.00,82.52
960.00,82.76
959.00,83.02
958.00,83.28
957.00,83.54
956.00,83.79
955.00,84.04
954.00,84.29
953.00,84.53
952.00,84.76
951.00,84.99
950.00,85.22
949.00,85.42
948.00,85.60
947.00,85.78
946.00,85.98
945.00,86.17
944.00,86.36
943.00,86.53
942.00,86.68
941.00,86.81
940.00,86.92
939.00,87.03
938.00,87.15
937.00,87.27
936.00,87.38
935.00,87.48
934.00,87.56
933.00,87.63
932.00,87.70
931.00,87.78
930.00,87.86
929.00,87.95
928.00,88.04
927.00,88.12
926.00,88.22
925.00,88.32
924.00,88.43
923.00,88.53
922.00,88.61
921.00,88.68
920.00,88.73
919.00,88.78
918.00,88.83
917.00,88.88
916.00,88.92
915.00,88.93
914.00,88.90
913.00,88.84
912.00,88.76
911.00,88.68
910.00,88.60
909.00,88.50
908.00,88.38
907.00,88.25
906.00,88.10
905.00,87.94
904.00,87.77
903.00,87.57
902.00,87.37
901.00,87.16
900.00,86.96
899.00,86.78
898.00,86.60
897.00,86.44
896.00,86.30
895.00,86.22
894.00,86.21
893.00,86.27
892.00,86.39
891.00,86.57
890.00,86.79
889.00,87.05
888.00,87.29
887.00,87.53
886.00,87.77
885.00,88.01
884.00,88.25
883.00,88.49
882.00,88.71
881.00,88.91
880.00,89.10
879.00,89.27
878.00,89.43
877.00,89.56
876.00,89.68
875.00,89.79
874.00,89.90
873.00,90.01
872.00,90.12
871.00,90.21
870.00,90.30
869.00,90.39
868.00,90.47
867.00,90.55
866.00,90.62
865.00,90.69
864.00,90.76
863.00,90.82
862.00,90.87
861.00,90.91
860.00,90.94
859.00,90.95
858.00,90.97
857.00,90.99
856.00,91.00
855.00,91.01
854.00,91.02
853.00,91.03
852.00,91.05
851.00,91.05
850.00,91.06
849.00,91.06
848.00,91.06
847.00,91.07
846.00,91.08
845.00,91.10
844.00,91.13
843.00,91.15
842.00,91.16
841.00,91.16
840.00,91.15
839.00,91.14
838.00,91.12
837.00,91.10
836.00,91.07
835.00,91.05
834.00,91.03
833.00,91.01
832.00,91.00
831.00,91.00
830.00,91.00
829.00,91.00
828.00,91.02
827.00,91.02
826.00,91.00
825.00,90.95
824.00,90.88
823.00,90.80
822.00,90.74
821.00,90.71
820.00,90.71
819.00,90.73
818.00,90.76
817.00,90.77
816.00,90.75
815.00,90.69
814.00,90.63
813.00,90.58
812.00,90.56
811.00,90.55
810.00,90.54
809.00,90.53
808.00,90.52
807.00,90.51
806.00,90.49
805.00,90.46
804.00,90.44
803.00,90.42
802.00,90.40
801.00,90.37
800.00,90.34
799.00,90.31
798.00,90.27
797.00,90.24
796.00,90.22
795.00,90.23
794.00,90.25
793.00,90.23
792.00,90.19
791.00,90.14
790.00,90.10
789.00,90.08
788.00,90.05
787.00,90.00
786.00,89.95
785.00,89.92
784.00,89.90
783.00,89.90
782.00,89.88
781.00,89.83
780.00,89.75
779.00,89.67
778.00,89.61
777.00,89.56
776.00,89.51
775.00,89.45
774.00,89.40
773.00,89.35
772.00,89.31
771.00,89.27
770.00,89.23
769.00,89.21
768.00,89.21
767.00,89.21
766.00,89.21
765.00,89.17
764.00,89.11
763.00,89.04
762.00,88.97
761.00,88.92
760.00,88.88
759.00,88.85
758.00,88.81
757.00,88.76
756.00,88.71
755.00,88.68
754.00,88.65
753.00,88.62
752.00,88.60
751.00,88.59
750.00,88.57
749.00,88.52
748.00,88.45
747.00,88.37
746.00,88.33
745.00,88.31
744.00,88.29
743.00,88.23
742.00,88.12
741.00,88.01
740.00,87.94
739.00,87.91
738.00,87.88
737.00,87.83
736.00,87.77
735.00,87.73
734.00,87.70
733.00,87.64
732.00,87.53
731.00,87.41
730.00,87.33
729.00,87.29
728.00,87.28
727.00,87.25
726.00,87.21
725.00,87.13
724.00,87.04
723.00,86.94
722.00,86.86
721.00,86.80
720.00,86.74
719.00,86.70
718.00,86.66
717.00,86.62
716.00,86.57
715.00,86.52
714.00,86.48
713.00,86.43
712.00,86.37
711.00,86.31
710.00,86.23
709.00,86.17
708.00,86.13
707.00,86.12
706.00,86.14
705.00,86.14
704.00,86.12
703.00,86.08
702.00,86.05
701.00,86.02
700.00,85.99
699.00,85.98
698.00,85.98
697.00,85.99
696.00,85.98
695.00,85.95
694.00,85.90
693.00,85.86
692.00,85.84
691.00,85.82
690.00,85.78
689.00,85.72
688.00,85.66
687.00,85.64
686.00,85.64
685.00,85.61
684.00,85.52
683.00,85.39
682.00,85.24
681.00,85.11
680.00,84.94
679.00,84.71
678.00,84.37
677.00,83.92
676.00,83.41
675.00,82.87
674.00,82.39
673.00,82.00
672.00,81.76
671.00,81.63
670.00,81.51
669.00,81.28
668.00,80.98
667.00,80.81
666.00,80.80
665.00,80.83
664.00,80.85
663.00,80.86
662.00,80.86
661.00,80.85
660.00,80.86
659.00,80.88
658.00,80.90
657.00,80.88
656.00,80.83
655.00,80.78
654.00,80.73
653.00,80.67
652.00,80.65
651.00,80.72
650.00,80.87
649.00,81.02
648.00,81.09
647.00,81.04
646.00,80.89
645.00,80.75
644.00,80.72
643.00,80.84
642.00,80.98
641.00,81.02
640.00,80.92
639.00,80.78
638.00,80.69
637.00,80.64
636.00,80.59
635.00,80.55
634.00,80.50
633.00,80.45
632.00,80.37
631.00,80.24
630.00,80.08
629.00,79.90
628.00,79.76
627.00,79.71
626.00,79.71
625.00,79.66
624.00,79.50
623.00,79.30
622.00,79.16
621.00,79.13
620.00,79.13
619.00,79.06
618.00,78.91
617.00,78.81
616.00,78.82
615.00,78.82
614.00,78.67
613.00,78.44
612.00,78.37
611.00,78.53
610.00,78.70
609.00,78.61
608.00,78.32
607.00,78.07
606.00,78.02
605.00,78.07
604.00,77.98
603.00,77.56
602.00,76.83
601.00,76.13
600.00,75.93
599.00,76.42
598.00,77.25
597.00,77.88
596.00,78.10
595.00,78.04
594.00,77.88
593.00,77.69
592.00,77.55
591.00,77.58
590.00,77.73
589.00,77.83
588.00,77.87
587.00,78.01
586.00,78.24
585.00,78.37
584.00,78.26
583.00,77.98
582.00,77.69
581.00,77.49
580.00,77.44
579.00,77.68
578.00,78.09
577.00,78.32
576.00,78.14
575.00,77.71
574.00,77.24
573.00,76.81
572.00,76.49
571.00,76.44
570.00,76.65
569.00,76.84
568.00,76.77
567.00,76.38
566.00,75.78
565.00,75.14
564.00,74.76
563.00,74.83
562.00,75.12
561.00,75.22
560.00,75.05
559.00,74.95
558.00,75.18
557.00,75.54
556.00,75.65
555.00,75.43
554.00,75.20
553.00,75.32
552.00,75.96
551.00,76.70
550.00,77.07
