Created as New Dataset,191 FMC American Viscose
cm-1,%T
4000.00,98.27
3999.00,98.25
3998.00,98.23
3997.00,98.22
3996.00,98.22
3995.00,98.23
3994.00,98.23
3993.00,98.23
3992.00,98.22
3991.00,98.21
3990.00,98.20
3989.00,98.20
3988.00,98.21
3987.00,98.23
3986.00,98.25
3985.00,98.25
3984.00,98.24
3983.00,98.24
3982.00,98.25
3981.00,98.26
3980.00,98.26
3979.00,98.25
3978.00,98.23
3977.00,98.21
3976.00,98.21
3975.00,98.22
3974.00,98.23
3973.00,98.22
3972.00,98.22
3971.00,98.22
3970.00,98.22
3969.00,98.22
3968.00,98.22
3967.00,98.22
3966.00,98.22
3965.00,98.23
3964.00,98.25
3963.00,98.28
3962.00,98.29
3961.00,98.29
3960.00,98.28
3959.00,98.27
3958.00,98.25
3957.00,98.25
3956.00,98.24
3955.00,98.23
3954.00,98.24
3953.00,98.25
3952.00,98.27
3951.00,98.29
3950.00,98.29
3949.00,98.29
3948.00,98.28
3947.00,98.26
3946.00,98.25
3945.00,98.25
3944.00,98.25
3943.00,98.25
3942.00,98.25
3941.00,98.25
3940.00,98.25
3939.00,98.24
3938.00,98.24
3937.00,98.24
3936.00,98.24
3935.00,98.24
3934.00,98.24
3933.00,98.24
3932.00,98.23
3931.00,98.22
3930.00,98.22
3929.00,98.22
3928.00,98.23
3927.00,98.25
3926.00,98.26
3925.00,98.27
3924.00,98.26
3923.00,98.25
3922.00,98.26
3921.00,98.26
3920.00,98.26
3919.00,98.24
3918.00,98.22
3917.00,98.22
3916.00,98.23
3915.00,98.25
3914.00,98.26
3913.00,98.26
3912.00,98.26
3911.00,98.26
3910.00,98.26
3909.00,98.25
3908.00,98.23
3907.00,98.20
3906.00,98.18
3905.00,98.18
3904.00,98.18
3903.00,98.19
3902.00,98.19
3901.00,98.19
3900.00,98.19
3899.00,98.19
3898.00,98.20
3897.00,98.22
3896.00,98.25
3895.00,98.28
3894.00,98.30
3893.00,98.30
3892.00,98.28
3891.00,98.25
3890.00,98.24
3889.00,98.23
3888.00,98.24
3887.00,98.24
3886.00,98.24
3885.00,98.23
3884.00,98.22
3883.00,98.22
3882.00,98.22
3881.00,98.21
3880.00,98.21
3879.00,98.20
3878.00,98.20
3877.00,98.20
3876.00,98.20
3875.00,98.19
3874.00,98.16
3873.00,98.14
3872.00,98.14
3871.00,98.15
3870.00,98.17
3869.00,98.18
3868.00,98.18
3867.00,98.19
3866.00,98.20
3865.00,98.20
3864.00,98.18
3863.00,98.16
3862.00,98.15
3861.00,98.16
3860.00,98.17
3859.00,98.17
3858.00,98.16
3857.00,98.13
3856.00,98.12
3855.00,98.11
3854.00,98.12
3853.00,98.13
3852.00,98.14
3851.00,98.17
3850.00,98.21
3849.00,98.24
3848.00,98.27
3847.00,98.28
3846.00,98.28
3845.00,98.27
3844.00,98.25
3843.00,98.22
3842.00,98.20
3841.00,98.18
3840.00,98.19
3839.00,98.20
3838.00,98.21
3837.00,98.20
3836.00,98.19
3835.00,98.19
3834.00,98.20
3833.00,98.20
3832.00,98.21
3831.00,98.21
3830.00,98.21
3829.00,98.21
3828.00,98.20
3827.00,98.18
3826.00,98.16
3825.00,98.13
3824.00,98.13
3823.00,98.15
3822.00,98.19
3821.00,98.22
3820.00,98.23
3819.00,98.22
3818.00,98.21
3817.00,98.19
3816.00,98.17
3815.00,98.14
3814.00,98.13
3813.00,98.14
3812.00,98.14
3811.00,98.15
3810.00,98.15
3809.00,98.15
3808.00,98.16
3807.00,98.16
3806.00,98.16
3805.00,98.14
3804.00,98.12
3803.00,98.09
3802.00,98.07
3801.00,98.06
3800.00,98.06
3799.00,98.09
3798.00,98.13
3797.00,98.16
3796.00,98.17
3795.00,98.17
3794.00,98.16
3793.00,98.15
3792.00,98.15
3791.00,98.15
3790.00,98.15
3789.00,98.15
3788.00,98.14
3787.00,98.14
3786.00,98.14
3785.00,98.14
3784.00,98.15
3783.00,98.15
3782.00,98.15
3781.00,98.17
3780.00,98.19
3779.00,98.21
3778.00,98.22
3777.00,98.22
3776.00,98.21
3775.00,98.19
3774.00,98.18
3773.00,98.16
3772.00,98.16
3771.00,98.15
3770.00,98.14
3769.00,98.13
3768.00,98.13
3767.00,98.13
3766.00,98.14
3765.00,98.14
3764.00,98.15
3763.00,98.15
3762.00,98.15
3761.00,98.14
3760.00,98.12
3759.00,98.11
3758.00,98.11
3757.00,98.10
3756.00,98.08
3755.00,98.05
3754.00,98.03
3753.00,98.02
3752.00,98.01
3751.00,98.00
3750.00,97.97
3749.00,97.95
3748.00,97.94
3747.00,97.95
3746.00,97.97
3745.00,97.98
3744.00,97.99
3743.00,98.00
3742.00,98.02
3741.00,98.04
3740.00,98.05
3739.00,98.06
3738.00,98.06
3737.00,98.06
3736.00,98.06
3735.00,98.07
3734.00,98.08
3733.00,98.09
3732.00,98.12
3731.00,98.14
3730.00,98.16
3729.00,98.16
3728.00,98.15
3727.00,98.13
3726.00,98.08
3725.00,98.04
3724.00,98.02
3723.00,98.02
3722.00,98.02
3721.00,98.03
3720.00,98.03
3719.00,98.03
3718.00,98.03
3717.00,98.04
3716.00,98.04
3715.00,98.04
3714.00,98.02
3713.00,98.01
3712.00,98.00
3711.00,98.00
3710.00,97.99
3709.00,98.00
3708.00,98.01
3707.00,98.03
3706.00,98.06
3705.00,98.09
3704.00,98.11
3703.00,98.10
3702.00,98.08
3701.00,98.05
3700.00,98.04
3699.00,98.03
3698.00,98.04
3697.00,98.04
3696.00,98.02
3695.00,98.00
3694.00,97.98
3693.00,97.98
3692.00,97.99
3691.00,97.99
3690.00,97.99
3689.00,97.97
3688.00,97.96
3687.00,97.97
3686.00,97.99
3685.00,98.02
3684.00,98.04
3683.00,98.04
3682.00,98.04
3681.00,98.03
3680.00,98.01
3679.00,97.99
3678.00,97.98
3677.00,97.97
3676.00,97.95
3675.00,97.92
3674.00,97.89
3673.00,97.88
3672.00,97.91
3671.00,97.96
3670.00,98.00
3669.00,98.00
3668.00,97.98
3667.00,97.95
3666.00,97.92
3665.00,97.90
3664.00,97.90
3663.00,97.90
3662.00,97.91
3661.00,97.92
3660.00,97.92
3659.00,97.91
3658.00,97.90
3657.00,97.87
3656.00,97.83
3655.00,97.80
3654.00,97.76
3653.00,97.73
3652.00,97.71
3651.00,97.70
3650.00,97.70
3649.00,97.73
3648.00,97.75
3647.00,97.75
3646.00,97.72
3645.00,97.68
3644.00,97.64
3643.00,97.59
3642.00,97.57
3641.00,97.56
3640.00,97.58
3639.00,97.61
3638.00,97.63
3637.00,97.64
3636.00,97.61
3635.00,97.56
3634.00,97.51
3633.00,97.47
3632.00,97.45
3631.00,97.46
3630.00,97.46
3629.00,97.44
3628.00,97.38
3627.00,97.34
3626.00,97.31
3625.00,97.30
3624.00,97.28
3623.00,97.26
3622.00,97.25
3621.00,97.25
3620.00,97.25
3619.00,97.22
3618.00,97.18
3617.00,97.14
3616.00,97.11
3615.00,97.10
3614.00,97.10
3613.00,97.09
3612.00,97.07
3611.00,97.04
3610.00,97.03
3609.00,97.01
3608.00,96.99
3607.00,96.96
3606.00,96.93
3605.00,96.91
3604.00,96.89
3603.00,96.86
3602.00,96.83
3601.00,96.80
3600.00,96.78
3599.00,96.74
3598.00,96.70
3597.00,96.65
3596.00,96.62
3595.00,96.60
3594.00,96.59
3593.00,96.58
3592.00,96.55
3591.00,96.52
3590.00,96.49
3589.00,96.47
3588.00,96.46
3587.00,96.43
3586.00,96.38
3585.00,96.34
3584.00,96.30
3583.00,96.26
3582.00,96.23
3581.00,96.19
3580.00,96.16
3579.00,96.13
3578.00,96.10
3577.00,96.07
3576.00,96.05
3575.00,96.03
3574.00,96.01
3573.00,95.98
3572.00,95.95
3571.00,95.91
3570.00,95.87
3569.00,95.84
3568.00,95.79
3567.00,95.75
3566.00,95.71
3565.00,95.68
3564.00,95.66
3563.00,95.64
3562.00,95.61
3561.00,95.58
3560.00,95.57
3559.00,95.55
3558.00,95.53
3557.00,95.49
3556.00,95.44
3555.00,95.38
3554.00,95.33
3553.00,95.29
3552.00,95.27
3551.00,95.24
3550.00,95.20
3549.00,95.16
3548.00,95.11
3547.00,95.06
3546.00,95.01
3545.00,94.97
3544.00,94.94
3543.00,94.90
3542.00,94.87
3541.00,94.83
3540.00,94.80
3539.00,94.77
3538.00,94.72
3537.00,94.67
3536.00,94.63
3535.00,94.59
3534.00,94.57
3533.00,94.56
3532.00,94.53
3531.00,94.48
3530.00,94.41
3529.00,94.35
3528.00,94.30
3527.00,94.27
3526.00,94.26
3525.00,94.25
3524.00,94.21
3523.00,94.16
3522.00,94.11
3521.00,94.06
3520.00,94.02
3519.00,93.98
3518.00,93.93
3517.00,93.89
3516.00,93.84
3515.00,93.79
3514.00,93.74
3513.00,93.68
3512.00,93.62
3511.00,93.56
3510.00,93.50
3509.00,93.45
3508.00,93.38
3507.00,93.29
3506.00,93.19
3505.00,93.11
3504.00,93.04
3503.00,92.98
3502.00,92.94
3501.00,92.89
3500.00,92.84
3499.00,92.78
3498.00,92.70
3497.00,92.62
3496.00,92.56
3495.00,92.49
3494.00,92.43
3493.00,92.35
3492.00,92.29
3491.00,92.24
3490.00,92.21
3489.00,92.19
3488.00,92.15
3487.00,92.10
3486.00,92.05
3485.00,92.01
3484.00,91.98
3483.00,91.95
3482.00,91.92
3481.00,91.88
3480.00,91.83
3479.00,91.77
3478.00,91.73
3477.00,91.69
3476.00,91.66
3475.00,91.63
3474.00,91.59
3473.00,91.55
3472.00,91.51
3471.00,91.46
3470.00,91.41
3469.00,91.35
3468.00,91.30
3467.00,91.26
3466.00,91.21
3465.00,91.17
3464.00,91.13
3463.00,91.09
3462.00,91.05
3461.00,91.01
3460.00,90.97
3459.00,90.93
3458.00,90.88
3457.00,90.83
3456.00,90.79
3455.00,90.73
3454.00,90.65
3453.00,90.55
3452.00,90.45
3451.00,90.37
3450.00,90.30
3449.00,90.25
3448.00,90.21
3447.00,90.17
3446.00,90.11
3445.00,90.03
3444.00,89.97
3443.00,89.92
3442.00,89.90
3441.00,89.89
3440.00,89.88
3439.00,89.86
3438.00,89.84
3437.00,89.82
3436.00,89.81
3435.00,89.79
3434.00,89.76
3433.00,89.72
3432.00,89.69
3431.00,89.67
3430.00,89.65
3429.00,89.63
3428.00,89.62
3427.00,89.60
3426.00,89.58
3425.00,89.56
3424.00,89.55
3423.00,89.53
3422.00,89.50
3421.00,89.48
3420.00,89.45
3419.00,89.44
3418.00,89.43
3417.00,89.42
3416.00,89.41
3415.00,89.39
3414.00,89.36
3413.00,89.33
3412.00,89.30
3411.00,89.27
3410.00,89.25
3409.00,89.23
3408.00,89.20
3407.00,89.16
3406.00,89.11
3405.00,89.08
3404.00,89.06
3403.00,89.05
3402.00,89.06
3401.00,89.06
3400.00,89.05
3399.00,89.02
3398.00,88.99
3397.00,88.96
3396.00,88.93
3395.00,88.92
3394.00,88.91
3393.00,88.90
3392.00,88.87
3391.00,88.84
3390.00,88.82
3389.00,88.81
3388.00,88.81
3387.00,88.81
3386.00,88.81
3385.00,88.80
3384.00,88.78
3383.00,88.75
3382.00,88.73
3381.00,88.70
3380.00,88.69
3379.00,88.67
3378.00,88.66
3377.00,88.64
3376.00,88.62
3375.00,88.59
3374.00,88.58
3373.00,88.57
3372.00,88.57
3371.00,88.56
3370.00,88.55
3369.00,88.52
3368.00,88.50
3367.00,88.47
3366.00,88.45
3365.00,88.46
3364.00,88.47
3363.00,88.50
3362.00,88.50
3361.00,88.49
3360.00,88.46
3359.00,88.43
3358.00,88.41
3357.00,88.40
3356.00,88.40
3355.00,88.40
3354.00,88.39
3353.00,88.38
3352.00,88.38
3351.00,88.37
3350.00,88.37
3349.00,88.37
3348.00,88.37
3347.00,88.38
3346.00,88.38
3345.00,88.38
3344.00,88.38
3343.00,88.38
3342.00,88.39
3341.00,88.38
3340.00,88.37
3339.00,88.35
3338.00,88.33
3337.00,88.33
3336.00,88.33
3335.00,88.33
3334.00,88.33
3333.00,88.32
3332.00,88.31
3331.00,88.30
3330.00,88.31
3329.00,88.31
3328.00,88.30
3327.00,88.30
3326.00,88.29
3325.00,88.30
3324.00,88.31
3323.00,88.31
3322.00,88.30
3321.00,88.31
3320.00,88.33
3319.00,88.34
3318.00,88.35
3317.00,88.36
3316.00,88.36
3315.00,88.36
3314.00,88.37
3313.00,88.39
3312.00,88.40
3311.00,88.40
3310.00,88.39
3309.00,88.38
3308.00,88.37
3307.00,88.39
3306.00,88.41
3305.00,88.42
3304.00,88.44
3303.00,88.44
3302.00,88.45
3301.00,88.46
3300.00,88.47
3299.00,88.47
3298.00,88.48
3297.00,88.48
3296.00,88.48
3295.00,88.47
3294.00,88.47
3293.00,88.46
3292.00,88.47
3291.00,88.49
3290.00,88.51
3289.00,88.53
3288.00,88.54
3287.00,88.55
3286.00,88.56
3285.00,88.56
3284.00,88.56
3283.00,88.57
3282.00,88.60
3281.00,88.62
3280.00,88.64
3279.00,88.64
3278.00,88.64
3277.00,88.65
3276.00,88.66
3275.00,88.67
3274.00,88.69
3273.00,88.70
3272.00,88.71
3271.00,88.73
3270.00,88.76
3269.00,88.80
3268.00,88.82
3267.00,88.82
3266.00,88.81
3265.00,88.79
3264.00,88.79
3263.00,88.81
3262.00,88.82
3261.00,88.84
3260.00,88.85
3259.00,88.86
3258.00,88.88
3257.00,88.89
3256.00,88.89
3255.00,88.89
3254.00,88.90
3253.00,88.92
3252.00,88.95
3251.00,88.98
3250.00,89.01
3249.00,89.04
3248.00,89.07
3247.00,89.09
3246.00,89.11
3245.00,89.13
3244.00,89.13
3243.00,89.12
3242.00,89.10
3241.00,89.09
3240.00,89.11
3239.00,89.15
3238.00,89.18
3237.00,89.20
3236.00,89.22
3235.00,89.24
3234.00,89.27
3233.00,89.31
3232.00,89.34
3231.00,89.37
3230.00,89.39
3229.00,89.42
3228.00,89.45
3227.00,89.48
3226.00,89.51
3225.00,89.52
3224.00,89.52
3223.00,89.51
3222.00,89.50
3221.00,89.50
3220.00,89.51
3219.00,89.53
3218.00,89.56
3217.00,89.60
3216.00,89.64
3215.00,89.68
3214.00,89.72
3213.00,89.74
3212.00,89.75
3211.00,89.75
3210.00,89.75
3209.00,89.76
3208.00,89.79
3207.00,89.82
3206.00,89.86
3205.00,89.90
3204.00,89.94
3203.00,89.96
3202.00,89.98
3201.00,89.99
3200.00,90.00
3199.00,90.02
3198.00,90.04
3197.00,90.07
3196.00,90.10
3195.00,90.13
3194.00,90.16
3193.00,90.18
3192.00,90.19
3191.00,90.22
3190.00,90.25
3189.00,90.28
3188.00,90.32
3187.00,90.33
3186.00,90.34
3185.00,90.35
3184.00,90.37
3183.00,90.41
3182.00,90.44
3181.00,90.47
3180.00,90.51
3179.00,90.53
3178.00,90.55
3177.00,90.57
3176.00,90.58
3175.00,90.59
3174.00,90.62
3173.00,90.65
3172.00,90.69
3171.00,90.73
3170.00,90.76
3169.00,90.77
3168.00,90.78
3167.00,90.78
3166.00,90.80
3165.00,90.83
3164.00,90.87
3163.00,90.93
3162.00,90.99
3161.00,91.04
3160.00,91.07
3159.00,91.09
3158.00,91.09
3157.00,91.10
3156.00,91.12
3155.00,91.15
3154.00,91.19
3153.00,91.23
3152.00,91.27
3151.00,91.29
3150.00,91.31
3149.00,91.32
3148.00,91.35
3147.00,91.38
3146.00,91.41
3145.00,91.45
3144.00,91.48
3143.00,91.52
3142.00,91.56
3141.00,91.60
3140.00,91.64
3139.00,91.66
3138.00,91.68
3137.00,91.69
3136.00,91.71
3135.00,91.72
3134.00,91.74
3133.00,91.77
3132.00,91.81
3131.00,91.85
3130.00,91.88
3129.00,91.91
3128.00,91.94
3127.00,91.98
3126.00,92.02
3125.00,92.05
3124.00,92.08
3123.00,92.12
3122.00,92.15
3121.00,92.18
3120.00,92.21
3119.00,92.23
3118.00,92.25
3117.00,92.27
3116.00,92.31
3115.00,92.36
3114.00,92.40
3113.00,92.44
3112.00,92.47
3111.00,92.50
3110.00,92.53
3109.00,92.56
3108.00,92.60
3107.00,92.63
3106.00,92.66
3105.00,92.68
3104.00,92.72
3103.00,92.75
3102.00,92.78
3101.00,92.80
3100.00,92.83
3099.00,92.85
3098.00,92.89
3097.00,92.93
3096.00,92.97
3095.00,93.01
3094.00,93.04
3093.00,93.06
3092.00,93.08
3091.00,93.11
3090.00,93.14
3089.00,93.17
3088.00,93.19
3087.00,93.22
3086.00,93.25
3085.00,93.29
3084.00,93.32
3083.00,93.34
3082.00,93.36
3081.00,93.38
3080.00,93.40
3079.00,93.43
3078.00,93.46
3077.00,93.50
3076.00,93.53
3075.00,93.56
3074.00,93.58
3073.00,93.61
3072.00,93.65
3071.00,93.69
3070.00,93.72
3069.00,93.75
3068.00,93.78
3067.00,93.81
3066.00,93.84
3065.00,93.86
3064.00,93.88
3063.00,93.90
3062.00,93.92
3061.00,93.94
3060.00,93.97
3059.00,94.00
3058.00,94.04
3057.00,94.07
3056.00,94.09
3055.00,94.11
3054.00,94.12
3053.00,94.14
3052.00,94.16
3051.00,94.18
3050.00,94.20
3049.00,94.22
3048.00,94.24
3047.00,94.27
3046.00,94.31
3045.00,94.34
3044.00,94.37
3043.00,94.39
3042.00,94.40
3041.00,94.40
3040.00,94.41
3039.00,94.43
3038.00,94.46
3037.00,94.49
3036.00,94.53
3035.00,94.57
3034.00,94.60
3033.00,94.62
3032.00,94.63
3031.00,94.63
3030.00,94.62
3029.00,94.61
3028.00,94.61
3027.00,94.64
3026.00,94.69
3025.00,94.74
3024.00,94.77
3023.00,94.79
3022.00,94.79
3021.00,94.79
3020.00,94.79
3019.00,94.79
3018.00,94.80
3017.00,94.82
3016.00,94.85
3015.00,94.88
3014.00,94.91
3013.00,94.92
3012.00,94.93
3011.00,94.93
3010.00,94.94
3009.00,94.96
3008.00,94.97
3007.00,94.98
3006.00,94.99
3005.00,95.00
3004.00,95.00
3003.00,95.00
3002.00,94.99
3001.00,95.00
3000.00,95.01
2999.00,95.03
2998.00,95.04
2997.00,95.05
2996.00,95.06
2995.00,95.06
2994.00,95.07
2993.00,95.07
2992.00,95.08
2991.00,95.08
2990.00,95.08
2989.00,95.07
2988.00,95.07
2987.00,95.05
2986.00,95.04
2985.00,95.02
2984.00,95.00
2983.00,94.99
2982.00,94.99
2981.00,94.99
2980.00,94.99
2979.00,94.98
2978.00,94.97
2977.00,94.96
2976.00,94.94
2975.00,94.94
2974.00,94.93
2973.00,94.92
2972.00,94.91
2971.00,94.90
2970.00,94.88
2969.00,94.87
2968.00,94.84
2967.00,94.81
2966.00,94.78
2965.00,94.75
2964.00,94.72
2963.00,94.70
2962.00,94.69
2961.00,94.67
2960.00,94.65
2959.00,94.62
2958.00,94.60
2957.00,94.56
2956.00,94.52
2955.00,94.47
2954.00,94.42
2953.00,94.39
2952.00,94.36
2951.00,94.35
2950.00,94.33
2949.00,94.30
2948.00,94.26
2947.00,94.22
2946.00,94.19
2945.00,94.15
2944.00,94.11
2943.00,94.05
2942.00,93.98
2941.00,93.91
2940.00,93.85
2939.00,93.82
2938.00,93.79
2937.00,93.75
2936.00,93.70
2935.00,93.64
2934.00,93.58
2933.00,93.55
2932.00,93.51
2931.00,93.49
2930.00,93.46
2929.00,93.45
2928.00,93.43
2927.00,93.41
2926.00,93.36
2925.00,93.30
2924.00,93.24
2923.00,93.20
2922.00,93.16
2921.00,93.13
2920.00,93.10
2919.00,93.09
2918.00,93.08
2917.00,93.08
2916.00,93.06
2915.00,93.03
2914.00,92.99
2913.00,92.94
2912.00,92.90
2911.00,92.88
2910.00,92.85
2909.00,92.83
2908.00,92.80
2907.00,92.78
2906.00,92.75
2905.00,92.71
2904.00,92.69
2903.00,92.67
2902.00,92.67
2901.00,92.66
2900.00,92.64
2899.00,92.62
2898.00,92.59
2897.00,92.56
2896.00,92.54
2895.00,92.53
2894.00,92.52
2893.00,92.50
2892.00,92.48
2891.00,92.48
2890.00,92.49
2889.00,92.51
2888.00,92.53
2887.00,92.54
2886.00,92.55
2885.00,92.55
2884.00,92.56
2883.00,92.58
2882.00,92.59
2881.00,92.61
2880.00,92.64
2879.00,92.66
2878.00,92.68
2877.00,92.70
2876.00,92.72
2875.00,92.74
2874.00,92.75
2873.00,92.77
2872.00,92.78
2871.00,92.81
2870.00,92.84
2869.00,92.87
2868.00,92.91
2867.00,92.96
2866.00,93.01
2865.00,93.07
2864.00,93.13
2863.00,93.18
2862.00,93.22
2861.00,93.25
2860.00,93.28
2859.00,93.31
2858.00,93.36
2857.00,93.41
2856.00,93.46
2855.00,93.51
2854.00,93.55
2853.00,93.59
2852.00,93.63
2851.00,93.68
2850.00,93.74
2849.00,93.80
2848.00,93.86
2847.00,93.92
2846.00,93.96
2845.00,94.00
2844.00,94.03
2843.00,94.06
2842.00,94.10
2841.00,94.14
2840.00,94.18
2839.00,94.23
2838.00,94.26
2837.00,94.30
2836.00,94.33
2835.00,94.35
2834.00,94.37
2833.00,94.38
2832.00,94.40
2831.00,94.42
2830.00,94.46
2829.00,94.49
2828.00,94.52
2827.00,94.54
2826.00,94.56
2825.00,94.57
2824.00,94.59
2823.00,94.61
2822.00,94.62
2821.00,94.64
2820.00,94.66
2819.00,94.68
2818.00,94.70
2817.00,94.72
2816.00,94.73
2815.00,94.75
2814.00,94.77
2813.00,94.78
2812.00,94.79
2811.00,94.81
2810.00,94.82
2809.00,94.83
2808.00,94.84
2807.00,94.86
2806.00,94.88
2805.00,94.91
2804.00,94.92
2803.00,94.92
2802.00,94.92
2801.00,94.93
2800.00,94.95
2799.00,94.97
2798.00,94.99
2797.00,95.00
2796.00,95.01
2795.00,95.01
2794.00,95.01
2793.00,95.01
2792.00,95.03
2791.00,95.05
2790.00,95.07
2789.00,95.09
2788.00,95.10
2787.00,95.10
2786.00,95.11
2785.00,95.12
2784.00,95.14
2783.00,95.15
2782.00,95.17
2781.00,95.18
2780.00,95.19
2779.00,95.19
2778.00,95.21
2777.00,95.22
2776.00,95.24
2775.00,95.25
2774.00,95.25
2773.00,95.25
2772.00,95.26
2771.00,95.27
2770.00,95.28
2769.00,95.29
2768.00,95.31
2767.00,95.32
2766.00,95.33
2765.00,95.34
2764.00,95.34
2763.00,95.34
2762.00,95.34
2761.00,95.35
2760.00,95.37
2759.00,95.38
2758.00,95.38
2757.00,95.37
2756.00,95.37
2755.00,95.37
2754.00,95.38
2753.00,95.39
2752.00,95.40
2751.00,95.41
2750.00,95.41
2749.00,95.42
2748.00,95.43
2747.00,95.42
2746.00,95.42
2745.00,95.42
2744.00,95.42
2743.00,95.42
2742.00,95.42
2741.00,95.43
2740.00,95.44
2739.00,95.44
2738.00,95.44
2737.00,95.44
2736.00,95.44
2735.00,95.43
2734.00,95.43
2733.00,95.44
2732.00,95.45
2731.00,95.45
2730.00,95.46
2729.00,95.46
2728.00,95.46
2727.00,95.46
2726.00,95.47
2725.00,95.48
2724.00,95.49
2723.00,95.50
2722.00,95.50
2721.00,95.50
2720.00,95.50
2719.00,95.50
2718.00,95.51
2717.00,95.52
2716.00,95.52
2715.00,95.52
2714.00,95.52
2713.00,95.53
2712.00,95.54
2711.00,95.55
2710.00,95.56
2709.00,95.57
2708.00,95.58
2707.00,95.59
2706.00,95.60
2705.00,95.60
2704.00,95.60
2703.00,95.59
2702.00,95.60
2701.00,95.60
2700.00,95.61
2699.00,95.61
2698.00,95.61
2697.00,95.62
2696.00,95.63
2695.00,95.63
2694.00,95.62
2693.00,95.62
2692.00,95.61
2691.00,95.61
2690.00,95.60
2689.00,95.61
2688.00,95.61
2687.00,95.63
2686.00,95.65
2685.00,95.67
2684.00,95.69
2683.00,95.71
2682.00,95.72
2681.00,95.73
2680.00,95.75
2679.00,95.75
2678.00,95.76
2677.00,95.75
2676.00,95.75
2675.00,95.75
2674.00,95.75
2673.00,95.77
2672.00,95.79
2671.00,95.79
2670.00,95.79
2669.00,95.78
2668.00,95.78
2667.00,95.78
2666.00,95.79
2665.00,95.80
2664.00,95.80
2663.00,95.80
2662.00,95.79
2661.00,95.78
2660.00,95.78
2659.00,95.78
2658.00,95.78
2657.00,95.78
2656.00,95.78
2655.00,95.77
2654.00,95.76
2653.00,95.74
2652.00,95.73
2651.00,95.72
2650.00,95.73
2649.00,95.74
2648.00,95.76
2647.00,95.77
2646.00,95.77
2645.00,95.76
2644.00,95.74
2643.00,95.73
2642.00,95.72
2641.00,95.72
2640.00,95.71
2639.00,95.70
2638.00,95.70
2637.00,95.69
2636.00,95.69
2635.00,95.68
2634.00,95.68
2633.00,95.68
2632.00,95.68
2631.00,95.68
2630.00,95.68
2629.00,95.69
2628.00,95.70
2627.00,95.70
2626.00,95.69
2625.00,95.69
2624.00,95.69
2623.00,95.69
2622.00,95.67
2621.00,95.65
2620.00,95.64
2619.00,95.63
2618.00,95.64
2617.00,95.64
2616.00,95.64
2615.00,95.64
2614.00,95.66
2613.00,95.68
2612.00,95.70
2611.00,95.69
2610.00,95.66
2609.00,95.63
2608.00,95.62
2607.00,95.62
2606.00,95.63
2605.00,95.64
2604.00,95.65
2603.00,95.66
2602.00,95.66
2601.00,95.66
2600.00,95.66
2599.00,95.65
2598.00,95.65
2597.00,95.64
2596.00,95.63
2595.00,95.64
2594.00,95.65
2593.00,95.65
2592.00,95.63
2591.00,95.60
2590.00,95.59
2589.00,95.60
2588.00,95.63
2587.00,95.65
2586.00,95.65
2585.00,95.66
2584.00,95.67
2583.00,95.67
2582.00,95.65
2581.00,95.63
2580.00,95.62
2579.00,95.61
2578.00,95.62
2577.00,95.63
2576.00,95.63
2575.00,95.63
2574.00,95.62
2573.00,95.60
2572.00,95.58
2571.00,95.57
2570.00,95.57
2569.00,95.57
2568.00,95.57
2567.00,95.58
2566.00,95.58
2565.00,95.58
2564.00,95.58
2563.00,95.58
2562.00,95.59
2561.00,95.61
2560.00,95.62
2559.00,95.62
2558.00,95.62
2557.00,95.62
2556.00,95.62
2555.00,95.63
2554.00,95.63
2553.00,95.63
2552.00,95.62
2551.00,95.61
2550.00,95.61
2549.00,95.61
2548.00,95.62
2547.00,95.62
2546.00,95.62
2545.00,95.61
2544.00,95.60
2543.00,95.58
2542.00,95.58
2541.00,95.59
2540.00,95.61
2539.00,95.64
2538.00,95.65
2537.00,95.64
2536.00,95.63
2535.00,95.61
2534.00,95.59
2533.00,95.58
2532.00,95.59
2531.00,95.60
2530.00,95.61
2529.00,95.62
2528.00,95.63
2527.00,95.65
2526.00,95.66
2525.00,95.67
2524.00,95.68
2523.00,95.67
2522.00,95.65
2521.00,95.63
2520.00,95.62
2519.00,95.61
2518.00,95.61
2517.00,95.60
2516.00,95.61
2515.00,95.62
2514.00,95.64
2513.00,95.65
2512.00,95.67
2511.00,95.69
2510.00,95.71
2509.00,95.71
2508.00,95.70
2507.00,95.68
2506.00,95.67
2505.00,95.66
2504.00,95.65
2503.00,95.65
2502.00,95.65
2501.00,95.65
2500.00,95.66
2499.00,95.68
2498.00,95.70
2497.00,95.70
2496.00,95.70
2495.00,95.69
2494.00,95.68
2493.00,95.67
2492.00,95.65
2491.00,95.65
2490.00,95.66
2489.00,95.67
2488.00,95.68
2487.00,95.69
2486.00,95.70
2485.00,95.70
2484.00,95.70
2483.00,95.71
2482.00,95.73
2481.00,95.75
2480.00,95.75
2479.00,95.74
2478.00,95.73
2477.00,95.73
2476.00,95.74
2475.00,95.74
2474.00,95.74
2473.00,95.72
2472.00,95.70
2471.00,95.69
2470.00,95.70
2469.00,95.72
2468.00,95.72
2467.00,95.71
2466.00,95.70
2465.00,95.69
2464.00,95.68
2463.00,95.67
2462.00,95.67
2461.00,95.68
2460.00,95.70
2459.00,95.72
2458.00,95.73
2457.00,95.74
2456.00,95.74
2455.00,95.75
2454.00,95.76
2453.00,95.76
2452.00,95.75
2451.00,95.74
2450.00,95.75
2449.00,95.77
2448.00,95.78
2447.00,95.79
2446.00,95.79
2445.00,95.80
2444.00,95.80
2443.00,95.80
2442.00,95.81
2441.00,95.82
2440.00,95.82
2439.00,95.82
2438.00,95.82
2437.00,95.82
2436.00,95.83
2435.00,95.84
2434.00,95.84
2433.00,95.85
2432.00,95.85
2431.00,95.85
2430.00,95.85
2429.00,95.86
2428.00,95.87
2427.00,95.88
2426.00,95.89
2425.00,95.89
2424.00,95.90
2423.00,95.92
2422.00,95.93
2421.00,95.94
2420.00,95.94
2419.00,95.95
2418.00,95.94
2417.00,95.93
2416.00,95.92
2415.00,95.91
2414.00,95.89
2413.00,95.88
2412.00,95.89
2411.00,95.91
2410.00,95.93
2409.00,95.96
2408.00,95.98
2407.00,96.00
2406.00,96.01
2405.00,96.01
2404.00,96.01
2403.00,96.02
2402.00,96.02
2401.00,96.01
2400.00,96.01
2399.00,96.01
2398.00,96.02
2397.00,96.04
2396.00,96.07
2395.00,96.10
2394.00,96.12
2393.00,96.11
2392.00,96.10
2391.00,96.10
2390.00,96.11
2389.00,96.12
2388.00,96.13
2387.00,96.13
2386.00,96.12
2385.00,96.12
2384.00,96.14
2383.00,96.18
2382.00,96.22
2381.00,96.25
2380.00,96.28
2379.00,96.30
2378.00,96.31
2377.00,96.30
2376.00,96.30
2375.00,96.30
2374.00,96.30
2373.00,96.27
2372.00,96.23
2371.00,96.21
2370.00,96.25
2369.00,96.32
2368.00,96.38
2367.00,96.39
2366.00,96.38
2365.00,96.37
2364.00,96.36
2363.00,96.36
2362.00,96.35
2361.00,96.36
2360.00,96.39
2359.00,96.43
2358.00,96.44
2357.00,96.41
2356.00,96.35
2355.00,96.32
2354.00,96.34
2353.00,96.38
2352.00,96.40
2351.00,96.41
2350.00,96.41
2349.00,96.42
2348.00,96.44
2347.00,96.47
2346.00,96.51
2345.00,96.53
2344.00,96.54
2343.00,96.51
2342.00,96.45
2341.00,96.39
2340.00,96.34
2339.00,96.31
2338.00,96.30
2337.00,96.32
2336.00,96.35
2335.00,96.35
2334.00,96.35
2333.00,96.34
2332.00,96.35
2331.00,96.36
2330.00,96.37
2329.00,96.36
2328.00,96.33
2327.00,96.28
2326.00,96.22
2325.00,96.15
2324.00,96.12
2323.00,96.12
2322.00,96.14
2321.00,96.17
2320.00,96.19
2319.00,96.19
2318.00,96.16
2317.00,96.11
2316.00,96.05
2315.00,96.02
2314.00,96.01
2313.00,96.00
2312.00,95.99
2311.00,95.98
2310.00,95.98
2309.00,95.98
2308.00,95.99
2307.00,96.00
2306.00,96.00
2305.00,95.98
2304.00,95.96
2303.00,95.93
2302.00,95.92
2301.00,95.94
2300.00,95.95
2299.00,95.94
2298.00,95.91
2297.00,95.88
2296.00,95.85
2295.00,95.83
2294.00,95.82
2293.00,95.80
2292.00,95.77
2291.00,95.75
2290.00,95.72
2289.00,95.70
2288.00,95.68
2287.00,95.66
2286.00,95.64
2285.00,95.62
2284.00,95.60
2283.00,95.57
2282.00,95.55
2281.00,95.54
2280.00,95.52
2279.00,95.52
2278.00,95.51
2277.00,95.52
2276.00,95.54
2275.00,95.56
2274.00,95.55
2273.00,95.53
2272.00,95.49
2271.00,95.44
2270.00,95.41
2269.00,95.40
2268.00,95.42
2267.00,95.42
2266.00,95.40
2265.00,95.38
2264.00,95.36
2263.00,95.38
2262.00,95.39
2261.00,95.38
2260.00,95.33
2259.00,95.27
2258.00,95.22
2257.00,95.20
2256.00,95.20
2255.00,95.21
2254.00,95.20
2253.00,95.18
2252.00,95.17
2251.00,95.19
2250.00,95.23
2249.00,95.25
2248.00,95.23
2247.00,95.18
2246.00,95.12
2245.00,95.07
2244.00,95.05
2243.00,95.04
2242.00,95.04
2241.00,95.06
2240.00,95.09
2239.00,95.11
2238.00,95.13
2237.00,95.13
2236.00,95.13
2235.00,95.14
2234.00,95.15
2233.00,95.13
2232.00,95.11
2231.00,95.09
2230.00,95.08
2229.00,95.07
2228.00,95.05
2227.00,95.01
2226.00,94.96
2225.00,94.90
2224.00,94.84
2223.00,94.80
2222.00,94.78
2221.00,94.80
2220.00,94.84
2219.00,94.87
2218.00,94.88
2217.00,94.86
2216.00,94.83
2215.00,94.79
2214.00,94.77
2213.00,94.77
2212.00,94.76
2211.00,94.75
2210.00,94.73
2209.00,94.71
2208.00,94.70
2207.00,94.69
2206.00,94.67
2205.00,94.65
2204.00,94.64
2203.00,94.66
2202.00,94.66
2201.00,94.63
2200.00,94.60
2199.00,94.59
2198.00,94.61
2197.00,94.64
2196.00,94.66
2195.00,94.65
2194.00,94.63
2193.00,94.60
2192.00,94.59
2191.00,94.58
2190.00,94.57
2189.00,94.54
2188.00,94.46
2187.00,94.36
2186.00,94.25
2185.00,94.19
2184.00,94.21
2183.00,94.26
2182.00,94.29
2181.00,94.29
2180.00,94.28
2179.00,94.30
2178.00,94.35
2177.00,94.40
2176.00,94.42
2175.00,94.39
2174.00,94.32
2173.00,94.26
2172.00,94.25
2171.00,94.28
2170.00,94.32
2169.00,94.33
2168.00,94.30
2167.00,94.22
2166.00,94.13
2165.00,94.02
2164.00,93.91
2163.00,93.81
2162.00,93.72
2161.00,93.70
2160.00,93.78
2159.00,93.95
2158.00,94.12
2157.00,94.23
2156.00,94.28
2155.00,94.34
2154.00,94.42
2153.00,94.49
2152.00,94.56
2151.00,94.62
2150.00,94.67
2149.00,94.69
2148.00,94.69
2147.00,94.69
2146.00,94.71
2145.00,94.73
2144.00,94.75
2143.00,94.77
2142.00,94.80
2141.00,94.84
2140.00,94.88
2139.00,94.90
2138.00,94.91
2137.00,94.93
2136.00,94.95
2135.00,94.99
2134.00,95.03
2133.00,95.06
2132.00,95.08
2131.00,95.11
2130.00,95.15
2129.00,95.20
2128.00,95.24
2127.00,95.26
2126.00,95.28
2125.00,95.29
2124.00,95.31
2123.00,95.31
2122.00,95.30
2121.00,95.26
2120.00,95.21
2119.00,95.16
2118.00,95.15
2117.00,95.17
2116.00,95.21
2115.00,95.24
2114.00,95.22
2113.00,95.19
2112.00,95.18
2111.00,95.21
2110.00,95.26
2109.00,95.30
2108.00,95.30
2107.00,95.28
2106.00,95.23
2105.00,95.17
2104.00,95.14
2103.00,95.13
2102.00,95.15
2101.00,95.15
2100.00,95.15
2099.00,95.16
2098.00,95.19
2097.00,95.24
2096.00,95.29
2095.00,95.34
2094.00,95.36
2093.00,95.35
2092.00,95.33
2091.00,95.30
2090.00,95.26
2089.00,95.22
2088.00,95.17
2087.00,95.15
2086.00,95.15
2085.00,95.18
2084.00,95.21
2083.00,95.23
2082.00,95.21
2081.00,95.18
2080.00,95.14
2079.00,95.12
2078.00,95.11
2077.00,95.10
2076.00,95.11
2075.00,95.11
2074.00,95.09
2073.00,95.07
2072.00,95.06
2071.00,95.06
2070.00,95.06
2069.00,95.04
2068.00,95.00
2067.00,94.97
2066.00,94.97
2065.00,94.97
2064.00,94.98
2063.00,95.00
2062.00,95.03
2061.00,95.05
2060.00,95.04
2059.00,95.01
2058.00,94.97
2057.00,94.94
2056.00,94.92
2055.00,94.91
2054.00,94.89
2053.00,94.88
2052.00,94.89
2051.00,94.90
2050.00,94.91
2049.00,94.88
2048.00,94.80
2047.00,94.70
2046.00,94.61
2045.00,94.56
2044.00,94.56
2043.00,94.58
2042.00,94.61
2041.00,94.60
2040.00,94.55
2039.00,94.46
2038.00,94.38
2037.00,94.32
2036.00,94.30
2035.00,94.33
2034.00,94.40
2033.00,94.49
2032.00,94.56
2031.00,94.60
2030.00,94.63
2029.00,94.64
2028.00,94.62
2027.00,94.56
2026.00,94.46
2025.00,94.39
2024.00,94.35
2023.00,94.39
2022.00,94.47
2021.00,94.56
2020.00,94.61
2019.00,94.60
2018.00,94.55
2017.00,94.51
2016.00,94.52
2015.00,94.56
2014.00,94.60
2013.00,94.63
2012.00,94.64
2011.00,94.63
2010.00,94.63
2009.00,94.63
2008.00,94.64
2007.00,94.67
2006.00,94.71
2005.00,94.73
2004.00,94.72
2003.00,94.67
2002.00,94.64
2001.00,94.69
2000.00,94.79
1999.00,94.87
1998.00,94.87
1997.00,94.82
1996.00,94.78
1995.00,94.76
1994.00,94.75
1993.00,94.73
1992.00,94.72
1991.00,94.73
1990.00,94.75
1989.00,94.77
1988.00,94.77
1987.00,94.75
1986.00,94.71
1985.00,94.67
1984.00,94.64
1983.00,94.62
1982.00,94.62
1981.00,94.62
1980.00,94.61
1979.00,94.62
1978.00,94.65
1977.00,94.70
1976.00,94.74
1975.00,94.76
1974.00,94.77
1973.00,94.79
1972.00,94.79
1971.00,94.80
1970.00,94.81
1969.00,94.84
1968.00,94.89
1967.00,94.96
1966.00,95.02
1965.00,95.08
1964.00,95.10
1963.00,95.09
1962.00,95.06
1961.00,95.05
1960.00,95.09
1959.00,95.14
1958.00,95.16
1957.00,95.16
1956.00,95.17
1955.00,95.20
1954.00,95.24
1953.00,95.26
1952.00,95.28
1951.00,95.30
1950.00,95.33
1949.00,95.36
1948.00,95.37
1947.00,95.35
1946.00,95.33
1945.00,95.32
1944.00,95.34
1943.00,95.38
1942.00,95.41
1941.00,95.43
1940.00,95.45
1939.00,95.47
1938.00,95.50
1937.00,95.52
1936.00,95.54
1935.00,95.56
1934.00,95.58
1933.00,95.59
1932.00,95.61
1931.00,95.62
1930.00,95.64
1929.00,95.65
1928.00,95.65
1927.00,95.66
1926.00,95.67
1925.00,95.68
1924.00,95.67
1923.00,95.66
1922.00,95.66
1921.00,95.68
1920.00,95.71
1919.00,95.73
1918.00,95.75
1917.00,95.76
1916.00,95.76
1915.00,95.77
1914.00,95.79
1913.00,95.83
1912.00,95.86
1911.00,95.86
1910.00,95.84
1909.00,95.81
1908.00,95.80
1907.00,95.80
1906.00,95.81
1905.00,95.83
1904.00,95.83
1903.00,95.84
1902.00,95.86
1901.00,95.88
1900.00,95.90
1899.00,95.92
1898.00,95.92
1897.00,95.92
1896.00,95.90
1895.00,95.88
1894.00,95.86
1893.00,95.85
1892.00,95.83
1891.00,95.83
1890.00,95.85
1889.00,95.89
1888.00,95.93
1887.00,95.96
1886.00,95.98
1885.00,95.98
1884.00,95.98
1883.00,95.99
1882.00,96.02
1881.00,96.04
1880.00,96.04
1879.00,96.02
1878.00,96.02
1877.00,96.03
1876.00,96.05
1875.00,96.07
1874.00,96.09
1873.00,96.08
1872.00,96.06
1871.00,96.04
1870.00,96.04
1869.00,96.07
1868.00,96.11
1867.00,96.14
1866.00,96.16
1865.00,96.16
1864.00,96.16
1863.00,96.16
1862.00,96.16
1861.00,96.14
1860.00,96.12
1859.00,96.10
1858.00,96.09
1857.00,96.09
1856.00,96.10
1855.00,96.11
1854.00,96.12
1853.00,96.14
1852.00,96.16
1851.00,96.18
1850.00,96.18
1849.00,96.17
1848.00,96.17
1847.00,96.17
1846.00,96.18
1845.00,96.19
1844.00,96.19
1843.00,96.20
1842.00,96.21
1841.00,96.22
1840.00,96.23
1839.00,96.23
1838.00,96.23
1837.00,96.24
1836.00,96.26
1835.00,96.29
1834.00,96.29
1833.00,96.27
1832.00,96.23
1831.00,96.20
1830.00,96.20
1829.00,96.23
1828.00,96.25
1827.00,96.26
1826.00,96.26
1825.00,96.26
1824.00,96.26
1823.00,96.26
1822.00,96.26
1821.00,96.28
1820.00,96.29
1819.00,96.32
1818.00,96.33
1817.00,96.34
1816.00,96.34
1815.00,96.34
1814.00,96.34
1813.00,96.33
1812.00,96.34
1811.00,96.34
1810.00,96.35
1809.00,96.37
1808.00,96.38
1807.00,96.39
1806.00,96.39
1805.00,96.38
1804.00,96.37
1803.00,96.36
1802.00,96.37
1801.00,96.38
1800.00,96.39
1799.00,96.39
1798.00,96.39
1797.00,96.39
1796.00,96.41
1795.00,96.42
1794.00,96.43
1793.00,96.42
1792.00,96.40
1791.00,96.40
1790.00,96.39
1789.00,96.39
1788.00,96.38
1787.00,96.37
1786.00,96.37
1785.00,96.38
1784.00,96.39
1783.00,96.40
1782.00,96.40
1781.00,96.40
1780.00,96.42
1779.00,96.43
1778.00,96.44
1777.00,96.44
1776.00,96.43
1775.00,96.42
1774.00,96.40
1773.00,96.40
1772.00,96.40
1771.00,96.41
1770.00,96.42
1769.00,96.42
1768.00,96.41
1767.00,96.40
1766.00,96.39
1765.00,96.39
1764.00,96.38
1763.00,96.38
1762.00,96.38
1761.00,96.38
1760.00,96.39
1759.00,96.39
1758.00,96.40
1757.00,96.41
1756.00,96.42
1755.00,96.42
1754.00,96.41
1753.00,96.39
1752.00,96.37
1751.00,96.35
1750.00,96.32
1749.00,96.31
1748.00,96.32
1747.00,96.35
1746.00,96.38
1745.00,96.39
1744.00,96.40
1743.00,96.40
1742.00,96.40
1741.00,96.39
1740.00,96.38
1739.00,96.37
1738.00,96.37
1737.00,96.36
1736.00,96.37
1735.00,96.37
1734.00,96.37
1733.00,96.34
1732.00,96.32
1731.00,96.30
1730.00,96.30
1729.00,96.31
1728.00,96.32
1727.00,96.32
1726.00,96.31
1725.00,96.30
1724.00,96.29
1723.00,96.30
1722.00,96.30
1721.00,96.29
1720.00,96.27
1719.00,96.25
1718.00,96.23
1717.00,96.21
1716.00,96.20
1715.00,96.19
1714.00,96.18
1713.00,96.18
1712.00,96.17
1711.00,96.16
1710.00,96.15
1709.00,96.14
1708.00,96.13
1707.00,96.12
1706.00,96.12
1705.00,96.12
1704.00,96.12
1703.00,96.11
1702.00,96.09
1701.00,96.07
1700.00,96.04
1699.00,96.02
1698.00,95.99
1697.00,95.96
1696.00,95.93
1695.00,95.92
1694.00,95.92
1693.00,95.91
1692.00,95.90
1691.00,95.90
1690.00,95.89
1689.00,95.88
1688.00,95.87
1687.00,95.86
1686.00,95.84
1685.00,95.82
1684.00,95.77
1683.00,95.71
1682.00,95.65
1681.00,95.60
1680.00,95.56
1679.00,95.54
1678.00,95.52
1677.00,95.49
1676.00,95.46
1675.00,95.42
1674.00,95.39
1673.00,95.36
1672.00,95.32
1671.00,95.28
1670.00,95.23
1669.00,95.17
1668.00,95.12
1667.00,95.08
1666.00,95.05
1665.00,95.03
1664.00,94.99
1663.00,94.94
1662.00,94.90
1661.00,94.86
1660.00,94.83
1659.00,94.79
1658.00,94.76
1657.00,94.75
1656.00,94.74
1655.00,94.72
1654.00,94.69
1653.00,94.66
1652.00,94.65
1651.00,94.65
1650.00,94.65
1649.00,94.65
1648.00,94.64
1647.00,94.62
1646.00,94.60
1645.00,94.58
1644.00,94.55
1643.00,94.53
1642.00,94.51
1641.00,94.50
1640.00,94.50
1639.00,94.50
1638.00,94.50
1637.00,94.52
1636.00,94.53
1635.00,94.56
1634.00,94.59
1633.00,94.61
1632.00,94.63
1631.00,94.65
1630.00,94.66
1629.00,94.68
1628.00,94.70
1627.00,94.72
1626.00,94.73
1625.00,94.74
1624.00,94.76
1623.00,94.79
1622.00,94.82
1621.00,94.85
1620.00,94.88
1619.00,94.91
1618.00,94.95
1617.00,95.00
1616.00,95.05
1615.00,95.09
1614.00,95.11
1613.00,95.12
1612.00,95.15
1611.00,95.18
1610.00,95.23
1609.00,95.27
1608.00,95.31
1607.00,95.34
1606.00,95.36
1605.00,95.38
1604.00,95.41
1603.00,95.43
1602.00,95.45
1601.00,95.46
1600.00,95.47
1599.00,95.49
1598.00,95.51
1597.00,95.55
1596.00,95.58
1595.00,95.61
1594.00,95.63
1593.00,95.65
1592.00,95.66
1591.00,95.66
1590.00,95.66
1589.00,95.67
1588.00,95.67
1587.00,95.68
1586.00,95.71
1585.00,95.75
1584.00,95.79
1583.00,95.81
1582.00,95.83
1581.00,95.83
1580.00,95.84
1579.00,95.86
1578.00,95.89
1577.00,95.92
1576.00,95.93
1575.00,95.93
1574.00,95.93
1573.00,95.93
1572.00,95.93
1571.00,95.94
1570.00,95.95
1569.00,95.96
1568.00,95.98
1567.00,95.99
1566.00,96.01
1565.00,96.03
1564.00,96.04
1563.00,96.05
1562.00,96.05
1561.00,96.05
1560.00,96.04
1559.00,96.02
1558.00,96.00
1557.00,95.98
1556.00,95.98
1555.00,95.99
1554.00,96.00
1553.00,96.01
1552.00,96.00
1551.00,95.99
1550.00,96.00
1549.00,96.01
1548.00,96.01
1547.00,95.99
1546.00,95.97
1545.00,95.96
1544.00,95.96
1543.00,95.99
1542.00,96.04
1541.00,96.07
1540.00,96.07
1539.00,96.06
1538.00,96.05
1537.00,96.05
1536.00,96.04
1535.00,96.03
1534.00,96.03
1533.00,96.04
1532.00,96.06
1531.00,96.08
1530.00,96.08
1529.00,96.08
1528.00,96.07
1527.00,96.09
1526.00,96.12
1525.00,96.15
1524.00,96.17
1523.00,96.18
1522.00,96.20
1521.00,96.21
1520.00,96.20
1519.00,96.18
1518.00,96.15
1517.00,96.14
1516.00,96.15
1515.00,96.16
1514.00,96.17
1513.00,96.17
1512.00,96.16
1511.00,96.16
1510.00,96.16
1509.00,96.15
1508.00,96.14
1507.00,96.11
1506.00,96.09
1505.00,96.07
1504.00,96.06
1503.00,96.05
1502.00,96.05
1501.00,96.04
1500.00,96.03
1499.00,96.02
1498.00,96.00
1497.00,95.98
1496.00,95.94
1495.00,95.91
1494.00,95.90
1493.00,95.88
1492.00,95.85
1491.00,95.82
1490.00,95.78
1489.00,95.74
1488.00,95.69
1487.00,95.65
1486.00,95.59
1485.00,95.53
1484.00,95.47
1483.00,95.40
1482.00,95.33
1481.00,95.26
1480.00,95.20
1479.00,95.14
1478.00,95.07
1477.00,95.00
1476.00,94.91
1475.00,94.82
1474.00,94.72
1473.00,94.61
1472.00,94.52
1471.00,94.45
1470.00,94.38
1469.00,94.29
1468.00,94.19
1467.00,94.10
1466.00,94.05
1465.00,94.03
1464.00,94.02
1463.00,94.00
1462.00,93.97
1461.00,93.93
1460.00,93.89
1459.00,93.84
1458.00,93.79
1457.00,93.74
1456.00,93.68
1455.00,93.65
1454.00,93.61
1453.00,93.56
1452.00,93.52
1451.00,93.46
1450.00,93.41
1449.00,93.35
1448.00,93.29
1447.00,93.25
1446.00,93.21
1445.00,93.18
1444.00,93.15
1443.00,93.12
1442.00,93.09
1441.00,93.06
1440.00,93.02
1439.00,92.98
1438.00,92.94
1437.00,92.89
1436.00,92.85
1435.00,92.83
1434.00,92.82
1433.00,92.81
1432.00,92.79
1431.00,92.79
1430.00,92.78
1429.00,92.78
1428.00,92.76
1427.00,92.74
1426.00,92.72
1425.00,92.69
1424.00,92.67
1423.00,92.66
1422.00,92.64
1421.00,92.63
1420.00,92.63
1419.00,92.63
1418.00,92.64
1417.00,92.63
1416.00,92.63
1415.00,92.63
1414.00,92.64
1413.00,92.66
1412.00,92.68
1411.00,92.70
1410.00,92.72
1409.00,92.74
1408.00,92.75
1407.00,92.76
1406.00,92.75
1405.00,92.74
1404.00,92.74
1403.00,92.74
1402.00,92.76
1401.00,92.76
1400.00,92.75
1399.00,92.73
1398.00,92.71
1397.00,92.69
1396.00,92.68
1395.00,92.66
1394.00,92.65
1393.00,92.64
1392.00,92.62
1391.00,92.59
1390.00,92.55
1389.00,92.50
1388.00,92.44
1387.00,92.37
1386.00,92.29
1385.00,92.20
1384.00,92.09
1383.00,91.97
1382.00,91.84
1381.00,91.70
1380.00,91.56
1379.00,91.43
1378.00,91.31
1377.00,91.20
1376.00,91.10
1375.00,91.00
1374.00,90.90
1373.00,90.82
1372.00,90.76
1371.00,90.71
1370.00,90.68
1369.00,90.64
1368.00,90.61
1367.00,90.59
1366.00,90.59
1365.00,90.59
1364.00,90.60
1363.00,90.63
1362.00,90.68
1361.00,90.75
1360.00,90.83
1359.00,90.90
1358.00,90.98
1357.00,91.06
1356.00,91.13
1355.00,91.20
1354.00,91.26
1353.00,91.30
1352.00,91.32
1351.00,91.34
1350.00,91.37
1349.00,91.40
1348.00,91.43
1347.00,91.44
1346.00,91.44
1345.00,91.43
1344.00,91.42
1343.00,91.40
1342.00,91.37
1341.00,91.34
1340.00,91.31
1339.00,91.28
1338.00,91.25
1337.00,91.22
1336.00,91.20
1335.00,91.19
1334.00,91.20
1333.00,91.21
1332.00,91.21
1331.00,91.22
1330.00,91.22
1329.00,91.22
1328.00,91.22
1327.00,91.22
1326.00,91.22
1325.00,91.23
1324.00,91.22
1323.00,91.21
1322.00,91.17
1321.00,91.11
1320.00,91.03
1319.00,90.95
1318.00,90.86
1317.00,90.80
1316.00,90.76
1315.00,90.75
1314.00,90.77
1313.00,90.79
1312.00,90.82
1311.00,90.87
1310.00,90.94
1309.00,91.02
1308.00,91.11
1307.00,91.20
1306.00,91.29
1305.00,91.37
1304.00,91.45
1303.00,91.53
1302.00,91.61
1301.00,91.69
1300.00,91.76
1299.00,91.84
1298.00,91.91
1297.00,91.97
1296.00,92.04
1295.00,92.12
1294.00,92.21
1293.00,92.31
1292.00,92.40
1291.00,92.48
1290.00,92.56
1289.00,92.65
1288.00,92.73
1287.00,92.80
1286.00,92.85
1285.00,92.87
1284.00,92.87
1283.00,92.86
1282.00,92.83
1281.00,92.78
1280.00,92.73
1279.00,92.68
1278.00,92.65
1277.00,92.64
1276.00,92.65
1275.00,92.67
1274.00,92.68
1273.00,92.67
1272.00,92.65
1271.00,92.63
1270.00,92.62
1269.00,92.60
1268.00,92.57
1267.00,92.53
1266.00,92.50
1265.00,92.47
1264.00,92.45
1263.00,92.44
1262.00,92.43
1261.00,92.44
1260.00,92.46
1259.00,92.49
1258.00,92.54
1257.00,92.59
1256.00,92.66
1255.00,92.73
1254.00,92.80
1253.00,92.88
1252.00,92.95
1251.00,93.01
1250.00,93.05
1249.00,93.07
1248.00,93.08
1247.00,93.08
1246.00,93.08
1245.00,93.10
1244.00,93.13
1243.00,93.16
1242.00,93.18
1241.00,93.18
1240.00,93.16
1239.00,93.14
1238.00,93.13
1237.00,93.12
1236.00,93.11
1235.00,93.10
1234.00,93.11
1233.00,93.13
1232.00,93.15
1231.00,93.18
1230.00,93.22
1229.00,93.26
1228.00,93.31
1227.00,93.36
1226.00,93.42
1225.00,93.48
1224.00,93.57
1223.00,93.67
1222.00,93.76
1221.00,93.85
1220.00,93.93
1219.00,93.99
1218.00,94.05
1217.00,94.12
1216.00,94.18
1215.00,94.23
1214.00,94.26
1213.00,94.26
1212.00,94.25
1211.00,94.22
1210.00,94.16
1209.00,94.08
1208.00,93.99
1207.00,93.89
1206.00,93.79
1205.00,93.69
1204.00,93.60
1203.00,93.52
1202.00,93.46
1201.00,93.42
1200.00,93.41
1199.00,93.41
1198.00,93.43
1197.00,93.46
1196.00,93.53
1195.00,93.63
1194.00,93.77
1193.00,93.91
1192.00,94.05
1191.00,94.18
1190.00,94.31
1189.00,94.42
1188.00,94.52
1187.00,94.58
1186.00,94.59
1185.00,94.58
1184.00,94.55
1183.00,94.51
1182.00,94.46
1181.00,94.39
1180.00,94.30
1179.00,94.19
1178.00,94.07
1177.00,93.92
1176.00,93.76
1175.00,93.59
1174.00,93.40
1173.00,93.17
1172.00,92.91
1171.00,92.64
1170.00,92.34
1169.00,92.04
1168.00,91.71
1167.00,91.38
1166.00,91.02
1165.00,90.65
1164.00,90.27
1163.00,89.93
1162.00,89.61
1161.00,89.32
1160.00,89.07
1159.00,88.85
1158.00,88.70
1157.00,88.62
1156.00,88.58
1155.00,88.59
1154.00,88.65
1153.00,88.74
1152.00,88.86
1151.00,89.00
1150.00,89.15
1149.00,89.31
1148.00,89.48
1147.00,89.66
1146.00,89.84
1145.00,90.00
1144.00,90.13
1143.00,90.23
1142.00,90.31
1141.00,90.35
1140.00,90.36
1139.00,90.33
1138.00,90.27
1137.00,90.17
1136.00,90.04
1135.00,89.89
1134.00,89.71
1133.00,89.51
1132.00,89.29
1131.00,89.07
1130.00,88.85
1129.00,88.63
1128.00,88.41
1127.00,88.17
1126.00,87.94
1125.00,87.69
1124.00,87.43
1123.00,87.18
1122.00,86.93
1121.00,86.67
1120.00,86.42
1119.00,86.17
1118.00,85.94
1117.00,85.71
1116.00,85.50
1115.00,85.30
1114.00,85.11
1113.00,84.91
1112.00,84.73
1111.00,84.58
1110.00,84.47
1109.00,84.38
1108.00,84.29
1107.00,84.21
1106.00,84.11
1105.00,83.99
1104.00,83.84
1103.00,83.67
1102.00,83.50
1101.00,83.32
1100.00,83.11
1099.00,82.90
1098.00,82.69
1097.00,82.49
1096.00,82.32
1095.00,82.18
1094.00,82.06
1093.00,81.97
1092.00,81.87
1091.00,81.75
1090.00,81.62
1089.00,81.49
1088.00,81.36
1087.00,81.23
1086.00,81.09
1085.00,80.93
1084.00,80.78
1083.00,80.60
1082.00,80.40
1081.00,80.17
1080.00,79.92
1079.00,79.67
1078.00,79.43
1077.00,79.19
1076.00,78.94
1075.00,78.69
1074.00,78.44
1073.00,78.19
1072.00,77.95
1071.00,77.71
1070.00,77.48
1069.00,77.23
1068.00,76.96
1067.00,76.67
1066.00,76.37
1065.00,76.09
1064.00,75.83
1063.00,75.60
1062.00,75.38
1061.00,75.14
1060.00,74.90
1059.00,74.70
1058.00,74.54
1057.00,74.41
1056.00,74.28
1055.00,74.17
1054.00,74.07
1053.00,73.99
1052.00,73.92
1051.00,73.85
1050.00,73.78
1049.00,73.71
1048.00,73.64
1047.00,73.59
1046.00,73.54
1045.00,73.47
1044.00,73.39
1043.00,73.31
1042.00,73.24
1041.00,73.17
1040.00,73.11
1039.00,73.04
1038.00,72.97
1037.00,72.87
1036.00,72.75
1035.00,72.61
1034.00,72.45
1033.00,72.27
1032.00,72.06
1031.00,71.84
1030.00,71.60
1029.00,71.37
1028.00,71.14
1027.00,70.92
1026.00,70.72
1025.00,70.54
1024.00,70.37
1023.00,70.20
1022.00,70.04
1021.00,69.89
1020.00,69.77
1019.00,69.70
1018.00,69.67
1017.00,69.68
1016.00,69.72
1015.00,69.81
1014.00,69.93
1013.00,70.07
1012.00,70.24
1011.00,70.44
1010.00,70.67
1009.00,70.90
1008.00,71.10
1007.00,71.28
1006.00,71.44
1005.00,71.57
1004.00,71.67
1003.00,71.74
1002.00,71.76
1001.00,71.74
1000.00,71.67
999.00,71.60
998.00,71.52
997.00,71.43
996.00,71.34
995.00,71.29
994.00,71.28
993.00,71.31
992.00,71.38
991.00,71.52
990.00,71.73
989.00,72.00
988.00,72.32
987.00,72.69
986.00,73.09
985.00,73.53
984.00,73.99
983.00,74.47
982.00,74.96
981.00,75.45
980.00,75.95
979.00,76.43
978.00,76.90
977.00,77.32
976.00,77.70
975.00,78.05
974.00,78.38
973.00,78.69
972.00,78.97
971.00,79.22
970.00,79.45
969.00,79.66
968.00,79.87
967.00,80.09
966.00,80.30
965.00,80.49
964.00,80.67
963.00,80.86
962.00,81.06
961.00,81.28
960.00,81.51
959.00,81.74
958.00,81.96
957.00,82.17
956.00,82.37
955.00,82.59
954.00,82.84
953.00,83.08
952.00,83.32
951.00,83.53
950.00,83.75
949.00,83.97
948.00,84.18
947.00,84.38
946.00,84.56
945.00,84.72
944.00,84.87
943.00,85.01
942.00,85.15
941.00,85.28
940.00,85.40
939.00,85.51
938.00,85.62
937.00,85.72
936.00,85.83
935.00,85.92
934.00,86.02
933.00,86.13
932.00,86.24
931.00,86.35
930.00,86.44
929.00,86.51
928.00,86.57
927.00,86.65
926.00,86.74
925.00,86.83
924.00,86.91
923.00,87.01
922.00,87.11
921.00,87.22
920.00,87.31
919.00,87.38
918.00,87.41
917.00,87.43
916.00,87.45
915.00,87.47
914.00,87.47
913.00,87.45
912.00,87.40
911.00,87.35
910.00,87.27
909.00,87.17
908.00,87.05
907.00,86.91
906.00,86.77
905.00,86.60
904.00,86.42
903.00,86.23
902.00,86.04
901.00,85.87
900.00,85.70
899.00,85.54
898.00,85.39
897.00,85.26
896.00,85.17
895.00,85.13
894.00,85.12
893.00,85.13
892.00,85.18
891.00,85.27
890.00,85.42
889.00,85.62
888.00,85.84
887.00,86.06
886.00,86.29
885.00,86.51
884.00,86.74
883.00,86.98
882.00,87.21
881.00,87.41
880.00,87.57
879.00,87.72
878.00,87.87
877.00,88.03
876.00,88.18
875.00,88.31
874.00,88.43
873.00,88.53
872.00,88.64
871.00,88.75
870.00,88.84
869.00,88.92
868.00,89.00
867.00,89.10
866.00,89.19
865.00,89.28
864.00,89.36
863.00,89.42
862.00,89.46
861.00,89.49
860.00,89.52
859.00,89.54
858.00,89.58
857.00,89.61
856.00,89.62
855.00,89.60
854.00,89.56
853.00,89.53
852.00,89.56
851.00,89.63
850.00,89.70
849.00,89.73
848.00,89.73
847.00,89.72
846.00,89.72
845.00,89.72
844.00,89.71
843.00,89.68
842.00,89.66
841.00,89.65
840.00,89.67
839.00,89.70
838.00,89.73
837.00,89.73
836.00,89.71
835.00,89.69
834.00,89.69
833.00,89.71
832.00,89.73
831.00,89.76
830.00,89.79
829.00,89.81
828.00,89.80
827.00,89.77
826.00,89.74
825.00,89.73
824.00,89.73
823.00,89.71
822.00,89.66
821.00,89.63
820.00,89.61
819.00,89.61
818.00,89.61
817.00,89.60
816.00,89.60
815.00,89.61
814.00,89.63
813.00,89.65
812.00,89.67
811.00,89.68
810.00,89.66
809.00,89.61
808.00,89.57
807.00,89.56
806.00,89.56
805.00,89.55
804.00,89.51
803.00,89.48
802.00,89.46
801.00,89.44
800.00,89.42
799.00,89.39
798.00,89.37
797.00,89.36
796.00,89.34
795.00,89.34
794.00,89.33
793.00,89.31
792.00,89.29
791.00,89.27
790.00,89.25
789.00,89.23
788.00,89.21
787.00,89.20
786.00,89.20
785.00,89.20
784.00,89.20
783.00,89.17
782.00,89.13
781.00,89.07
780.00,89.03
779.00,89.00
778.00,88.97
777.00,88.92
776.00,88.87
775.00,88.84
774.00,88.83
773.00,88.81
772.00,88.78
771.00,88.73
770.00,88.70
769.00,88.68
768.00,88.66
767.00,88.64
766.00,88.60
765.00,88.56
764.00,88.52
763.00,88.49
762.00,88.45
761.00,88.40
760.00,88.33
759.00,88.27
758.00,88.24
757.00,88.23
756.00,88.21
755.00,88.19
754.00,88.16
753.00,88.13
752.00,88.08
751.00,88.03
750.00,87.99
749.00,87.94
748.00,87.89
747.00,87.83
746.00,87.79
745.00,87.75
744.00,87.72
743.00,87.72
742.00,87.74
741.00,87.76
740.00,87.74
739.00,87.68
738.00,87.61
737.00,87.53
736.00,87.44
735.00,87.34
734.00,87.25
733.00,87.19
732.00,87.17
731.00,87.15
730.00,87.12
729.00,87.06
728.00,87.00
727.00,86.95
726.00,86.92
725.00,86.87
724.00,86.80
723.00,86.71
722.00,86.61
721.00,86.51
720.00,86.41
719.00,86.33
718.00,86.28
717.00,86.27
716.00,86.26
715.00,86.23
714.00,86.18
713.00,86.14
712.00,86.11
711.00,86.11
710.00,86.11
709.00,86.11
708.00,86.10
707.00,86.07
706.00,86.02
705.00,85.96
704.00,85.90
703.00,85.85
702.00,85.83
701.00,85.81
700.00,85.78
699.00,85.76
698.00,85.74
697.00,85.72
696.00,85.72
695.00,85.72
694.00,85.71
693.00,85.68
692.00,85.67
691.00,85.68
690.00,85.70
689.00,85.67
688.00,85.61
687.00,85.55
686.00,85.52
685.00,85.50
684.00,85.44
683.00,85.36
682.00,85.27
681.00,85.13
680.00,84.91
679.00,84.60
678.00,84.21
677.00,83.80
676.00,83.40
675.00,83.06
674.00,82.72
673.00,82.38
672.00,82.06
671.00,81.83
670.00,81.70
669.00,81.59
668.00,81.36
667.00,81.11
666.00,80.98
665.00,80.94
664.00,80.91
663.00,80.90
662.00,80.91
661.00,80.96
660.00,81.03
659.00,81.08
658.00,81.11
657.00,81.09
656.00,81.06
655.00,81.07
654.00,81.15
653.00,81.26
652.00,81.33
651.00,81.36
650.00,81.33
649.00,81.24
648.00,81.11
647.00,80.99
646.00,80.91
645.00,80.87
644.00,80.80
643.00,80.67
642.00,80.50
641.00,80.40
640.00,80.41
639.00,80.52
638.00,80.62
637.00,80.64
636.00,80.59
635.00,80.52
634.00,80.49
633.00,80.51
632.00,80.56
631.00,80.61
630.00,80.59
629.00,80.48
628.00,80.32
627.00,80.18
626.00,80.05
625.00,79.93
624.00,79.84
623.00,79.83
622.00,79.79
621.00,79.62
620.00,79.45
619.00,79.54
618.00,79.89
617.00,80.14
616.00,80.01
615.00,79.66
614.00,79.35
613.00,79.14
612.00,78.86
611.00,78.49
610.00,78.13
609.00,77.91
608.00,77.86
607.00,77.92
606.00,78.00
605.00,77.98
604.00,77.88
603.00,77.86
602.00,78.02
601.00,78.23
600.00,78.28
599.00,78.05
598.00,77.71
597.00,77.50
596.00,77.56
595.00,77.81
594.00,78.05
593.00,78.08
592.00,77.84
591.00,77.41
590.00,76.94
589.00,76.63
588.00,76.65
587.00,76.95
586.00,77.26
585.00,77.36
584.00,77.29
583.00,77.16
582.00,76.90
581.00,76.49
580.00,76.19
579.00,76.33
578.00,76.79
577.00,77.14
576.00,77.26
575.00,77.34
574.00,77.33
573.00,76.88
572.00,76.09
571.00,75.53
570.00,75.57
569.00,75.78
568.00,75.59
567.00,74.99
566.00,74.39
565.00,74.11
564.00,74.19
563.00,74.52
562.00,74.92
561.00,75.28
560.00,75.67
559.00,76.21
558.00,76.67
557.00,76.67
556.00,76.19
555.00,75.74
554.00,75.74
553.00,76.06
552.00,76.29
551.00,76.21
550.00,75.87
