Created as New Dataset,196 FMC American Viscose
cm-1,%T
4000.00,100.43
3999.00,100.44
3998.00,100.45
3997.00,100.46
3996.00,100.46
3995.00,100.45
3994.00,100.44
3993.00,100.43
3992.00,100.43
3991.00,100.43
3990.00,100.43
3989.00,100.41
3988.00,100.39
3987.00,100.36
3986.00,100.35
3985.00,100.36
3984.00,100.37
3983.00,100.39
3982.00,100.40
3981.00,100.41
3980.00,100.41
3979.00,100.40
3978.00,100.40
3977.00,100.40
3976.00,100.41
3975.00,100.41
3974.00,100.42
3973.00,100.42
3972.00,100.42
3971.00,100.42
3970.00,100.42
3969.00,100.41
3968.00,100.39
3967.00,100.38
3966.00,100.36
3965.00,100.35
3964.00,100.35
3963.00,100.37
3962.00,100.39
3961.00,100.40
3960.00,100.40
3959.00,100.40
3958.00,100.40
3957.00,100.41
3956.00,100.41
3955.00,100.41
3954.00,100.41
3953.00,100.40
3952.00,100.39
3951.00,100.39
3950.00,100.38
3949.00,100.37
3948.00,100.37
3947.00,100.37
3946.00,100.37
3945.00,100.38
3944.00,100.39
3943.00,100.40
3942.00,100.40
3941.00,100.41
3940.00,100.41
3939.00,100.42
3938.00,100.41
3937.00,100.39
3936.00,100.36
3935.00,100.35
3934.00,100.35
3933.00,100.37
3932.00,100.39
3931.00,100.40
3930.00,100.39
3929.00,100.36
3928.00,100.33
3927.00,100.32
3926.00,100.32
3925.00,100.33
3924.00,100.34
3923.00,100.35
3922.00,100.36
3921.00,100.38
3920.00,100.39
3919.00,100.39
3918.00,100.39
3917.00,100.38
3916.00,100.37
3915.00,100.35
3914.00,100.35
3913.00,100.35
3912.00,100.35
3911.00,100.35
3910.00,100.35
3909.00,100.36
3908.00,100.37
3907.00,100.37
3906.00,100.37
3905.00,100.36
3904.00,100.36
3903.00,100.35
3902.00,100.36
3901.00,100.38
3900.00,100.41
3899.00,100.43
3898.00,100.42
3897.00,100.41
3896.00,100.39
3895.00,100.37
3894.00,100.36
3893.00,100.36
3892.00,100.36
3891.00,100.37
3890.00,100.39
3889.00,100.40
3888.00,100.42
3887.00,100.43
3886.00,100.41
3885.00,100.38
3884.00,100.36
3883.00,100.35
3882.00,100.35
3881.00,100.35
3880.00,100.35
3879.00,100.34
3878.00,100.34
3877.00,100.35
3876.00,100.35
3875.00,100.35
3874.00,100.35
3873.00,100.34
3872.00,100.34
3871.00,100.33
3870.00,100.32
3869.00,100.31
3868.00,100.31
3867.00,100.31
3866.00,100.31
3865.00,100.31
3864.00,100.31
3863.00,100.32
3862.00,100.32
3861.00,100.33
3860.00,100.33
3859.00,100.33
3858.00,100.32
3857.00,100.31
3856.00,100.33
3855.00,100.35
3854.00,100.36
3853.00,100.36
3852.00,100.36
3851.00,100.39
3850.00,100.41
3849.00,100.43
3848.00,100.42
3847.00,100.40
3846.00,100.37
3845.00,100.35
3844.00,100.34
3843.00,100.33
3842.00,100.32
3841.00,100.31
3840.00,100.31
3839.00,100.31
3838.00,100.33
3837.00,100.35
3836.00,100.36
3835.00,100.37
3834.00,100.37
3833.00,100.38
3832.00,100.39
3831.00,100.38
3830.00,100.36
3829.00,100.34
3828.00,100.32
3827.00,100.30
3826.00,100.28
3825.00,100.27
3824.00,100.27
3823.00,100.30
3822.00,100.33
3821.00,100.35
3820.00,100.33
3819.00,100.30
3818.00,100.28
3817.00,100.28
3816.00,100.30
3815.00,100.33
3814.00,100.35
3813.00,100.36
3812.00,100.36
3811.00,100.34
3810.00,100.33
3809.00,100.33
3808.00,100.33
3807.00,100.33
3806.00,100.30
3805.00,100.28
3804.00,100.27
3803.00,100.28
3802.00,100.29
3801.00,100.30
3800.00,100.30
3799.00,100.32
3798.00,100.34
3797.00,100.36
3796.00,100.37
3795.00,100.37
3794.00,100.36
3793.00,100.36
3792.00,100.35
3791.00,100.33
3790.00,100.30
3789.00,100.28
3788.00,100.27
3787.00,100.29
3786.00,100.32
3785.00,100.34
3784.00,100.35
3783.00,100.35
3782.00,100.34
3781.00,100.34
3780.00,100.33
3779.00,100.34
3778.00,100.34
3777.00,100.35
3776.00,100.35
3775.00,100.33
3774.00,100.31
3773.00,100.31
3772.00,100.31
3771.00,100.32
3770.00,100.30
3769.00,100.28
3768.00,100.27
3767.00,100.28
3766.00,100.32
3765.00,100.36
3764.00,100.37
3763.00,100.36
3762.00,100.34
3761.00,100.31
3760.00,100.30
3759.00,100.30
3758.00,100.30
3757.00,100.30
3756.00,100.30
3755.00,100.28
3754.00,100.26
3753.00,100.24
3752.00,100.23
3751.00,100.22
3750.00,100.20
3749.00,100.17
3748.00,100.15
3747.00,100.15
3746.00,100.17
3745.00,100.18
3744.00,100.18
3743.00,100.19
3742.00,100.21
3741.00,100.24
3740.00,100.26
3739.00,100.26
3738.00,100.23
3737.00,100.18
3736.00,100.12
3735.00,100.09
3734.00,100.10
3733.00,100.13
3732.00,100.17
3731.00,100.19
3730.00,100.21
3729.00,100.22
3728.00,100.22
3727.00,100.21
3726.00,100.21
3725.00,100.21
3724.00,100.23
3723.00,100.26
3722.00,100.28
3721.00,100.28
3720.00,100.28
3719.00,100.26
3718.00,100.24
3717.00,100.22
3716.00,100.21
3715.00,100.19
3714.00,100.19
3713.00,100.19
3712.00,100.19
3711.00,100.18
3710.00,100.18
3709.00,100.19
3708.00,100.20
3707.00,100.21
3706.00,100.21
3705.00,100.21
3704.00,100.21
3703.00,100.20
3702.00,100.18
3701.00,100.16
3700.00,100.14
3699.00,100.13
3698.00,100.14
3697.00,100.16
3696.00,100.18
3695.00,100.17
3694.00,100.15
3693.00,100.13
3692.00,100.10
3691.00,100.09
3690.00,100.10
3689.00,100.11
3688.00,100.13
3687.00,100.15
3686.00,100.17
3685.00,100.19
3684.00,100.20
3683.00,100.20
3682.00,100.20
3681.00,100.18
3680.00,100.14
3679.00,100.08
3678.00,100.03
3677.00,100.01
3676.00,100.02
3675.00,100.05
3674.00,100.06
3673.00,100.05
3672.00,100.04
3671.00,100.04
3670.00,100.05
3669.00,100.06
3668.00,100.07
3667.00,100.07
3666.00,100.06
3665.00,100.06
3664.00,100.06
3663.00,100.05
3662.00,100.04
3661.00,100.02
3660.00,99.98
3659.00,99.94
3658.00,99.91
3657.00,99.89
3656.00,99.88
3655.00,99.88
3654.00,99.88
3653.00,99.90
3652.00,99.92
3651.00,99.93
3650.00,99.91
3649.00,99.86
3648.00,99.81
3647.00,99.78
3646.00,99.77
3645.00,99.76
3644.00,99.77
3643.00,99.77
3642.00,99.78
3641.00,99.77
3640.00,99.76
3639.00,99.75
3638.00,99.76
3637.00,99.78
3636.00,99.80
3635.00,99.79
3634.00,99.74
3633.00,99.67
3632.00,99.61
3631.00,99.59
3630.00,99.59
3629.00,99.59
3628.00,99.57
3627.00,99.55
3626.00,99.53
3625.00,99.52
3624.00,99.51
3623.00,99.50
3622.00,99.49
3621.00,99.49
3620.00,99.48
3619.00,99.46
3618.00,99.45
3617.00,99.43
3616.00,99.41
3615.00,99.38
3614.00,99.35
3613.00,99.31
3612.00,99.28
3611.00,99.25
3610.00,99.24
3609.00,99.23
3608.00,99.23
3607.00,99.23
3606.00,99.22
3605.00,99.21
3604.00,99.19
3603.00,99.17
3602.00,99.15
3601.00,99.11
3600.00,99.06
3599.00,99.01
3598.00,98.97
3597.00,98.95
3596.00,98.93
3595.00,98.92
3594.00,98.92
3593.00,98.91
3592.00,98.89
3591.00,98.86
3590.00,98.83
3589.00,98.79
3588.00,98.75
3587.00,98.73
3586.00,98.72
3585.00,98.72
3584.00,98.72
3583.00,98.70
3582.00,98.66
3581.00,98.62
3580.00,98.57
3579.00,98.54
3578.00,98.51
3577.00,98.48
3576.00,98.45
3575.00,98.43
3574.00,98.43
3573.00,98.41
3572.00,98.39
3571.00,98.35
3570.00,98.30
3569.00,98.27
3568.00,98.24
3567.00,98.20
3566.00,98.16
3565.00,98.11
3564.00,98.07
3563.00,98.04
3562.00,98.02
3561.00,98.01
3560.00,98.01
3559.00,97.99
3558.00,97.95
3557.00,97.89
3556.00,97.83
3555.00,97.78
3554.00,97.74
3553.00,97.72
3552.00,97.68
3551.00,97.64
3550.00,97.60
3549.00,97.56
3548.00,97.52
3547.00,97.48
3546.00,97.45
3545.00,97.41
3544.00,97.39
3543.00,97.37
3542.00,97.35
3541.00,97.32
3540.00,97.30
3539.00,97.28
3538.00,97.26
3537.00,97.22
3536.00,97.18
3535.00,97.13
3534.00,97.08
3533.00,97.04
3532.00,97.01
3531.00,96.98
3530.00,96.95
3529.00,96.92
3528.00,96.88
3527.00,96.83
3526.00,96.79
3525.00,96.74
3524.00,96.70
3523.00,96.67
3522.00,96.64
3521.00,96.61
3520.00,96.58
3519.00,96.54
3518.00,96.50
3517.00,96.45
3516.00,96.40
3515.00,96.35
3514.00,96.29
3513.00,96.23
3512.00,96.16
3511.00,96.10
3510.00,96.04
3509.00,95.98
3508.00,95.93
3507.00,95.88
3506.00,95.84
3505.00,95.79
3504.00,95.74
3503.00,95.68
3502.00,95.61
3501.00,95.55
3500.00,95.50
3499.00,95.45
3498.00,95.40
3497.00,95.34
3496.00,95.28
3495.00,95.23
3494.00,95.18
3493.00,95.13
3492.00,95.07
3491.00,95.00
3490.00,94.93
3489.00,94.86
3488.00,94.81
3487.00,94.77
3486.00,94.73
3485.00,94.69
3484.00,94.66
3483.00,94.63
3482.00,94.61
3481.00,94.60
3480.00,94.60
3479.00,94.60
3478.00,94.57
3477.00,94.54
3476.00,94.50
3475.00,94.46
3474.00,94.43
3473.00,94.40
3472.00,94.38
3471.00,94.36
3470.00,94.33
3469.00,94.29
3468.00,94.24
3467.00,94.19
3466.00,94.12
3465.00,94.06
3464.00,93.99
3463.00,93.94
3462.00,93.90
3461.00,93.87
3460.00,93.84
3459.00,93.80
3458.00,93.75
3457.00,93.70
3456.00,93.65
3455.00,93.61
3454.00,93.56
3453.00,93.51
3452.00,93.45
3451.00,93.38
3450.00,93.31
3449.00,93.24
3448.00,93.18
3447.00,93.12
3446.00,93.07
3445.00,93.03
3444.00,92.99
3443.00,92.95
3442.00,92.91
3441.00,92.89
3440.00,92.88
3439.00,92.87
3438.00,92.86
3437.00,92.84
3436.00,92.82
3435.00,92.81
3434.00,92.79
3433.00,92.79
3432.00,92.78
3431.00,92.76
3430.00,92.75
3429.00,92.74
3428.00,92.73
3427.00,92.73
3426.00,92.72
3425.00,92.70
3424.00,92.67
3423.00,92.64
3422.00,92.62
3421.00,92.59
3420.00,92.56
3419.00,92.54
3418.00,92.54
3417.00,92.54
3416.00,92.54
3415.00,92.52
3414.00,92.49
3413.00,92.46
3412.00,92.44
3411.00,92.43
3410.00,92.41
3409.00,92.38
3408.00,92.35
3407.00,92.32
3406.00,92.31
3405.00,92.30
3404.00,92.29
3403.00,92.27
3402.00,92.24
3401.00,92.23
3400.00,92.22
3399.00,92.21
3398.00,92.20
3397.00,92.18
3396.00,92.16
3395.00,92.13
3394.00,92.11
3393.00,92.08
3392.00,92.06
3391.00,92.04
3390.00,92.03
3389.00,92.02
3388.00,92.00
3387.00,91.98
3386.00,91.95
3385.00,91.92
3384.00,91.91
3383.00,91.91
3382.00,91.91
3381.00,91.91
3380.00,91.90
3379.00,91.89
3378.00,91.88
3377.00,91.86
3376.00,91.83
3375.00,91.81
3374.00,91.79
3373.00,91.77
3372.00,91.76
3371.00,91.74
3370.00,91.73
3369.00,91.73
3368.00,91.73
3367.00,91.73
3366.00,91.72
3365.00,91.72
3364.00,91.70
3363.00,91.67
3362.00,91.63
3361.00,91.60
3360.00,91.59
3359.00,91.59
3358.00,91.58
3357.00,91.56
3356.00,91.55
3355.00,91.55
3354.00,91.56
3353.00,91.57
3352.00,91.57
3351.00,91.56
3350.00,91.56
3349.00,91.55
3348.00,91.54
3347.00,91.52
3346.00,91.49
3345.00,91.48
3344.00,91.48
3343.00,91.48
3342.00,91.47
3341.00,91.46
3340.00,91.44
3339.00,91.42
3338.00,91.42
3337.00,91.44
3336.00,91.46
3335.00,91.48
3334.00,91.47
3333.00,91.45
3332.00,91.44
3331.00,91.43
3330.00,91.43
3329.00,91.44
3328.00,91.46
3327.00,91.47
3326.00,91.50
3325.00,91.52
3324.00,91.53
3323.00,91.54
3322.00,91.55
3321.00,91.55
3320.00,91.55
3319.00,91.53
3318.00,91.51
3317.00,91.48
3316.00,91.47
3315.00,91.48
3314.00,91.51
3313.00,91.55
3312.00,91.56
3311.00,91.56
3310.00,91.54
3309.00,91.52
3308.00,91.51
3307.00,91.52
3306.00,91.53
3305.00,91.55
3304.00,91.56
3303.00,91.58
3302.00,91.59
3301.00,91.60
3300.00,91.61
3299.00,91.62
3298.00,91.63
3297.00,91.63
3296.00,91.63
3295.00,91.63
3294.00,91.64
3293.00,91.64
3292.00,91.64
3291.00,91.63
3290.00,91.62
3289.00,91.62
3288.00,91.62
3287.00,91.63
3286.00,91.64
3285.00,91.66
3284.00,91.67
3283.00,91.67
3282.00,91.66
3281.00,91.66
3280.00,91.68
3279.00,91.73
3278.00,91.79
3277.00,91.83
3276.00,91.86
3275.00,91.85
3274.00,91.84
3273.00,91.83
3272.00,91.82
3271.00,91.83
3270.00,91.84
3269.00,91.85
3268.00,91.86
3267.00,91.86
3266.00,91.87
3265.00,91.89
3264.00,91.92
3263.00,91.95
3262.00,91.96
3261.00,91.95
3260.00,91.94
3259.00,91.94
3258.00,91.96
3257.00,91.99
3256.00,92.01
3255.00,92.02
3254.00,92.03
3253.00,92.06
3252.00,92.11
3251.00,92.16
3250.00,92.20
3249.00,92.21
3248.00,92.22
3247.00,92.23
3246.00,92.23
3245.00,92.24
3244.00,92.24
3243.00,92.24
3242.00,92.25
3241.00,92.26
3240.00,92.27
3239.00,92.28
3238.00,92.30
3237.00,92.32
3236.00,92.36
3235.00,92.40
3234.00,92.43
3233.00,92.43
3232.00,92.42
3231.00,92.42
3230.00,92.43
3229.00,92.45
3228.00,92.47
3227.00,92.49
3226.00,92.52
3225.00,92.55
3224.00,92.58
3223.00,92.59
3222.00,92.59
3221.00,92.59
3220.00,92.61
3219.00,92.63
3218.00,92.65
3217.00,92.67
3216.00,92.68
3215.00,92.70
3214.00,92.73
3213.00,92.77
3212.00,92.80
3211.00,92.83
3210.00,92.85
3209.00,92.85
3208.00,92.85
3207.00,92.86
3206.00,92.88
3205.00,92.90
3204.00,92.94
3203.00,92.98
3202.00,93.03
3201.00,93.07
3200.00,93.10
3199.00,93.13
3198.00,93.15
3197.00,93.16
3196.00,93.19
3195.00,93.21
3194.00,93.23
3193.00,93.25
3192.00,93.27
3191.00,93.28
3190.00,93.30
3189.00,93.30
3188.00,93.31
3187.00,93.31
3186.00,93.33
3185.00,93.37
3184.00,93.41
3183.00,93.46
3182.00,93.51
3181.00,93.53
3180.00,93.54
3179.00,93.53
3178.00,93.52
3177.00,93.52
3176.00,93.54
3175.00,93.58
3174.00,93.62
3173.00,93.66
3172.00,93.68
3171.00,93.70
3170.00,93.71
3169.00,93.73
3168.00,93.76
3167.00,93.79
3166.00,93.81
3165.00,93.82
3164.00,93.82
3163.00,93.83
3162.00,93.86
3161.00,93.91
3160.00,93.95
3159.00,93.99
3158.00,94.03
3157.00,94.06
3156.00,94.08
3155.00,94.09
3154.00,94.10
3153.00,94.11
3152.00,94.14
3151.00,94.19
3150.00,94.23
3149.00,94.26
3148.00,94.28
3147.00,94.30
3146.00,94.32
3145.00,94.34
3144.00,94.37
3143.00,94.40
3142.00,94.44
3141.00,94.47
3140.00,94.51
3139.00,94.55
3138.00,94.58
3137.00,94.61
3136.00,94.63
3135.00,94.64
3134.00,94.66
3133.00,94.69
3132.00,94.73
3131.00,94.78
3130.00,94.83
3129.00,94.86
3128.00,94.89
3127.00,94.91
3126.00,94.93
3125.00,94.97
3124.00,95.00
3123.00,95.02
3122.00,95.04
3121.00,95.06
3120.00,95.09
3119.00,95.13
3118.00,95.15
3117.00,95.17
3116.00,95.18
3115.00,95.21
3114.00,95.24
3113.00,95.27
3112.00,95.31
3111.00,95.34
3110.00,95.36
3109.00,95.38
3108.00,95.41
3107.00,95.45
3106.00,95.50
3105.00,95.56
3104.00,95.61
3103.00,95.65
3102.00,95.68
3101.00,95.71
3100.00,95.73
3099.00,95.75
3098.00,95.77
3097.00,95.79
3096.00,95.81
3095.00,95.84
3094.00,95.87
3093.00,95.90
3092.00,95.94
3091.00,95.96
3090.00,95.99
3089.00,96.00
3088.00,96.03
3087.00,96.06
3086.00,96.08
3085.00,96.11
3084.00,96.15
3083.00,96.19
3082.00,96.23
3081.00,96.27
3080.00,96.30
3079.00,96.32
3078.00,96.35
3077.00,96.38
3076.00,96.40
3075.00,96.42
3074.00,96.44
3073.00,96.47
3072.00,96.50
3071.00,96.53
3070.00,96.54
3069.00,96.55
3068.00,96.56
3067.00,96.58
3066.00,96.61
3065.00,96.64
3064.00,96.67
3063.00,96.70
3062.00,96.71
3061.00,96.73
3060.00,96.76
3059.00,96.79
3058.00,96.81
3057.00,96.84
3056.00,96.86
3055.00,96.88
3054.00,96.90
3053.00,96.91
3052.00,96.94
3051.00,96.96
3050.00,96.98
3049.00,96.99
3048.00,97.01
3047.00,97.05
3046.00,97.10
3045.00,97.14
3044.00,97.17
3043.00,97.19
3042.00,97.20
3041.00,97.20
3040.00,97.21
3039.00,97.22
3038.00,97.25
3037.00,97.29
3036.00,97.32
3035.00,97.33
3034.00,97.34
3033.00,97.34
3032.00,97.35
3031.00,97.37
3030.00,97.39
3029.00,97.41
3028.00,97.42
3027.00,97.42
3026.00,97.43
3025.00,97.46
3024.00,97.49
3023.00,97.52
3022.00,97.54
3021.00,97.54
3020.00,97.54
3019.00,97.55
3018.00,97.57
3017.00,97.59
3016.00,97.61
3015.00,97.62
3014.00,97.63
3013.00,97.63
3012.00,97.64
3011.00,97.64
3010.00,97.65
3009.00,97.65
3008.00,97.66
3007.00,97.67
3006.00,97.68
3005.00,97.69
3004.00,97.71
3003.00,97.73
3002.00,97.75
3001.00,97.78
3000.00,97.79
2999.00,97.78
2998.00,97.78
2997.00,97.77
2996.00,97.77
2995.00,97.76
2994.00,97.76
2993.00,97.75
2992.00,97.75
2991.00,97.76
2990.00,97.78
2989.00,97.79
2988.00,97.78
2987.00,97.76
2986.00,97.74
2985.00,97.73
2984.00,97.71
2983.00,97.70
2982.00,97.69
2981.00,97.69
2980.00,97.68
2979.00,97.67
2978.00,97.66
2977.00,97.64
2976.00,97.61
2975.00,97.59
2974.00,97.57
2973.00,97.57
2972.00,97.56
2971.00,97.54
2970.00,97.50
2969.00,97.46
2968.00,97.43
2967.00,97.40
2966.00,97.39
2965.00,97.39
2964.00,97.38
2963.00,97.37
2962.00,97.34
2961.00,97.31
2960.00,97.27
2959.00,97.24
2958.00,97.21
2957.00,97.18
2956.00,97.15
2955.00,97.12
2954.00,97.09
2953.00,97.06
2952.00,97.04
2951.00,97.01
2950.00,96.99
2949.00,96.96
2948.00,96.91
2947.00,96.85
2946.00,96.81
2945.00,96.78
2944.00,96.76
2943.00,96.73
2942.00,96.69
2941.00,96.63
2940.00,96.56
2939.00,96.49
2938.00,96.42
2937.00,96.37
2936.00,96.32
2935.00,96.26
2934.00,96.21
2933.00,96.17
2932.00,96.14
2931.00,96.11
2930.00,96.07
2929.00,96.00
2928.00,95.94
2927.00,95.88
2926.00,95.83
2925.00,95.78
2924.00,95.75
2923.00,95.72
2922.00,95.68
2921.00,95.64
2920.00,95.58
2919.00,95.53
2918.00,95.50
2917.00,95.47
2916.00,95.45
2915.00,95.44
2914.00,95.44
2913.00,95.43
2912.00,95.42
2911.00,95.40
2910.00,95.39
2909.00,95.37
2908.00,95.34
2907.00,95.31
2906.00,95.28
2905.00,95.26
2904.00,95.27
2903.00,95.29
2902.00,95.30
2901.00,95.30
2900.00,95.28
2899.00,95.26
2898.00,95.23
2897.00,95.21
2896.00,95.19
2895.00,95.17
2894.00,95.15
2893.00,95.14
2892.00,95.14
2891.00,95.14
2890.00,95.15
2889.00,95.16
2888.00,95.17
2887.00,95.20
2886.00,95.23
2885.00,95.27
2884.00,95.31
2883.00,95.33
2882.00,95.35
2881.00,95.35
2880.00,95.36
2879.00,95.35
2878.00,95.35
2877.00,95.37
2876.00,95.39
2875.00,95.44
2874.00,95.49
2873.00,95.54
2872.00,95.59
2871.00,95.64
2870.00,95.68
2869.00,95.70
2868.00,95.72
2867.00,95.74
2866.00,95.77
2865.00,95.81
2864.00,95.85
2863.00,95.89
2862.00,95.95
2861.00,96.00
2860.00,96.06
2859.00,96.10
2858.00,96.13
2857.00,96.16
2856.00,96.18
2855.00,96.21
2854.00,96.23
2853.00,96.25
2852.00,96.28
2851.00,96.32
2850.00,96.38
2849.00,96.44
2848.00,96.52
2847.00,96.58
2846.00,96.64
2845.00,96.70
2844.00,96.74
2843.00,96.79
2842.00,96.83
2841.00,96.87
2840.00,96.92
2839.00,96.96
2838.00,96.99
2837.00,97.01
2836.00,97.03
2835.00,97.06
2834.00,97.09
2833.00,97.12
2832.00,97.16
2831.00,97.19
2830.00,97.21
2829.00,97.22
2828.00,97.24
2827.00,97.27
2826.00,97.29
2825.00,97.30
2824.00,97.32
2823.00,97.35
2822.00,97.38
2821.00,97.41
2820.00,97.42
2819.00,97.43
2818.00,97.45
2817.00,97.46
2816.00,97.47
2815.00,97.48
2814.00,97.49
2813.00,97.50
2812.00,97.51
2811.00,97.53
2810.00,97.54
2809.00,97.56
2808.00,97.59
2807.00,97.61
2806.00,97.62
2805.00,97.61
2804.00,97.60
2803.00,97.61
2802.00,97.63
2801.00,97.65
2800.00,97.68
2799.00,97.69
2798.00,97.69
2797.00,97.69
2796.00,97.69
2795.00,97.69
2794.00,97.70
2793.00,97.72
2792.00,97.75
2791.00,97.78
2790.00,97.80
2789.00,97.80
2788.00,97.80
2787.00,97.79
2786.00,97.79
2785.00,97.80
2784.00,97.81
2783.00,97.83
2782.00,97.85
2781.00,97.87
2780.00,97.88
2779.00,97.89
2778.00,97.88
2777.00,97.89
2776.00,97.90
2775.00,97.93
2774.00,97.95
2773.00,97.97
2772.00,97.97
2771.00,97.98
2770.00,97.99
2769.00,98.00
2768.00,98.00
2767.00,97.99
2766.00,97.99
2765.00,97.98
2764.00,97.99
2763.00,97.99
2762.00,98.01
2761.00,98.03
2760.00,98.04
2759.00,98.05
2758.00,98.05
2757.00,98.06
2756.00,98.07
2755.00,98.08
2754.00,98.08
2753.00,98.07
2752.00,98.06
2751.00,98.06
2750.00,98.07
2749.00,98.07
2748.00,98.07
2747.00,98.06
2746.00,98.06
2745.00,98.05
2744.00,98.06
2743.00,98.08
2742.00,98.09
2741.00,98.09
2740.00,98.09
2739.00,98.10
2738.00,98.11
2737.00,98.13
2736.00,98.14
2735.00,98.15
2734.00,98.14
2733.00,98.13
2732.00,98.12
2731.00,98.11
2730.00,98.11
2729.00,98.12
2728.00,98.12
2727.00,98.13
2726.00,98.13
2725.00,98.13
2724.00,98.12
2723.00,98.13
2722.00,98.13
2721.00,98.14
2720.00,98.15
2719.00,98.16
2718.00,98.17
2717.00,98.19
2716.00,98.20
2715.00,98.21
2714.00,98.21
2713.00,98.22
2712.00,98.22
2711.00,98.22
2710.00,98.22
2709.00,98.22
2708.00,98.22
2707.00,98.24
2706.00,98.25
2705.00,98.27
2704.00,98.27
2703.00,98.28
2702.00,98.28
2701.00,98.28
2700.00,98.28
2699.00,98.28
2698.00,98.28
2697.00,98.28
2696.00,98.28
2695.00,98.28
2694.00,98.28
2693.00,98.27
2692.00,98.26
2691.00,98.25
2690.00,98.26
2689.00,98.29
2688.00,98.32
2687.00,98.34
2686.00,98.35
2685.00,98.34
2684.00,98.32
2683.00,98.31
2682.00,98.31
2681.00,98.34
2680.00,98.36
2679.00,98.38
2678.00,98.38
2677.00,98.37
2676.00,98.36
2675.00,98.36
2674.00,98.37
2673.00,98.37
2672.00,98.38
2671.00,98.40
2670.00,98.41
2669.00,98.42
2668.00,98.42
2667.00,98.43
2666.00,98.43
2665.00,98.43
2664.00,98.44
2663.00,98.44
2662.00,98.45
2661.00,98.45
2660.00,98.44
2659.00,98.44
2658.00,98.44
2657.00,98.43
2656.00,98.43
2655.00,98.42
2654.00,98.41
2653.00,98.42
2652.00,98.44
2651.00,98.44
2650.00,98.44
2649.00,98.43
2648.00,98.41
2647.00,98.40
2646.00,98.39
2645.00,98.38
2644.00,98.37
2643.00,98.36
2642.00,98.37
2641.00,98.38
2640.00,98.39
2639.00,98.39
2638.00,98.37
2637.00,98.35
2636.00,98.32
2635.00,98.31
2634.00,98.31
2633.00,98.33
2632.00,98.34
2631.00,98.36
2630.00,98.37
2629.00,98.39
2628.00,98.40
2627.00,98.39
2626.00,98.38
2625.00,98.37
2624.00,98.35
2623.00,98.33
2622.00,98.32
2621.00,98.32
2620.00,98.32
2619.00,98.33
2618.00,98.34
2617.00,98.34
2616.00,98.35
2615.00,98.36
2614.00,98.36
2613.00,98.37
2612.00,98.38
2611.00,98.39
2610.00,98.40
2609.00,98.41
2608.00,98.42
2607.00,98.41
2606.00,98.39
2605.00,98.36
2604.00,98.34
2603.00,98.33
2602.00,98.32
2601.00,98.32
2600.00,98.32
2599.00,98.32
2598.00,98.33
2597.00,98.34
2596.00,98.35
2595.00,98.35
2594.00,98.34
2593.00,98.32
2592.00,98.32
2591.00,98.32
2590.00,98.33
2589.00,98.34
2588.00,98.34
2587.00,98.34
2586.00,98.34
2585.00,98.32
2584.00,98.32
2583.00,98.33
2582.00,98.35
2581.00,98.38
2580.00,98.39
2579.00,98.37
2578.00,98.34
2577.00,98.32
2576.00,98.32
2575.00,98.33
2574.00,98.33
2573.00,98.34
2572.00,98.36
2571.00,98.38
2570.00,98.39
2569.00,98.39
2568.00,98.37
2567.00,98.35
2566.00,98.33
2565.00,98.31
2564.00,98.31
2563.00,98.31
2562.00,98.31
2561.00,98.32
2560.00,98.34
2559.00,98.38
2558.00,98.41
2557.00,98.43
2556.00,98.44
2555.00,98.44
2554.00,98.44
2553.00,98.43
2552.00,98.41
2551.00,98.38
2550.00,98.35
2549.00,98.33
2548.00,98.33
2547.00,98.33
2546.00,98.32
2545.00,98.31
2544.00,98.30
2543.00,98.29
2542.00,98.28
2541.00,98.28
2540.00,98.29
2539.00,98.32
2538.00,98.34
2537.00,98.36
2536.00,98.38
2535.00,98.38
2534.00,98.38
2533.00,98.36
2532.00,98.34
2531.00,98.34
2530.00,98.35
2529.00,98.37
2528.00,98.40
2527.00,98.42
2526.00,98.42
2525.00,98.39
2524.00,98.35
2523.00,98.34
2522.00,98.35
2521.00,98.37
2520.00,98.38
2519.00,98.37
2518.00,98.35
2517.00,98.32
2516.00,98.30
2515.00,98.29
2514.00,98.31
2513.00,98.33
2512.00,98.34
2511.00,98.35
2510.00,98.35
2509.00,98.35
2508.00,98.35
2507.00,98.36
2506.00,98.38
2505.00,98.39
2504.00,98.39
2503.00,98.38
2502.00,98.38
2501.00,98.37
2500.00,98.38
2499.00,98.40
2498.00,98.42
2497.00,98.44
2496.00,98.44
2495.00,98.43
2494.00,98.43
2493.00,98.42
2492.00,98.43
2491.00,98.44
2490.00,98.45
2489.00,98.44
2488.00,98.43
2487.00,98.41
2486.00,98.40
2485.00,98.41
2484.00,98.42
2483.00,98.42
2482.00,98.43
2481.00,98.44
2480.00,98.44
2479.00,98.44
2478.00,98.43
2477.00,98.43
2476.00,98.43
2475.00,98.44
2474.00,98.46
2473.00,98.49
2472.00,98.51
2471.00,98.53
2470.00,98.52
2469.00,98.51
2468.00,98.49
2467.00,98.47
2466.00,98.46
2465.00,98.47
2464.00,98.50
2463.00,98.53
2462.00,98.55
2461.00,98.54
2460.00,98.52
2459.00,98.49
2458.00,98.46
2457.00,98.45
2456.00,98.44
2455.00,98.44
2454.00,98.45
2453.00,98.47
2452.00,98.49
2451.00,98.50
2450.00,98.51
2449.00,98.52
2448.00,98.55
2447.00,98.57
2446.00,98.57
2445.00,98.56
2444.00,98.54
2443.00,98.55
2442.00,98.57
2441.00,98.58
2440.00,98.57
2439.00,98.56
2438.00,98.55
2437.00,98.54
2436.00,98.54
2435.00,98.54
2434.00,98.56
2433.00,98.57
2432.00,98.59
2431.00,98.59
2430.00,98.58
2429.00,98.56
2428.00,98.55
2427.00,98.55
2426.00,98.54
2425.00,98.53
2424.00,98.54
2423.00,98.55
2422.00,98.58
2421.00,98.60
2420.00,98.61
2419.00,98.60
2418.00,98.60
2417.00,98.61
2416.00,98.63
2415.00,98.65
2414.00,98.65
2413.00,98.65
2412.00,98.65
2411.00,98.64
2410.00,98.65
2409.00,98.66
2408.00,98.68
2407.00,98.70
2406.00,98.72
2405.00,98.73
2404.00,98.73
2403.00,98.73
2402.00,98.74
2401.00,98.75
2400.00,98.74
2399.00,98.73
2398.00,98.72
2397.00,98.71
2396.00,98.71
2395.00,98.73
2394.00,98.75
2393.00,98.75
2392.00,98.75
2391.00,98.74
2390.00,98.75
2389.00,98.77
2388.00,98.79
2387.00,98.81
2386.00,98.81
2385.00,98.81
2384.00,98.81
2383.00,98.81
2382.00,98.82
2381.00,98.83
2380.00,98.84
2379.00,98.85
2378.00,98.86
2377.00,98.85
2376.00,98.82
2375.00,98.80
2374.00,98.80
2373.00,98.83
2372.00,98.85
2371.00,98.86
2370.00,98.87
2369.00,98.89
2368.00,98.92
2367.00,98.94
2366.00,98.95
2365.00,98.93
2364.00,98.88
2363.00,98.84
2362.00,98.83
2361.00,98.85
2360.00,98.86
2359.00,98.82
2358.00,98.75
2357.00,98.74
2356.00,98.80
2355.00,98.89
2354.00,98.94
2353.00,98.93
2352.00,98.89
2351.00,98.86
2350.00,98.84
2349.00,98.84
2348.00,98.86
2347.00,98.87
2346.00,98.88
2345.00,98.87
2344.00,98.86
2343.00,98.86
2342.00,98.85
2341.00,98.82
2340.00,98.76
2339.00,98.69
2338.00,98.65
2337.00,98.68
2336.00,98.75
2335.00,98.82
2334.00,98.86
2333.00,98.86
2332.00,98.86
2331.00,98.88
2330.00,98.90
2329.00,98.90
2328.00,98.85
2327.00,98.79
2326.00,98.72
2325.00,98.67
2324.00,98.64
2323.00,98.63
2322.00,98.63
2321.00,98.65
2320.00,98.68
2319.00,98.71
2318.00,98.73
2317.00,98.72
2316.00,98.69
2315.00,98.66
2314.00,98.63
2313.00,98.62
2312.00,98.64
2311.00,98.68
2310.00,98.70
2309.00,98.68
2308.00,98.65
2307.00,98.61
2306.00,98.60
2305.00,98.60
2304.00,98.62
2303.00,98.64
2302.00,98.64
2301.00,98.61
2300.00,98.57
2299.00,98.53
2298.00,98.51
2297.00,98.51
2296.00,98.52
2295.00,98.54
2294.00,98.56
2293.00,98.56
2292.00,98.55
2291.00,98.54
2290.00,98.52
2289.00,98.49
2288.00,98.45
2287.00,98.42
2286.00,98.40
2285.00,98.36
2284.00,98.33
2283.00,98.30
2282.00,98.29
2281.00,98.30
2280.00,98.32
2279.00,98.34
2278.00,98.35
2277.00,98.35
2276.00,98.34
2275.00,98.33
2274.00,98.31
2273.00,98.28
2272.00,98.24
2271.00,98.21
2270.00,98.21
2269.00,98.21
2268.00,98.21
2267.00,98.21
2266.00,98.20
2265.00,98.20
2264.00,98.22
2263.00,98.23
2262.00,98.23
2261.00,98.21
2260.00,98.18
2259.00,98.14
2258.00,98.10
2257.00,98.07
2256.00,98.07
2255.00,98.08
2254.00,98.08
2253.00,98.06
2252.00,98.04
2251.00,98.03
2250.00,98.04
2249.00,98.05
2248.00,98.06
2247.00,98.05
2246.00,98.04
2245.00,98.02
2244.00,98.00
2243.00,97.97
2242.00,97.94
2241.00,97.93
2240.00,97.94
2239.00,97.95
2238.00,97.95
2237.00,97.94
2236.00,97.93
2235.00,97.95
2234.00,97.96
2233.00,97.94
2232.00,97.88
2231.00,97.82
2230.00,97.79
2229.00,97.79
2228.00,97.81
2227.00,97.81
2226.00,97.81
2225.00,97.80
2224.00,97.79
2223.00,97.78
2222.00,97.78
2221.00,97.79
2220.00,97.80
2219.00,97.78
2218.00,97.72
2217.00,97.68
2216.00,97.67
2215.00,97.72
2214.00,97.77
2213.00,97.78
2212.00,97.73
2211.00,97.67
2210.00,97.63
2209.00,97.63
2208.00,97.65
2207.00,97.66
2206.00,97.63
2205.00,97.57
2204.00,97.52
2203.00,97.49
2202.00,97.50
2201.00,97.53
2200.00,97.55
2199.00,97.55
2198.00,97.52
2197.00,97.50
2196.00,97.50
2195.00,97.53
2194.00,97.59
2193.00,97.62
2192.00,97.59
2191.00,97.50
2190.00,97.40
2189.00,97.31
2188.00,97.26
2187.00,97.27
2186.00,97.31
2185.00,97.35
2184.00,97.38
2183.00,97.40
2182.00,97.42
2181.00,97.44
2180.00,97.47
2179.00,97.49
2178.00,97.46
2177.00,97.41
2176.00,97.36
2175.00,97.32
2174.00,97.27
2173.00,97.20
2172.00,97.13
2171.00,97.09
2170.00,97.09
2169.00,97.11
2168.00,97.09
2167.00,97.04
2166.00,96.98
2165.00,96.94
2164.00,96.90
2163.00,96.86
2162.00,96.81
2161.00,96.80
2160.00,96.89
2159.00,97.08
2158.00,97.28
2157.00,97.39
2156.00,97.40
2155.00,97.39
2154.00,97.39
2153.00,97.41
2152.00,97.42
2151.00,97.45
2150.00,97.50
2149.00,97.56
2148.00,97.61
2147.00,97.63
2146.00,97.62
2145.00,97.59
2144.00,97.57
2143.00,97.55
2142.00,97.57
2141.00,97.61
2140.00,97.68
2139.00,97.76
2138.00,97.82
2137.00,97.86
2136.00,97.87
2135.00,97.91
2134.00,97.96
2133.00,98.01
2132.00,98.05
2131.00,98.07
2130.00,98.08
2129.00,98.08
2128.00,98.08
2127.00,98.08
2126.00,98.11
2125.00,98.15
2124.00,98.20
2123.00,98.24
2122.00,98.25
2121.00,98.23
2120.00,98.21
2119.00,98.19
2118.00,98.16
2117.00,98.13
2116.00,98.09
2115.00,98.07
2114.00,98.06
2113.00,98.07
2112.00,98.08
2111.00,98.09
2110.00,98.10
2109.00,98.11
2108.00,98.11
2107.00,98.09
2106.00,98.09
2105.00,98.09
2104.00,98.09
2103.00,98.10
2102.00,98.09
2101.00,98.09
2100.00,98.09
2099.00,98.07
2098.00,98.04
2097.00,98.01
2096.00,98.01
2095.00,98.02
2094.00,98.05
2093.00,98.06
2092.00,98.06
2091.00,98.05
2090.00,98.04
2089.00,98.02
2088.00,97.99
2087.00,97.98
2086.00,97.97
2085.00,97.98
2084.00,97.99
2083.00,98.00
2082.00,98.00
2081.00,97.99
2080.00,97.97
2079.00,97.93
2078.00,97.89
2077.00,97.86
2076.00,97.86
2075.00,97.89
2074.00,97.93
2073.00,97.94
2072.00,97.94
2071.00,97.92
2070.00,97.89
2069.00,97.85
2068.00,97.82
2067.00,97.79
2066.00,97.78
2065.00,97.79
2064.00,97.81
2063.00,97.82
2062.00,97.81
2061.00,97.78
2060.00,97.76
2059.00,97.78
2058.00,97.82
2057.00,97.83
2056.00,97.81
2055.00,97.76
2054.00,97.70
2053.00,97.64
2052.00,97.58
2051.00,97.53
2050.00,97.51
2049.00,97.52
2048.00,97.56
2047.00,97.61
2046.00,97.65
2045.00,97.66
2044.00,97.62
2043.00,97.56
2042.00,97.51
2041.00,97.47
2040.00,97.45
2039.00,97.43
2038.00,97.43
2037.00,97.43
2036.00,97.42
2035.00,97.40
2034.00,97.35
2033.00,97.29
2032.00,97.25
2031.00,97.24
2030.00,97.24
2029.00,97.27
2028.00,97.32
2027.00,97.38
2026.00,97.43
2025.00,97.46
2024.00,97.46
2023.00,97.47
2022.00,97.49
2021.00,97.52
2020.00,97.51
2019.00,97.45
2018.00,97.37
2017.00,97.29
2016.00,97.24
2015.00,97.23
2014.00,97.26
2013.00,97.31
2012.00,97.38
2011.00,97.43
2010.00,97.47
2009.00,97.52
2008.00,97.59
2007.00,97.66
2006.00,97.67
2005.00,97.64
2004.00,97.60
2003.00,97.60
2002.00,97.64
2001.00,97.69
2000.00,97.71
1999.00,97.71
1998.00,97.71
1997.00,97.70
1996.00,97.69
1995.00,97.67
1994.00,97.65
1993.00,97.62
1992.00,97.61
1991.00,97.60
1990.00,97.61
1989.00,97.63
1988.00,97.66
1987.00,97.66
1986.00,97.63
1985.00,97.60
1984.00,97.58
1983.00,97.54
1982.00,97.49
1981.00,97.43
1980.00,97.38
1979.00,97.38
1978.00,97.43
1977.00,97.48
1976.00,97.51
1975.00,97.51
1974.00,97.52
1973.00,97.54
1972.00,97.57
1971.00,97.63
1970.00,97.67
1969.00,97.70
1968.00,97.70
1967.00,97.70
1966.00,97.71
1965.00,97.73
1964.00,97.77
1963.00,97.82
1962.00,97.85
1961.00,97.86
1960.00,97.87
1959.00,97.90
1958.00,97.97
1957.00,98.04
1956.00,98.09
1955.00,98.10
1954.00,98.13
1953.00,98.16
1952.00,98.17
1951.00,98.14
1950.00,98.10
1949.00,98.08
1948.00,98.11
1947.00,98.16
1946.00,98.19
1945.00,98.22
1944.00,98.25
1943.00,98.29
1942.00,98.32
1941.00,98.35
1940.00,98.38
1939.00,98.40
1938.00,98.39
1937.00,98.38
1936.00,98.36
1935.00,98.36
1934.00,98.35
1933.00,98.33
1932.00,98.31
1931.00,98.30
1930.00,98.32
1929.00,98.34
1928.00,98.36
1927.00,98.39
1926.00,98.43
1925.00,98.49
1924.00,98.52
1923.00,98.51
1922.00,98.47
1921.00,98.43
1920.00,98.41
1919.00,98.42
1918.00,98.44
1917.00,98.47
1916.00,98.48
1915.00,98.48
1914.00,98.48
1913.00,98.49
1912.00,98.52
1911.00,98.54
1910.00,98.53
1909.00,98.51
1908.00,98.50
1907.00,98.51
1906.00,98.56
1905.00,98.61
1904.00,98.64
1903.00,98.67
1902.00,98.69
1901.00,98.70
1900.00,98.70
1899.00,98.69
1898.00,98.67
1897.00,98.65
1896.00,98.64
1895.00,98.64
1894.00,98.64
1893.00,98.63
1892.00,98.62
1891.00,98.62
1890.00,98.62
1889.00,98.63
1888.00,98.64
1887.00,98.66
1886.00,98.67
1885.00,98.68
1884.00,98.69
1883.00,98.71
1882.00,98.74
1881.00,98.75
1880.00,98.76
1879.00,98.76
1878.00,98.75
1877.00,98.72
1876.00,98.71
1875.00,98.70
1874.00,98.71
1873.00,98.72
1872.00,98.74
1871.00,98.75
1870.00,98.76
1869.00,98.75
1868.00,98.74
1867.00,98.73
1866.00,98.74
1865.00,98.75
1864.00,98.76
1863.00,98.76
1862.00,98.77
1861.00,98.78
1860.00,98.79
1859.00,98.80
1858.00,98.81
1857.00,98.82
1856.00,98.84
1855.00,98.84
1854.00,98.83
1853.00,98.81
1852.00,98.78
1851.00,98.77
1850.00,98.77
1849.00,98.77
1848.00,98.78
1847.00,98.77
1846.00,98.75
1845.00,98.74
1844.00,98.76
1843.00,98.80
1842.00,98.83
1841.00,98.84
1840.00,98.85
1839.00,98.84
1838.00,98.84
1837.00,98.85
1836.00,98.86
1835.00,98.87
1834.00,98.87
1833.00,98.87
1832.00,98.86
1831.00,98.86
1830.00,98.86
1829.00,98.85
1828.00,98.84
1827.00,98.84
1826.00,98.83
1825.00,98.83
1824.00,98.84
1823.00,98.85
1822.00,98.86
1821.00,98.86
1820.00,98.86
1819.00,98.87
1818.00,98.90
1817.00,98.91
1816.00,98.91
1815.00,98.90
1814.00,98.90
1813.00,98.91
1812.00,98.92
1811.00,98.92
1810.00,98.93
1809.00,98.93
1808.00,98.94
1807.00,98.94
1806.00,98.94
1805.00,98.93
1804.00,98.92
1803.00,98.92
1802.00,98.93
1801.00,98.93
1800.00,98.91
1799.00,98.90
1798.00,98.89
1797.00,98.89
1796.00,98.89
1795.00,98.89
1794.00,98.89
1793.00,98.88
1792.00,98.88
1791.00,98.88
1790.00,98.89
1789.00,98.91
1788.00,98.93
1787.00,98.94
1786.00,98.94
1785.00,98.95
1784.00,98.95
1783.00,98.95
1782.00,98.95
1781.00,98.94
1780.00,98.94
1779.00,98.93
1778.00,98.93
1777.00,98.93
1776.00,98.93
1775.00,98.93
1774.00,98.93
1773.00,98.93
1772.00,98.92
1771.00,98.91
1770.00,98.90
1769.00,98.89
1768.00,98.89
1767.00,98.88
1766.00,98.88
1765.00,98.88
1764.00,98.88
1763.00,98.88
1762.00,98.89
1761.00,98.88
1760.00,98.88
1759.00,98.87
1758.00,98.86
1757.00,98.85
1756.00,98.83
1755.00,98.82
1754.00,98.81
1753.00,98.79
1752.00,98.77
1751.00,98.75
1750.00,98.75
1749.00,98.75
1748.00,98.74
1747.00,98.74
1746.00,98.75
1745.00,98.75
1744.00,98.75
1743.00,98.74
1742.00,98.73
1741.00,98.73
1740.00,98.73
1739.00,98.73
1738.00,98.72
1737.00,98.71
1736.00,98.70
1735.00,98.70
1734.00,98.71
1733.00,98.70
1732.00,98.68
1731.00,98.67
1730.00,98.66
1729.00,98.67
1728.00,98.69
1727.00,98.70
1726.00,98.71
1725.00,98.72
1724.00,98.73
1723.00,98.73
1722.00,98.72
1721.00,98.71
1720.00,98.69
1719.00,98.68
1718.00,98.66
1717.00,98.64
1716.00,98.62
1715.00,98.61
1714.00,98.61
1713.00,98.61
1712.00,98.61
1711.00,98.61
1710.00,98.61
1709.00,98.61
1708.00,98.60
1707.00,98.60
1706.00,98.60
1705.00,98.60
1704.00,98.58
1703.00,98.56
1702.00,98.54
1701.00,98.54
1700.00,98.53
1699.00,98.53
1698.00,98.52
1697.00,98.52
1696.00,98.50
1695.00,98.49
1694.00,98.48
1693.00,98.46
1692.00,98.44
1691.00,98.42
1690.00,98.40
1689.00,98.37
1688.00,98.33
1687.00,98.30
1686.00,98.28
1685.00,98.26
1684.00,98.23
1683.00,98.20
1682.00,98.18
1681.00,98.16
1680.00,98.14
1679.00,98.12
1678.00,98.10
1677.00,98.08
1676.00,98.04
1675.00,98.00
1674.00,97.96
1673.00,97.92
1672.00,97.88
1671.00,97.86
1670.00,97.83
1669.00,97.78
1668.00,97.74
1667.00,97.69
1666.00,97.66
1665.00,97.63
1664.00,97.59
1663.00,97.56
1662.00,97.53
1661.00,97.50
1660.00,97.46
1659.00,97.42
1658.00,97.38
1657.00,97.35
1656.00,97.32
1655.00,97.30
1654.00,97.30
1653.00,97.29
1652.00,97.29
1651.00,97.28
1650.00,97.28
1649.00,97.27
1648.00,97.24
1647.00,97.20
1646.00,97.16
1645.00,97.14
1644.00,97.14
1643.00,97.15
1642.00,97.15
1641.00,97.16
1640.00,97.16
1639.00,97.17
1638.00,97.18
1637.00,97.20
1636.00,97.21
1635.00,97.20
1634.00,97.19
1633.00,97.19
1632.00,97.20
1631.00,97.22
1630.00,97.25
1629.00,97.28
1628.00,97.30
1627.00,97.33
1626.00,97.36
1625.00,97.38
1624.00,97.39
1623.00,97.40
1622.00,97.42
1621.00,97.45
1620.00,97.49
1619.00,97.53
1618.00,97.58
1617.00,97.61
1616.00,97.63
1615.00,97.65
1614.00,97.66
1613.00,97.68
1612.00,97.69
1611.00,97.71
1610.00,97.74
1609.00,97.78
1608.00,97.80
1607.00,97.81
1606.00,97.82
1605.00,97.84
1604.00,97.87
1603.00,97.90
1602.00,97.94
1601.00,97.97
1600.00,97.99
1599.00,98.01
1598.00,98.02
1597.00,98.04
1596.00,98.06
1595.00,98.07
1594.00,98.09
1593.00,98.11
1592.00,98.13
1591.00,98.16
1590.00,98.18
1589.00,98.21
1588.00,98.23
1587.00,98.24
1586.00,98.23
1585.00,98.23
1584.00,98.23
1583.00,98.23
1582.00,98.25
1581.00,98.28
1580.00,98.31
1579.00,98.33
1578.00,98.34
1577.00,98.35
1576.00,98.37
1575.00,98.38
1574.00,98.40
1573.00,98.41
1572.00,98.42
1571.00,98.45
1570.00,98.47
1569.00,98.48
1568.00,98.49
1567.00,98.49
1566.00,98.49
1565.00,98.49
1564.00,98.48
1563.00,98.47
1562.00,98.47
1561.00,98.48
1560.00,98.50
1559.00,98.51
1558.00,98.52
1557.00,98.54
1556.00,98.56
1555.00,98.57
1554.00,98.58
1553.00,98.58
1552.00,98.57
1551.00,98.56
1550.00,98.56
1549.00,98.57
1548.00,98.58
1547.00,98.58
1546.00,98.57
1545.00,98.56
1544.00,98.54
1543.00,98.54
1542.00,98.54
1541.00,98.55
1540.00,98.55
1539.00,98.55
1538.00,98.57
1537.00,98.58
1536.00,98.59
1535.00,98.60
1534.00,98.61
1533.00,98.62
1532.00,98.63
1531.00,98.63
1530.00,98.63
1529.00,98.63
1528.00,98.63
1527.00,98.63
1526.00,98.63
1525.00,98.63
1524.00,98.63
1523.00,98.64
1522.00,98.64
1521.00,98.63
1520.00,98.61
1519.00,98.59
1518.00,98.57
1517.00,98.56
1516.00,98.56
1515.00,98.56
1514.00,98.57
1513.00,98.57
1512.00,98.57
1511.00,98.57
1510.00,98.56
1509.00,98.55
1508.00,98.54
1507.00,98.53
1506.00,98.53
1505.00,98.52
1504.00,98.51
1503.00,98.49
1502.00,98.48
1501.00,98.48
1500.00,98.47
1499.00,98.45
1498.00,98.43
1497.00,98.39
1496.00,98.34
1495.00,98.30
1494.00,98.25
1493.00,98.21
1492.00,98.17
1491.00,98.13
1490.00,98.09
1489.00,98.05
1488.00,98.01
1487.00,97.97
1486.00,97.92
1485.00,97.86
1484.00,97.80
1483.00,97.73
1482.00,97.66
1481.00,97.59
1480.00,97.53
1479.00,97.47
1478.00,97.41
1477.00,97.33
1476.00,97.25
1475.00,97.16
1474.00,97.05
1473.00,96.94
1472.00,96.82
1471.00,96.72
1470.00,96.66
1469.00,96.61
1468.00,96.59
1467.00,96.58
1466.00,96.55
1465.00,96.51
1464.00,96.46
1463.00,96.42
1462.00,96.39
1461.00,96.37
1460.00,96.33
1459.00,96.29
1458.00,96.23
1457.00,96.17
1456.00,96.12
1455.00,96.10
1454.00,96.08
1453.00,96.06
1452.00,96.04
1451.00,96.00
1450.00,95.94
1449.00,95.89
1448.00,95.83
1447.00,95.78
1446.00,95.74
1445.00,95.70
1444.00,95.66
1443.00,95.63
1442.00,95.60
1441.00,95.58
1440.00,95.55
1439.00,95.53
1438.00,95.51
1437.00,95.47
1436.00,95.44
1435.00,95.42
1434.00,95.41
1433.00,95.41
1432.00,95.41
1431.00,95.41
1430.00,95.40
1429.00,95.37
1428.00,95.35
1427.00,95.34
1426.00,95.34
1425.00,95.34
1424.00,95.32
1423.00,95.30
1422.00,95.29
1421.00,95.29
1420.00,95.28
1419.00,95.28
1418.00,95.28
1417.00,95.28
1416.00,95.29
1415.00,95.30
1414.00,95.30
1413.00,95.30
1412.00,95.31
1411.00,95.34
1410.00,95.37
1409.00,95.40
1408.00,95.42
1407.00,95.43
1406.00,95.44
1405.00,95.44
1404.00,95.43
1403.00,95.42
1402.00,95.40
1401.00,95.38
1400.00,95.36
1399.00,95.35
1398.00,95.36
1397.00,95.36
1396.00,95.35
1395.00,95.33
1394.00,95.30
1393.00,95.27
1392.00,95.25
1391.00,95.23
1390.00,95.20
1389.00,95.15
1388.00,95.08
1387.00,95.00
1386.00,94.92
1385.00,94.83
1384.00,94.71
1383.00,94.59
1382.00,94.45
1381.00,94.32
1380.00,94.19
1379.00,94.07
1378.00,93.95
1377.00,93.86
1376.00,93.77
1375.00,93.69
1374.00,93.61
1373.00,93.54
1372.00,93.49
1371.00,93.46
1370.00,93.44
1369.00,93.42
1368.00,93.39
1367.00,93.36
1366.00,93.35
1365.00,93.36
1364.00,93.39
1363.00,93.44
1362.00,93.49
1361.00,93.56
1360.00,93.62
1359.00,93.69
1358.00,93.76
1357.00,93.83
1356.00,93.90
1355.00,93.97
1354.00,94.03
1353.00,94.08
1352.00,94.13
1351.00,94.16
1350.00,94.19
1349.00,94.19
1348.00,94.18
1347.00,94.16
1346.00,94.15
1345.00,94.15
1344.00,94.14
1343.00,94.14
1342.00,94.15
1341.00,94.13
1340.00,94.10
1339.00,94.05
1338.00,94.00
1337.00,93.98
1336.00,93.97
1335.00,93.96
1334.00,93.96
1333.00,93.96
1332.00,93.97
1331.00,93.98
1330.00,94.00
1329.00,94.02
1328.00,94.02
1327.00,94.00
1326.00,93.98
1325.00,93.95
1324.00,93.94
1323.00,93.93
1322.00,93.90
1321.00,93.84
1320.00,93.76
1319.00,93.66
1318.00,93.57
1317.00,93.49
1316.00,93.43
1315.00,93.40
1314.00,93.40
1313.00,93.42
1312.00,93.45
1311.00,93.50
1310.00,93.58
1309.00,93.67
1308.00,93.79
1307.00,93.90
1306.00,93.99
1305.00,94.07
1304.00,94.14
1303.00,94.20
1302.00,94.26
1301.00,94.32
1300.00,94.41
1299.00,94.51
1298.00,94.61
1297.00,94.71
1296.00,94.78
1295.00,94.84
1294.00,94.91
1293.00,94.99
1292.00,95.09
1291.00,95.19
1290.00,95.28
1289.00,95.34
1288.00,95.39
1287.00,95.43
1286.00,95.47
1285.00,95.49
1284.00,95.49
1283.00,95.47
1282.00,95.43
1281.00,95.39
1280.00,95.35
1279.00,95.31
1278.00,95.29
1277.00,95.27
1276.00,95.26
1275.00,95.24
1274.00,95.23
1273.00,95.22
1272.00,95.20
1271.00,95.17
1270.00,95.14
1269.00,95.12
1268.00,95.11
1267.00,95.12
1266.00,95.11
1265.00,95.08
1264.00,95.05
1263.00,95.01
1262.00,94.98
1261.00,94.96
1260.00,94.98
1259.00,95.01
1258.00,95.06
1257.00,95.11
1256.00,95.16
1255.00,95.22
1254.00,95.27
1253.00,95.33
1252.00,95.39
1251.00,95.44
1250.00,95.49
1249.00,95.53
1248.00,95.56
1247.00,95.58
1246.00,95.59
1245.00,95.59
1244.00,95.60
1243.00,95.61
1242.00,95.63
1241.00,95.65
1240.00,95.66
1239.00,95.65
1238.00,95.62
1237.00,95.58
1236.00,95.54
1235.00,95.53
1234.00,95.56
1233.00,95.60
1232.00,95.64
1231.00,95.67
1230.00,95.68
1229.00,95.70
1228.00,95.73
1227.00,95.77
1226.00,95.82
1225.00,95.89
1224.00,95.97
1223.00,96.06
1222.00,96.15
1221.00,96.22
1220.00,96.30
1219.00,96.37
1218.00,96.43
1217.00,96.48
1216.00,96.52
1215.00,96.55
1214.00,96.56
1213.00,96.56
1212.00,96.54
1211.00,96.51
1210.00,96.47
1209.00,96.41
1208.00,96.34
1207.00,96.25
1206.00,96.16
1205.00,96.06
1204.00,95.96
1203.00,95.86
1202.00,95.78
1201.00,95.72
1200.00,95.69
1199.00,95.70
1198.00,95.73
1197.00,95.79
1196.00,95.87
1195.00,95.97
1194.00,96.08
1193.00,96.22
1192.00,96.37
1191.00,96.51
1190.00,96.64
1189.00,96.74
1188.00,96.81
1187.00,96.85
1186.00,96.86
1185.00,96.84
1184.00,96.79
1183.00,96.73
1182.00,96.66
1181.00,96.58
1180.00,96.48
1179.00,96.36
1178.00,96.23
1177.00,96.10
1176.00,95.97
1175.00,95.83
1174.00,95.66
1173.00,95.45
1172.00,95.21
1171.00,94.95
1170.00,94.68
1169.00,94.38
1168.00,94.07
1167.00,93.74
1166.00,93.41
1165.00,93.07
1164.00,92.72
1163.00,92.40
1162.00,92.10
1161.00,91.85
1160.00,91.65
1159.00,91.52
1158.00,91.43
1157.00,91.38
1156.00,91.36
1155.00,91.39
1154.00,91.47
1153.00,91.59
1152.00,91.75
1151.00,91.91
1150.00,92.08
1149.00,92.24
1148.00,92.39
1147.00,92.53
1146.00,92.65
1145.00,92.75
1144.00,92.82
1143.00,92.87
1142.00,92.93
1141.00,92.97
1140.00,92.98
1139.00,92.95
1138.00,92.87
1137.00,92.76
1136.00,92.62
1135.00,92.47
1134.00,92.32
1133.00,92.17
1132.00,92.01
1131.00,91.81
1130.00,91.58
1129.00,91.35
1128.00,91.12
1127.00,90.90
1126.00,90.68
1125.00,90.44
1124.00,90.20
1123.00,89.95
1122.00,89.71
1121.00,89.48
1120.00,89.26
1119.00,89.06
1118.00,88.87
1117.00,88.70
1116.00,88.54
1115.00,88.40
1114.00,88.26
1113.00,88.13
1112.00,88.00
1111.00,87.89
1110.00,87.82
1109.00,87.76
1108.00,87.71
1107.00,87.65
1106.00,87.57
1105.00,87.48
1104.00,87.34
1103.00,87.17
1102.00,86.96
1101.00,86.74
1100.00,86.51
1099.00,86.29
1098.00,86.08
1097.00,85.88
1096.00,85.71
1095.00,85.57
1094.00,85.43
1093.00,85.29
1092.00,85.13
1091.00,84.97
1090.00,84.84
1089.00,84.73
1088.00,84.62
1087.00,84.49
1086.00,84.35
1085.00,84.20
1084.00,84.04
1083.00,83.87
1082.00,83.70
1081.00,83.54
1080.00,83.37
1079.00,83.19
1078.00,82.99
1077.00,82.78
1076.00,82.56
1075.00,82.36
1074.00,82.17
1073.00,81.99
1072.00,81.81
1071.00,81.62
1070.00,81.43
1069.00,81.23
1068.00,81.04
1067.00,80.84
1066.00,80.65
1065.00,80.45
1064.00,80.23
1063.00,80.01
1062.00,79.79
1061.00,79.60
1060.00,79.43
1059.00,79.31
1058.00,79.20
1057.00,79.10
1056.00,79.01
1055.00,78.92
1054.00,78.84
1053.00,78.78
1052.00,78.72
1051.00,78.65
1050.00,78.57
1049.00,78.47
1048.00,78.35
1047.00,78.23
1046.00,78.13
1045.00,78.04
1044.00,78.00
1043.00,77.98
1042.00,77.96
1041.00,77.91
1040.00,77.83
1039.00,77.75
1038.00,77.66
1037.00,77.53
1036.00,77.38
1035.00,77.22
1034.00,77.05
1033.00,76.86
1032.00,76.65
1031.00,76.44
1030.00,76.24
1029.00,76.04
1028.00,75.86
1027.00,75.69
1026.00,75.54
1025.00,75.39
1024.00,75.26
1023.00,75.15
1022.00,75.07
1021.00,74.98
1020.00,74.89
1019.00,74.84
1018.00,74.82
1017.00,74.85
1016.00,74.92
1015.00,75.04
1014.00,75.18
1013.00,75.34
1012.00,75.50
1011.00,75.68
1010.00,75.86
1009.00,76.04
1008.00,76.20
1007.00,76.34
1006.00,76.44
1005.00,76.52
1004.00,76.57
1003.00,76.60
1002.00,76.61
1001.00,76.59
1000.00,76.55
999.00,76.52
998.00,76.50
997.00,76.48
996.00,76.46
995.00,76.47
994.00,76.50
993.00,76.57
992.00,76.67
991.00,76.82
990.00,77.03
989.00,77.27
988.00,77.55
987.00,77.89
986.00,78.28
985.00,78.71
984.00,79.16
983.00,79.62
982.00,80.08
981.00,80.52
980.00,80.94
979.00,81.35
978.00,81.75
977.00,82.13
976.00,82.48
975.00,82.79
974.00,83.06
973.00,83.31
972.00,83.54
971.00,83.77
970.00,83.99
969.00,84.18
968.00,84.36
967.00,84.53
966.00,84.69
965.00,84.84
964.00,84.98
963.00,85.15
962.00,85.33
961.00,85.53
960.00,85.72
959.00,85.92
958.00,86.14
957.00,86.38
956.00,86.62
955.00,86.85
954.00,87.07
953.00,87.26
952.00,87.44
951.00,87.61
950.00,87.79
949.00,87.97
948.00,88.15
947.00,88.32
946.00,88.49
945.00,88.65
944.00,88.80
943.00,88.93
942.00,89.04
941.00,89.13
940.00,89.22
939.00,89.32
938.00,89.42
937.00,89.52
936.00,89.61
935.00,89.69
934.00,89.77
933.00,89.86
932.00,89.95
931.00,90.04
930.00,90.11
929.00,90.18
928.00,90.24
927.00,90.31
926.00,90.39
925.00,90.47
924.00,90.56
923.00,90.64
922.00,90.71
921.00,90.77
920.00,90.83
919.00,90.89
918.00,90.94
917.00,90.98
916.00,90.98
915.00,90.96
914.00,90.93
913.00,90.90
912.00,90.86
911.00,90.80
910.00,90.70
909.00,90.58
908.00,90.46
907.00,90.33
906.00,90.19
905.00,90.03
904.00,89.86
903.00,89.68
902.00,89.49
901.00,89.30
900.00,89.11
899.00,88.93
898.00,88.78
897.00,88.65
896.00,88.56
895.00,88.50
894.00,88.50
893.00,88.55
892.00,88.65
891.00,88.80
890.00,88.97
889.00,89.17
888.00,89.38
887.00,89.60
886.00,89.81
885.00,90.01
884.00,90.21
883.00,90.41
882.00,90.61
881.00,90.80
880.00,90.96
879.00,91.11
878.00,91.25
877.00,91.38
876.00,91.51
875.00,91.63
874.00,91.70
873.00,91.74
872.00,91.77
871.00,91.81
870.00,91.88
869.00,91.95
868.00,92.03
867.00,92.12
866.00,92.21
865.00,92.30
864.00,92.36
863.00,92.40
862.00,92.44
861.00,92.49
860.00,92.54
859.00,92.58
858.00,92.62
857.00,92.66
856.00,92.68
855.00,92.68
854.00,92.66
853.00,92.63
852.00,92.64
851.00,92.67
850.00,92.71
849.00,92.74
848.00,92.76
847.00,92.78
846.00,92.81
845.00,92.82
844.00,92.81
843.00,92.78
842.00,92.75
841.00,92.75
840.00,92.76
839.00,92.77
838.00,92.77
837.00,92.78
836.00,92.79
835.00,92.80
834.00,92.78
833.00,92.73
832.00,92.69
831.00,92.67
830.00,92.67
829.00,92.67
828.00,92.68
827.00,92.67
826.00,92.66
825.00,92.64
824.00,92.63
823.00,92.62
822.00,92.63
821.00,92.63
820.00,92.63
819.00,92.59
818.00,92.53
817.00,92.45
816.00,92.38
815.00,92.32
814.00,92.29
813.00,92.28
812.00,92.27
811.00,92.26
810.00,92.26
809.00,92.26
808.00,92.25
807.00,92.24
806.00,92.22
805.00,92.22
804.00,92.21
803.00,92.20
802.00,92.19
801.00,92.17
800.00,92.16
799.00,92.13
798.00,92.11
797.00,92.09
796.00,92.08
795.00,92.10
794.00,92.12
793.00,92.11
792.00,92.08
791.00,92.04
790.00,92.00
789.00,91.96
788.00,91.95
787.00,91.95
786.00,91.94
785.00,91.93
784.00,91.92
783.00,91.91
782.00,91.90
781.00,91.86
780.00,91.80
779.00,91.73
778.00,91.65
777.00,91.58
776.00,91.54
775.00,91.54
774.00,91.57
773.00,91.59
772.00,91.58
771.00,91.56
770.00,91.54
769.00,91.51
768.00,91.48
767.00,91.45
766.00,91.41
765.00,91.35
764.00,91.29
763.00,91.24
762.00,91.19
761.00,91.15
760.00,91.12
759.00,91.10
758.00,91.09
757.00,91.06
756.00,91.02
755.00,90.97
754.00,90.92
753.00,90.87
752.00,90.84
751.00,90.83
750.00,90.83
749.00,90.80
748.00,90.75
747.00,90.70
746.00,90.65
745.00,90.60
744.00,90.54
743.00,90.48
742.00,90.43
741.00,90.39
740.00,90.38
739.00,90.37
738.00,90.35
737.00,90.26
736.00,90.14
735.00,90.03
734.00,90.00
733.00,90.01
732.00,90.02
731.00,90.01
730.00,89.99
729.00,89.96
728.00,89.92
727.00,89.87
726.00,89.82
725.00,89.78
724.00,89.73
723.00,89.65
722.00,89.56
721.00,89.47
720.00,89.41
719.00,89.37
718.00,89.36
717.00,89.34
716.00,89.31
715.00,89.26
714.00,89.23
713.00,89.22
712.00,89.21
711.00,89.18
710.00,89.13
709.00,89.08
708.00,89.06
707.00,89.04
706.00,89.01
705.00,88.95
704.00,88.88
703.00,88.82
702.00,88.78
701.00,88.75
700.00,88.74
699.00,88.73
698.00,88.71
697.00,88.66
696.00,88.62
695.00,88.61
694.00,88.61
693.00,88.61
692.00,88.60
691.00,88.60
690.00,88.62
689.00,88.63
688.00,88.60
687.00,88.55
686.00,88.48
685.00,88.40
684.00,88.31
683.00,88.23
682.00,88.14
681.00,87.99
680.00,87.74
679.00,87.42
678.00,87.06
677.00,86.68
676.00,86.29
675.00,85.89
674.00,85.51
673.00,85.19
672.00,84.92
671.00,84.70
670.00,84.50
669.00,84.30
668.00,84.14
667.00,84.13
666.00,84.21
665.00,84.27
664.00,84.27
663.00,84.24
662.00,84.22
661.00,84.24
660.00,84.27
659.00,84.26
658.00,84.19
657.00,84.09
656.00,84.03
655.00,84.06
654.00,84.16
653.00,84.25
652.00,84.26
651.00,84.24
650.00,84.26
649.00,84.34
648.00,84.44
647.00,84.51
646.00,84.54
645.00,84.51
644.00,84.45
643.00,84.33
642.00,84.19
641.00,84.02
640.00,83.88
639.00,83.77
638.00,83.70
637.00,83.66
636.00,83.62
635.00,83.58
634.00,83.53
633.00,83.47
632.00,83.39
631.00,83.33
630.00,83.32
629.00,83.39
628.00,83.53
627.00,83.66
626.00,83.68
625.00,83.55
624.00,83.36
623.00,83.26
622.00,83.25
621.00,83.23
620.00,83.18
619.00,83.08
618.00,82.90
617.00,82.60
616.00,82.26
615.00,82.09
614.00,82.11
613.00,82.10
612.00,81.89
611.00,81.55
610.00,81.29
609.00,81.19
608.00,81.20
607.00,81.29
606.00,81.40
605.00,81.51
604.00,81.55
603.00,81.54
602.00,81.49
601.00,81.42
600.00,81.35
599.00,81.30
598.00,81.25
597.00,81.19
596.00,81.10
595.00,80.93
594.00,80.70
593.00,80.48
592.00,80.43
591.00,80.58
590.00,80.70
589.00,80.55
588.00,80.20
587.00,80.00
586.00,80.19
585.00,80.63
584.00,81.04
583.00,81.28
582.00,81.37
581.00,81.32
580.00,81.22
579.00,81.16
578.00,81.16
577.00,81.16
576.00,81.16
575.00,81.27
574.00,81.44
573.00,81.37
572.00,80.94
571.00,80.42
570.00,80.11
569.00,80.05
568.00,80.06
567.00,79.98
566.00,79.64
565.00,79.02
564.00,78.38
563.00,78.26
562.00,78.84
561.00,79.59
560.00,79.83
559.00,79.48
558.00,79.14
557.00,79.36
556.00,80.09
555.00,80.84
554.00,81.04
553.00,80.65
552.00,80.03
551.00,79.79
550.00,79.84
