Created as New Dataset,198 Lenzing AG
cm-1,%T
4000.00,101.40
3999.00,101.40
3998.00,101.40
3997.00,101.41
3996.00,101.41
3995.00,101.41
3994.00,101.41
3993.00,101.41
3992.00,101.41
3991.00,101.40
3990.00,101.39
3989.00,101.36
3988.00,101.33
3987.00,101.30
3986.00,101.29
3985.00,101.30
3984.00,101.32
3983.00,101.35
3982.00,101.36
3981.00,101.36
3980.00,101.35
3979.00,101.34
3978.00,101.33
3977.00,101.32
3976.00,101.32
3975.00,101.32
3974.00,101.33
3973.00,101.35
3972.00,101.36
3971.00,101.36
3970.00,101.35
3969.00,101.33
3968.00,101.32
3967.00,101.33
3966.00,101.34
3965.00,101.36
3964.00,101.38
3963.00,101.39
3962.00,101.40
3961.00,101.41
3960.00,101.41
3959.00,101.41
3958.00,101.41
3957.00,101.40
3956.00,101.40
3955.00,101.40
3954.00,101.39
3953.00,101.38
3952.00,101.37
3951.00,101.37
3950.00,101.36
3949.00,101.37
3948.00,101.38
3947.00,101.39
3946.00,101.41
3945.00,101.41
3944.00,101.42
3943.00,101.42
3942.00,101.42
3941.00,101.42
3940.00,101.42
3939.00,101.42
3938.00,101.43
3937.00,101.42
3936.00,101.41
3935.00,101.39
3934.00,101.37
3933.00,101.36
3932.00,101.36
3931.00,101.37
3930.00,101.37
3929.00,101.37
3928.00,101.38
3927.00,101.38
3926.00,101.40
3925.00,101.41
3924.00,101.42
3923.00,101.41
3922.00,101.40
3921.00,101.40
3920.00,101.41
3919.00,101.41
3918.00,101.42
3917.00,101.41
3916.00,101.41
3915.00,101.40
3914.00,101.39
3913.00,101.38
3912.00,101.37
3911.00,101.38
3910.00,101.39
3909.00,101.41
3908.00,101.43
3907.00,101.44
3906.00,101.43
3905.00,101.42
3904.00,101.41
3903.00,101.42
3902.00,101.43
3901.00,101.45
3900.00,101.47
3899.00,101.47
3898.00,101.47
3897.00,101.45
3896.00,101.44
3895.00,101.43
3894.00,101.43
3893.00,101.42
3892.00,101.41
3891.00,101.40
3890.00,101.40
3889.00,101.40
3888.00,101.42
3887.00,101.43
3886.00,101.44
3885.00,101.45
3884.00,101.45
3883.00,101.44
3882.00,101.42
3881.00,101.40
3880.00,101.39
3879.00,101.38
3878.00,101.38
3877.00,101.38
3876.00,101.39
3875.00,101.39
3874.00,101.40
3873.00,101.40
3872.00,101.41
3871.00,101.41
3870.00,101.41
3869.00,101.41
3868.00,101.41
3867.00,101.42
3866.00,101.43
3865.00,101.44
3864.00,101.45
3863.00,101.44
3862.00,101.43
3861.00,101.43
3860.00,101.43
3859.00,101.43
3858.00,101.43
3857.00,101.43
3856.00,101.41
3855.00,101.39
3854.00,101.39
3853.00,101.41
3852.00,101.44
3851.00,101.45
3850.00,101.46
3849.00,101.47
3848.00,101.48
3847.00,101.48
3846.00,101.48
3845.00,101.47
3844.00,101.47
3843.00,101.47
3842.00,101.47
3841.00,101.47
3840.00,101.45
3839.00,101.42
3838.00,101.41
3837.00,101.42
3836.00,101.44
3835.00,101.45
3834.00,101.45
3833.00,101.44
3832.00,101.43
3831.00,101.43
3830.00,101.44
3829.00,101.43
3828.00,101.42
3827.00,101.41
3826.00,101.40
3825.00,101.39
3824.00,101.38
3823.00,101.38
3822.00,101.37
3821.00,101.38
3820.00,101.39
3819.00,101.40
3818.00,101.42
3817.00,101.41
3816.00,101.40
3815.00,101.39
3814.00,101.38
3813.00,101.37
3812.00,101.36
3811.00,101.35
3810.00,101.35
3809.00,101.35
3808.00,101.36
3807.00,101.38
3806.00,101.39
3805.00,101.40
3804.00,101.41
3803.00,101.42
3802.00,101.43
3801.00,101.44
3800.00,101.44
3799.00,101.44
3798.00,101.43
3797.00,101.41
3796.00,101.39
3795.00,101.38
3794.00,101.39
3793.00,101.41
3792.00,101.42
3791.00,101.43
3790.00,101.42
3789.00,101.40
3788.00,101.38
3787.00,101.36
3786.00,101.36
3785.00,101.38
3784.00,101.39
3783.00,101.41
3782.00,101.41
3781.00,101.41
3780.00,101.42
3779.00,101.42
3778.00,101.43
3777.00,101.42
3776.00,101.41
3775.00,101.39
3774.00,101.37
3773.00,101.37
3772.00,101.37
3771.00,101.38
3770.00,101.39
3769.00,101.39
3768.00,101.39
3767.00,101.38
3766.00,101.38
3765.00,101.39
3764.00,101.40
3763.00,101.42
3762.00,101.42
3761.00,101.39
3760.00,101.36
3759.00,101.33
3758.00,101.31
3757.00,101.31
3756.00,101.32
3755.00,101.33
3754.00,101.36
3753.00,101.38
3752.00,101.41
3751.00,101.42
3750.00,101.43
3749.00,101.44
3748.00,101.45
3747.00,101.46
3746.00,101.47
3745.00,101.47
3744.00,101.47
3743.00,101.48
3742.00,101.47
3741.00,101.46
3740.00,101.45
3739.00,101.43
3738.00,101.42
3737.00,101.40
3736.00,101.39
3735.00,101.39
3734.00,101.41
3733.00,101.42
3732.00,101.44
3731.00,101.45
3730.00,101.44
3729.00,101.43
3728.00,101.43
3727.00,101.43
3726.00,101.45
3725.00,101.46
3724.00,101.45
3723.00,101.44
3722.00,101.44
3721.00,101.43
3720.00,101.43
3719.00,101.42
3718.00,101.40
3717.00,101.38
3716.00,101.36
3715.00,101.37
3714.00,101.39
3713.00,101.42
3712.00,101.44
3711.00,101.45
3710.00,101.44
3709.00,101.41
3708.00,101.39
3707.00,101.37
3706.00,101.37
3705.00,101.37
3704.00,101.36
3703.00,101.32
3702.00,101.28
3701.00,101.25
3700.00,101.25
3699.00,101.27
3698.00,101.30
3697.00,101.33
3696.00,101.35
3695.00,101.35
3694.00,101.35
3693.00,101.36
3692.00,101.36
3691.00,101.36
3690.00,101.34
3689.00,101.32
3688.00,101.31
3687.00,101.31
3686.00,101.31
3685.00,101.32
3684.00,101.33
3683.00,101.34
3682.00,101.34
3681.00,101.34
3680.00,101.34
3679.00,101.35
3678.00,101.36
3677.00,101.37
3676.00,101.37
3675.00,101.37
3674.00,101.37
3673.00,101.37
3672.00,101.37
3671.00,101.37
3670.00,101.37
3669.00,101.38
3668.00,101.39
3667.00,101.39
3666.00,101.37
3665.00,101.34
3664.00,101.30
3663.00,101.27
3662.00,101.25
3661.00,101.25
3660.00,101.25
3659.00,101.25
3658.00,101.25
3657.00,101.25
3656.00,101.24
3655.00,101.24
3654.00,101.24
3653.00,101.25
3652.00,101.27
3651.00,101.27
3650.00,101.25
3649.00,101.22
3648.00,101.21
3647.00,101.20
3646.00,101.20
3645.00,101.18
3644.00,101.15
3643.00,101.14
3642.00,101.14
3641.00,101.16
3640.00,101.16
3639.00,101.14
3638.00,101.12
3637.00,101.09
3636.00,101.09
3635.00,101.09
3634.00,101.11
3633.00,101.12
3632.00,101.14
3631.00,101.16
3630.00,101.16
3629.00,101.14
3628.00,101.12
3627.00,101.09
3626.00,101.08
3625.00,101.07
3624.00,101.07
3623.00,101.06
3622.00,101.04
3621.00,101.00
3620.00,100.97
3619.00,100.96
3618.00,100.97
3617.00,100.97
3616.00,100.97
3615.00,100.97
3614.00,100.96
3613.00,100.96
3612.00,100.96
3611.00,100.95
3610.00,100.93
3609.00,100.90
3608.00,100.87
3607.00,100.85
3606.00,100.83
3605.00,100.82
3604.00,100.81
3603.00,100.80
3602.00,100.78
3601.00,100.76
3600.00,100.74
3599.00,100.73
3598.00,100.73
3597.00,100.74
3596.00,100.76
3595.00,100.78
3594.00,100.78
3593.00,100.77
3592.00,100.75
3591.00,100.72
3590.00,100.70
3589.00,100.68
3588.00,100.67
3587.00,100.65
3586.00,100.63
3585.00,100.60
3584.00,100.58
3583.00,100.56
3582.00,100.54
3581.00,100.52
3580.00,100.50
3579.00,100.47
3578.00,100.45
3577.00,100.43
3576.00,100.42
3575.00,100.42
3574.00,100.41
3573.00,100.40
3572.00,100.38
3571.00,100.35
3570.00,100.32
3569.00,100.28
3568.00,100.26
3567.00,100.26
3566.00,100.28
3565.00,100.30
3564.00,100.29
3563.00,100.26
3562.00,100.22
3561.00,100.18
3560.00,100.16
3559.00,100.13
3558.00,100.11
3557.00,100.08
3556.00,100.06
3555.00,100.06
3554.00,100.05
3553.00,100.03
3552.00,100.01
3551.00,99.99
3550.00,99.98
3549.00,99.99
3548.00,100.00
3547.00,100.00
3546.00,99.99
3545.00,99.96
3544.00,99.94
3543.00,99.91
3542.00,99.88
3541.00,99.84
3540.00,99.80
3539.00,99.77
3538.00,99.75
3537.00,99.74
3536.00,99.72
3535.00,99.70
3534.00,99.66
3533.00,99.62
3532.00,99.58
3531.00,99.56
3530.00,99.56
3529.00,99.55
3528.00,99.54
3527.00,99.52
3526.00,99.50
3525.00,99.48
3524.00,99.46
3523.00,99.43
3522.00,99.40
3521.00,99.38
3520.00,99.36
3519.00,99.34
3518.00,99.33
3517.00,99.32
3516.00,99.30
3515.00,99.28
3514.00,99.25
3513.00,99.22
3512.00,99.19
3511.00,99.16
3510.00,99.14
3509.00,99.11
3508.00,99.07
3507.00,99.03
3506.00,99.00
3505.00,98.96
3504.00,98.92
3503.00,98.89
3502.00,98.84
3501.00,98.79
3500.00,98.75
3499.00,98.70
3498.00,98.66
3497.00,98.62
3496.00,98.57
3495.00,98.52
3494.00,98.48
3493.00,98.44
3492.00,98.42
3491.00,98.40
3490.00,98.38
3489.00,98.36
3488.00,98.33
3487.00,98.31
3486.00,98.29
3485.00,98.26
3484.00,98.24
3483.00,98.21
3482.00,98.18
3481.00,98.17
3480.00,98.16
3479.00,98.14
3478.00,98.12
3477.00,98.09
3476.00,98.07
3475.00,98.06
3474.00,98.07
3473.00,98.07
3472.00,98.06
3471.00,98.04
3470.00,98.02
3469.00,97.99
3468.00,97.96
3467.00,97.93
3466.00,97.91
3465.00,97.89
3464.00,97.88
3463.00,97.85
3462.00,97.81
3461.00,97.76
3460.00,97.72
3459.00,97.70
3458.00,97.68
3457.00,97.66
3456.00,97.63
3455.00,97.59
3454.00,97.55
3453.00,97.52
3452.00,97.49
3451.00,97.47
3450.00,97.45
3449.00,97.41
3448.00,97.36
3447.00,97.31
3446.00,97.27
3445.00,97.25
3444.00,97.25
3443.00,97.24
3442.00,97.22
3441.00,97.20
3440.00,97.18
3439.00,97.15
3438.00,97.12
3437.00,97.10
3436.00,97.10
3435.00,97.12
3434.00,97.15
3433.00,97.18
3432.00,97.19
3431.00,97.19
3430.00,97.17
3429.00,97.14
3428.00,97.11
3427.00,97.09
3426.00,97.08
3425.00,97.07
3424.00,97.06
3423.00,97.05
3422.00,97.04
3421.00,97.04
3420.00,97.05
3419.00,97.07
3418.00,97.07
3417.00,97.07
3416.00,97.05
3415.00,97.04
3414.00,97.03
3413.00,97.02
3412.00,96.99
3411.00,96.95
3410.00,96.92
3409.00,96.88
3408.00,96.86
3407.00,96.86
3406.00,96.86
3405.00,96.85
3404.00,96.83
3403.00,96.79
3402.00,96.76
3401.00,96.74
3400.00,96.74
3399.00,96.75
3398.00,96.76
3397.00,96.77
3396.00,96.78
3395.00,96.77
3394.00,96.77
3393.00,96.75
3392.00,96.72
3391.00,96.68
3390.00,96.63
3389.00,96.59
3388.00,96.58
3387.00,96.58
3386.00,96.61
3385.00,96.62
3384.00,96.62
3383.00,96.61
3382.00,96.61
3381.00,96.63
3380.00,96.64
3379.00,96.65
3378.00,96.64
3377.00,96.61
3376.00,96.59
3375.00,96.57
3374.00,96.55
3373.00,96.54
3372.00,96.54
3371.00,96.52
3370.00,96.51
3369.00,96.49
3368.00,96.47
3367.00,96.47
3366.00,96.47
3365.00,96.47
3364.00,96.48
3363.00,96.48
3362.00,96.49
3361.00,96.49
3360.00,96.49
3359.00,96.47
3358.00,96.44
3357.00,96.42
3356.00,96.41
3355.00,96.41
3354.00,96.41
3353.00,96.40
3352.00,96.39
3351.00,96.38
3350.00,96.39
3349.00,96.39
3348.00,96.37
3347.00,96.35
3346.00,96.34
3345.00,96.33
3344.00,96.34
3343.00,96.35
3342.00,96.35
3341.00,96.34
3340.00,96.34
3339.00,96.34
3338.00,96.35
3337.00,96.35
3336.00,96.36
3335.00,96.35
3334.00,96.34
3333.00,96.33
3332.00,96.33
3331.00,96.33
3330.00,96.33
3329.00,96.33
3328.00,96.32
3327.00,96.32
3326.00,96.32
3325.00,96.33
3324.00,96.34
3323.00,96.35
3322.00,96.35
3321.00,96.35
3320.00,96.34
3319.00,96.33
3318.00,96.32
3317.00,96.32
3316.00,96.33
3315.00,96.34
3314.00,96.35
3313.00,96.36
3312.00,96.36
3311.00,96.36
3310.00,96.35
3309.00,96.34
3308.00,96.34
3307.00,96.33
3306.00,96.33
3305.00,96.33
3304.00,96.34
3303.00,96.36
3302.00,96.38
3301.00,96.38
3300.00,96.36
3299.00,96.34
3298.00,96.32
3297.00,96.31
3296.00,96.30
3295.00,96.30
3294.00,96.31
3293.00,96.33
3292.00,96.36
3291.00,96.38
3290.00,96.39
3289.00,96.39
3288.00,96.40
3287.00,96.42
3286.00,96.43
3285.00,96.44
3284.00,96.45
3283.00,96.44
3282.00,96.43
3281.00,96.43
3280.00,96.43
3279.00,96.45
3278.00,96.47
3277.00,96.49
3276.00,96.50
3275.00,96.51
3274.00,96.49
3273.00,96.47
3272.00,96.46
3271.00,96.46
3270.00,96.49
3269.00,96.53
3268.00,96.56
3267.00,96.57
3266.00,96.57
3265.00,96.56
3264.00,96.55
3263.00,96.56
3262.00,96.57
3261.00,96.58
3260.00,96.59
3259.00,96.59
3258.00,96.59
3257.00,96.58
3256.00,96.57
3255.00,96.55
3254.00,96.55
3253.00,96.57
3252.00,96.59
3251.00,96.61
3250.00,96.62
3249.00,96.62
3248.00,96.61
3247.00,96.61
3246.00,96.62
3245.00,96.63
3244.00,96.65
3243.00,96.68
3242.00,96.71
3241.00,96.74
3240.00,96.76
3239.00,96.77
3238.00,96.78
3237.00,96.78
3236.00,96.78
3235.00,96.77
3234.00,96.76
3233.00,96.75
3232.00,96.75
3231.00,96.77
3230.00,96.80
3229.00,96.83
3228.00,96.84
3227.00,96.83
3226.00,96.82
3225.00,96.82
3224.00,96.83
3223.00,96.84
3222.00,96.84
3221.00,96.84
3220.00,96.84
3219.00,96.85
3218.00,96.86
3217.00,96.87
3216.00,96.89
3215.00,96.92
3214.00,96.93
3213.00,96.95
3212.00,96.95
3211.00,96.96
3210.00,96.97
3209.00,96.99
3208.00,97.02
3207.00,97.05
3206.00,97.06
3205.00,97.07
3204.00,97.08
3203.00,97.09
3202.00,97.10
3201.00,97.11
3200.00,97.12
3199.00,97.13
3198.00,97.14
3197.00,97.15
3196.00,97.16
3195.00,97.17
3194.00,97.18
3193.00,97.19
3192.00,97.18
3191.00,97.16
3190.00,97.16
3189.00,97.18
3188.00,97.21
3187.00,97.25
3186.00,97.28
3185.00,97.31
3184.00,97.32
3183.00,97.33
3182.00,97.33
3181.00,97.33
3180.00,97.34
3179.00,97.35
3178.00,97.37
3177.00,97.38
3176.00,97.39
3175.00,97.39
3174.00,97.40
3173.00,97.42
3172.00,97.44
3171.00,97.46
3170.00,97.48
3169.00,97.48
3168.00,97.49
3167.00,97.49
3166.00,97.50
3165.00,97.51
3164.00,97.52
3163.00,97.53
3162.00,97.55
3161.00,97.57
3160.00,97.59
3159.00,97.62
3158.00,97.63
3157.00,97.63
3156.00,97.64
3155.00,97.65
3154.00,97.68
3153.00,97.70
3152.00,97.72
3151.00,97.72
3150.00,97.72
3149.00,97.72
3148.00,97.73
3147.00,97.75
3146.00,97.76
3145.00,97.77
3144.00,97.78
3143.00,97.80
3142.00,97.83
3141.00,97.85
3140.00,97.87
3139.00,97.87
3138.00,97.87
3137.00,97.88
3136.00,97.89
3135.00,97.91
3134.00,97.92
3133.00,97.93
3132.00,97.94
3131.00,97.95
3130.00,97.96
3129.00,97.98
3128.00,98.00
3127.00,98.02
3126.00,98.03
3125.00,98.04
3124.00,98.06
3123.00,98.08
3122.00,98.10
3121.00,98.12
3120.00,98.14
3119.00,98.16
3118.00,98.17
3117.00,98.19
3116.00,98.20
3115.00,98.22
3114.00,98.24
3113.00,98.27
3112.00,98.29
3111.00,98.30
3110.00,98.30
3109.00,98.31
3108.00,98.33
3107.00,98.37
3106.00,98.40
3105.00,98.41
3104.00,98.42
3103.00,98.43
3102.00,98.45
3101.00,98.47
3100.00,98.48
3099.00,98.49
3098.00,98.49
3097.00,98.52
3096.00,98.56
3095.00,98.60
3094.00,98.63
3093.00,98.64
3092.00,98.66
3091.00,98.67
3090.00,98.69
3089.00,98.70
3088.00,98.71
3087.00,98.71
3086.00,98.71
3085.00,98.72
3084.00,98.75
3083.00,98.78
3082.00,98.81
3081.00,98.83
3080.00,98.84
3079.00,98.85
3078.00,98.85
3077.00,98.86
3076.00,98.87
3075.00,98.89
3074.00,98.91
3073.00,98.93
3072.00,98.95
3071.00,98.95
3070.00,98.96
3069.00,98.98
3068.00,99.00
3067.00,99.01
3066.00,99.02
3065.00,99.04
3064.00,99.07
3063.00,99.10
3062.00,99.11
3061.00,99.12
3060.00,99.12
3059.00,99.13
3058.00,99.14
3057.00,99.16
3056.00,99.17
3055.00,99.18
3054.00,99.19
3053.00,99.20
3052.00,99.21
3051.00,99.22
3050.00,99.23
3049.00,99.24
3048.00,99.27
3047.00,99.30
3046.00,99.33
3045.00,99.35
3044.00,99.36
3043.00,99.36
3042.00,99.37
3041.00,99.38
3040.00,99.38
3039.00,99.38
3038.00,99.37
3037.00,99.36
3036.00,99.37
3035.00,99.39
3034.00,99.43
3033.00,99.46
3032.00,99.48
3031.00,99.49
3030.00,99.50
3029.00,99.50
3028.00,99.50
3027.00,99.50
3026.00,99.50
3025.00,99.51
3024.00,99.53
3023.00,99.54
3022.00,99.56
3021.00,99.58
3020.00,99.59
3019.00,99.60
3018.00,99.61
3017.00,99.62
3016.00,99.64
3015.00,99.65
3014.00,99.66
3013.00,99.66
3012.00,99.65
3011.00,99.65
3010.00,99.65
3009.00,99.65
3008.00,99.65
3007.00,99.67
3006.00,99.68
3005.00,99.70
3004.00,99.72
3003.00,99.72
3002.00,99.71
3001.00,99.71
3000.00,99.71
2999.00,99.73
2998.00,99.74
2997.00,99.74
2996.00,99.73
2995.00,99.71
2994.00,99.69
2993.00,99.68
2992.00,99.67
2991.00,99.67
2990.00,99.67
2989.00,99.67
2988.00,99.67
2987.00,99.66
2986.00,99.65
2985.00,99.65
2984.00,99.65
2983.00,99.65
2982.00,99.66
2981.00,99.66
2980.00,99.66
2979.00,99.66
2978.00,99.66
2977.00,99.66
2976.00,99.66
2975.00,99.65
2974.00,99.65
2973.00,99.64
2972.00,99.63
2971.00,99.61
2970.00,99.59
2969.00,99.58
2968.00,99.58
2967.00,99.57
2966.00,99.56
2965.00,99.56
2964.00,99.56
2963.00,99.55
2962.00,99.54
2961.00,99.52
2960.00,99.51
2959.00,99.50
2958.00,99.50
2957.00,99.48
2956.00,99.45
2955.00,99.42
2954.00,99.38
2953.00,99.36
2952.00,99.34
2951.00,99.33
2950.00,99.33
2949.00,99.33
2948.00,99.31
2947.00,99.28
2946.00,99.25
2945.00,99.22
2944.00,99.20
2943.00,99.17
2942.00,99.15
2941.00,99.12
2940.00,99.11
2939.00,99.09
2938.00,99.07
2937.00,99.04
2936.00,99.01
2935.00,98.98
2934.00,98.96
2933.00,98.94
2932.00,98.93
2931.00,98.92
2930.00,98.90
2929.00,98.89
2928.00,98.87
2927.00,98.86
2926.00,98.84
2925.00,98.81
2924.00,98.79
2923.00,98.77
2922.00,98.74
2921.00,98.73
2920.00,98.73
2919.00,98.74
2918.00,98.74
2917.00,98.73
2916.00,98.72
2915.00,98.69
2914.00,98.67
2913.00,98.64
2912.00,98.60
2911.00,98.56
2910.00,98.52
2909.00,98.50
2908.00,98.49
2907.00,98.49
2906.00,98.49
2905.00,98.48
2904.00,98.47
2903.00,98.44
2902.00,98.42
2901.00,98.40
2900.00,98.38
2899.00,98.36
2898.00,98.35
2897.00,98.35
2896.00,98.36
2895.00,98.37
2894.00,98.36
2893.00,98.34
2892.00,98.33
2891.00,98.32
2890.00,98.32
2889.00,98.33
2888.00,98.35
2887.00,98.37
2886.00,98.39
2885.00,98.40
2884.00,98.40
2883.00,98.41
2882.00,98.41
2881.00,98.42
2880.00,98.42
2879.00,98.43
2878.00,98.43
2877.00,98.44
2876.00,98.44
2875.00,98.45
2874.00,98.46
2873.00,98.48
2872.00,98.50
2871.00,98.52
2870.00,98.54
2869.00,98.56
2868.00,98.59
2867.00,98.61
2866.00,98.63
2865.00,98.64
2864.00,98.66
2863.00,98.67
2862.00,98.69
2861.00,98.71
2860.00,98.74
2859.00,98.79
2858.00,98.83
2857.00,98.86
2856.00,98.88
2855.00,98.89
2854.00,98.91
2853.00,98.94
2852.00,98.97
2851.00,99.01
2850.00,99.05
2849.00,99.09
2848.00,99.11
2847.00,99.11
2846.00,99.11
2845.00,99.12
2844.00,99.14
2843.00,99.17
2842.00,99.20
2841.00,99.23
2840.00,99.25
2839.00,99.27
2838.00,99.28
2837.00,99.29
2836.00,99.29
2835.00,99.30
2834.00,99.32
2833.00,99.36
2832.00,99.39
2831.00,99.41
2830.00,99.42
2829.00,99.42
2828.00,99.42
2827.00,99.43
2826.00,99.44
2825.00,99.45
2824.00,99.45
2823.00,99.45
2822.00,99.46
2821.00,99.46
2820.00,99.47
2819.00,99.48
2818.00,99.49
2817.00,99.49
2816.00,99.50
2815.00,99.51
2814.00,99.52
2813.00,99.54
2812.00,99.55
2811.00,99.56
2810.00,99.56
2809.00,99.56
2808.00,99.57
2807.00,99.59
2806.00,99.61
2805.00,99.63
2804.00,99.63
2803.00,99.63
2802.00,99.63
2801.00,99.63
2800.00,99.64
2799.00,99.66
2798.00,99.68
2797.00,99.70
2796.00,99.70
2795.00,99.70
2794.00,99.69
2793.00,99.69
2792.00,99.68
2791.00,99.69
2790.00,99.70
2789.00,99.71
2788.00,99.72
2787.00,99.73
2786.00,99.73
2785.00,99.73
2784.00,99.73
2783.00,99.74
2782.00,99.75
2781.00,99.76
2780.00,99.77
2779.00,99.78
2778.00,99.79
2777.00,99.79
2776.00,99.79
2775.00,99.79
2774.00,99.79
2773.00,99.80
2772.00,99.81
2771.00,99.82
2770.00,99.82
2769.00,99.82
2768.00,99.81
2767.00,99.81
2766.00,99.81
2765.00,99.82
2764.00,99.84
2763.00,99.85
2762.00,99.87
2761.00,99.87
2760.00,99.88
2759.00,99.87
2758.00,99.87
2757.00,99.85
2756.00,99.84
2755.00,99.84
2754.00,99.85
2753.00,99.86
2752.00,99.86
2751.00,99.86
2750.00,99.85
2749.00,99.85
2748.00,99.86
2747.00,99.86
2746.00,99.87
2745.00,99.86
2744.00,99.86
2743.00,99.85
2742.00,99.85
2741.00,99.86
2740.00,99.86
2739.00,99.86
2738.00,99.87
2737.00,99.88
2736.00,99.88
2735.00,99.87
2734.00,99.87
2733.00,99.88
2732.00,99.90
2731.00,99.92
2730.00,99.92
2729.00,99.92
2728.00,99.91
2727.00,99.91
2726.00,99.90
2725.00,99.91
2724.00,99.91
2723.00,99.92
2722.00,99.93
2721.00,99.93
2720.00,99.93
2719.00,99.93
2718.00,99.93
2717.00,99.93
2716.00,99.94
2715.00,99.94
2714.00,99.94
2713.00,99.93
2712.00,99.93
2711.00,99.92
2710.00,99.93
2709.00,99.94
2708.00,99.96
2707.00,99.97
2706.00,99.97
2705.00,99.98
2704.00,99.99
2703.00,99.99
2702.00,99.98
2701.00,99.97
2700.00,99.96
2699.00,99.95
2698.00,99.96
2697.00,99.98
2696.00,100.00
2695.00,100.02
2694.00,100.02
2693.00,100.01
2692.00,100.00
2691.00,100.00
2690.00,100.01
2689.00,100.01
2688.00,100.01
2687.00,100.01
2686.00,100.00
2685.00,99.99
2684.00,100.01
2683.00,100.03
2682.00,100.05
2681.00,100.05
2680.00,100.04
2679.00,100.04
2678.00,100.05
2677.00,100.06
2676.00,100.07
2675.00,100.06
2674.00,100.06
2673.00,100.06
2672.00,100.07
2671.00,100.08
2670.00,100.10
2669.00,100.10
2668.00,100.10
2667.00,100.10
2666.00,100.09
2665.00,100.08
2664.00,100.08
2663.00,100.08
2662.00,100.09
2661.00,100.08
2660.00,100.08
2659.00,100.08
2658.00,100.08
2657.00,100.10
2656.00,100.10
2655.00,100.10
2654.00,100.09
2653.00,100.09
2652.00,100.08
2651.00,100.08
2650.00,100.07
2649.00,100.07
2648.00,100.07
2647.00,100.07
2646.00,100.08
2645.00,100.09
2644.00,100.09
2643.00,100.09
2642.00,100.09
2641.00,100.07
2640.00,100.07
2639.00,100.07
2638.00,100.07
2637.00,100.06
2636.00,100.04
2635.00,100.02
2634.00,100.02
2633.00,100.03
2632.00,100.05
2631.00,100.08
2630.00,100.09
2629.00,100.09
2628.00,100.07
2627.00,100.06
2626.00,100.05
2625.00,100.06
2624.00,100.07
2623.00,100.06
2622.00,100.04
2621.00,100.03
2620.00,100.03
2619.00,100.05
2618.00,100.07
2617.00,100.09
2616.00,100.10
2615.00,100.11
2614.00,100.10
2613.00,100.08
2612.00,100.06
2611.00,100.05
2610.00,100.05
2609.00,100.07
2608.00,100.08
2607.00,100.09
2606.00,100.09
2605.00,100.09
2604.00,100.09
2603.00,100.09
2602.00,100.08
2601.00,100.07
2600.00,100.07
2599.00,100.06
2598.00,100.05
2597.00,100.03
2596.00,100.01
2595.00,100.00
2594.00,100.00
2593.00,100.01
2592.00,100.02
2591.00,100.03
2590.00,100.03
2589.00,100.04
2588.00,100.04
2587.00,100.04
2586.00,100.04
2585.00,100.04
2584.00,100.05
2583.00,100.06
2582.00,100.07
2581.00,100.07
2580.00,100.07
2579.00,100.06
2578.00,100.06
2577.00,100.06
2576.00,100.07
2575.00,100.08
2574.00,100.09
2573.00,100.10
2572.00,100.12
2571.00,100.12
2570.00,100.11
2569.00,100.10
2568.00,100.08
2567.00,100.08
2566.00,100.10
2565.00,100.12
2564.00,100.14
2563.00,100.14
2562.00,100.13
2561.00,100.12
2560.00,100.11
2559.00,100.11
2558.00,100.11
2557.00,100.10
2556.00,100.09
2555.00,100.07
2554.00,100.05
2553.00,100.04
2552.00,100.05
2551.00,100.06
2550.00,100.06
2549.00,100.06
2548.00,100.05
2547.00,100.05
2546.00,100.06
2545.00,100.08
2544.00,100.08
2543.00,100.08
2542.00,100.09
2541.00,100.12
2540.00,100.13
2539.00,100.13
2538.00,100.11
2537.00,100.10
2536.00,100.09
2535.00,100.09
2534.00,100.09
2533.00,100.09
2532.00,100.10
2531.00,100.11
2530.00,100.11
2529.00,100.10
2528.00,100.09
2527.00,100.09
2526.00,100.09
2525.00,100.09
2524.00,100.08
2523.00,100.07
2522.00,100.06
2521.00,100.06
2520.00,100.06
2519.00,100.07
2518.00,100.07
2517.00,100.07
2516.00,100.06
2515.00,100.06
2514.00,100.06
2513.00,100.06
2512.00,100.05
2511.00,100.04
2510.00,100.03
2509.00,100.04
2508.00,100.05
2507.00,100.06
2506.00,100.07
2505.00,100.07
2504.00,100.08
2503.00,100.08
2502.00,100.09
2501.00,100.12
2500.00,100.15
2499.00,100.17
2498.00,100.16
2497.00,100.15
2496.00,100.14
2495.00,100.13
2494.00,100.12
2493.00,100.10
2492.00,100.09
2491.00,100.09
2490.00,100.11
2489.00,100.13
2488.00,100.13
2487.00,100.13
2486.00,100.12
2485.00,100.12
2484.00,100.13
2483.00,100.14
2482.00,100.12
2481.00,100.10
2480.00,100.09
2479.00,100.09
2478.00,100.09
2477.00,100.10
2476.00,100.10
2475.00,100.10
2474.00,100.10
2473.00,100.09
2472.00,100.09
2471.00,100.10
2470.00,100.11
2469.00,100.11
2468.00,100.10
2467.00,100.09
2466.00,100.10
2465.00,100.11
2464.00,100.14
2463.00,100.15
2462.00,100.15
2461.00,100.14
2460.00,100.13
2459.00,100.13
2458.00,100.12
2457.00,100.10
2456.00,100.10
2455.00,100.12
2454.00,100.15
2453.00,100.18
2452.00,100.20
2451.00,100.21
2450.00,100.22
2449.00,100.22
2448.00,100.23
2447.00,100.23
2446.00,100.23
2445.00,100.22
2444.00,100.20
2443.00,100.20
2442.00,100.20
2441.00,100.19
2440.00,100.19
2439.00,100.19
2438.00,100.19
2437.00,100.20
2436.00,100.20
2435.00,100.20
2434.00,100.20
2433.00,100.20
2432.00,100.19
2431.00,100.18
2430.00,100.19
2429.00,100.20
2428.00,100.22
2427.00,100.24
2426.00,100.25
2425.00,100.25
2424.00,100.26
2423.00,100.25
2422.00,100.25
2421.00,100.24
2420.00,100.22
2419.00,100.21
2418.00,100.19
2417.00,100.19
2416.00,100.20
2415.00,100.21
2414.00,100.22
2413.00,100.22
2412.00,100.23
2411.00,100.25
2410.00,100.25
2409.00,100.25
2408.00,100.25
2407.00,100.27
2406.00,100.28
2405.00,100.29
2404.00,100.28
2403.00,100.27
2402.00,100.27
2401.00,100.27
2400.00,100.28
2399.00,100.27
2398.00,100.28
2397.00,100.29
2396.00,100.31
2395.00,100.32
2394.00,100.31
2393.00,100.30
2392.00,100.30
2391.00,100.31
2390.00,100.33
2389.00,100.35
2388.00,100.37
2387.00,100.38
2386.00,100.38
2385.00,100.37
2384.00,100.37
2383.00,100.38
2382.00,100.39
2381.00,100.39
2380.00,100.39
2379.00,100.37
2378.00,100.35
2377.00,100.34
2376.00,100.34
2375.00,100.38
2374.00,100.42
2373.00,100.44
2372.00,100.43
2371.00,100.41
2370.00,100.41
2369.00,100.43
2368.00,100.46
2367.00,100.46
2366.00,100.44
2365.00,100.38
2364.00,100.35
2363.00,100.37
2362.00,100.45
2361.00,100.55
2360.00,100.61
2359.00,100.59
2358.00,100.53
2357.00,100.47
2356.00,100.45
2355.00,100.44
2354.00,100.44
2353.00,100.44
2352.00,100.44
2351.00,100.44
2350.00,100.44
2349.00,100.44
2348.00,100.45
2347.00,100.46
2346.00,100.46
2345.00,100.45
2344.00,100.43
2343.00,100.43
2342.00,100.44
2341.00,100.44
2340.00,100.45
2339.00,100.46
2338.00,100.44
2337.00,100.41
2336.00,100.37
2335.00,100.36
2334.00,100.37
2333.00,100.37
2332.00,100.37
2331.00,100.39
2330.00,100.42
2329.00,100.45
2328.00,100.45
2327.00,100.43
2326.00,100.39
2325.00,100.37
2324.00,100.35
2323.00,100.33
2322.00,100.33
2321.00,100.33
2320.00,100.34
2319.00,100.34
2318.00,100.34
2317.00,100.33
2316.00,100.34
2315.00,100.35
2314.00,100.36
2313.00,100.36
2312.00,100.35
2311.00,100.34
2310.00,100.34
2309.00,100.34
2308.00,100.32
2307.00,100.30
2306.00,100.27
2305.00,100.24
2304.00,100.20
2303.00,100.16
2302.00,100.15
2301.00,100.17
2300.00,100.20
2299.00,100.21
2298.00,100.18
2297.00,100.14
2296.00,100.13
2295.00,100.14
2294.00,100.16
2293.00,100.16
2292.00,100.15
2291.00,100.14
2290.00,100.13
2289.00,100.13
2288.00,100.13
2287.00,100.12
2286.00,100.11
2285.00,100.09
2284.00,100.07
2283.00,100.06
2282.00,100.07
2281.00,100.08
2280.00,100.08
2279.00,100.08
2278.00,100.08
2277.00,100.08
2276.00,100.07
2275.00,100.06
2274.00,100.05
2273.00,100.04
2272.00,100.03
2271.00,100.01
2270.00,100.00
2269.00,99.98
2268.00,99.95
2267.00,99.93
2266.00,99.94
2265.00,99.95
2264.00,99.96
2263.00,99.95
2262.00,99.92
2261.00,99.89
2260.00,99.89
2259.00,99.91
2258.00,99.93
2257.00,99.94
2256.00,99.93
2255.00,99.92
2254.00,99.92
2253.00,99.94
2252.00,99.95
2251.00,99.95
2250.00,99.94
2249.00,99.93
2248.00,99.92
2247.00,99.92
2246.00,99.91
2245.00,99.91
2244.00,99.90
2243.00,99.90
2242.00,99.90
2241.00,99.89
2240.00,99.86
2239.00,99.85
2238.00,99.84
2237.00,99.83
2236.00,99.80
2235.00,99.76
2234.00,99.73
2233.00,99.72
2232.00,99.73
2231.00,99.75
2230.00,99.74
2229.00,99.71
2228.00,99.69
2227.00,99.68
2226.00,99.68
2225.00,99.68
2224.00,99.68
2223.00,99.71
2222.00,99.75
2221.00,99.74
2220.00,99.70
2219.00,99.65
2218.00,99.64
2217.00,99.67
2216.00,99.72
2215.00,99.78
2214.00,99.82
2213.00,99.84
2212.00,99.81
2211.00,99.75
2210.00,99.68
2209.00,99.65
2208.00,99.65
2207.00,99.68
2206.00,99.72
2205.00,99.72
2204.00,99.67
2203.00,99.60
2202.00,99.53
2201.00,99.49
2200.00,99.47
2199.00,99.48
2198.00,99.50
2197.00,99.54
2196.00,99.57
2195.00,99.58
2194.00,99.57
2193.00,99.55
2192.00,99.52
2191.00,99.48
2190.00,99.44
2189.00,99.43
2188.00,99.45
2187.00,99.45
2186.00,99.43
2185.00,99.43
2184.00,99.46
2183.00,99.50
2182.00,99.49
2181.00,99.44
2180.00,99.38
2179.00,99.36
2178.00,99.37
2177.00,99.39
2176.00,99.40
2175.00,99.38
2174.00,99.35
2173.00,99.31
2172.00,99.28
2171.00,99.27
2170.00,99.26
2169.00,99.25
2168.00,99.22
2167.00,99.20
2166.00,99.18
2165.00,99.15
2164.00,99.11
2163.00,99.08
2162.00,99.09
2161.00,99.15
2160.00,99.25
2159.00,99.35
2158.00,99.44
2157.00,99.50
2156.00,99.56
2155.00,99.63
2154.00,99.69
2153.00,99.74
2152.00,99.76
2151.00,99.75
2150.00,99.74
2149.00,99.73
2148.00,99.72
2147.00,99.70
2146.00,99.66
2145.00,99.62
2144.00,99.59
2143.00,99.58
2142.00,99.60
2141.00,99.64
2140.00,99.68
2139.00,99.71
2138.00,99.74
2137.00,99.79
2136.00,99.85
2135.00,99.87
2134.00,99.87
2133.00,99.84
2132.00,99.82
2131.00,99.82
2130.00,99.85
2129.00,99.88
2128.00,99.91
2127.00,99.92
2126.00,99.94
2125.00,99.96
2124.00,99.98
2123.00,99.99
2122.00,99.98
2121.00,99.96
2120.00,99.95
2119.00,99.94
2118.00,99.91
2117.00,99.87
2116.00,99.85
2115.00,99.85
2114.00,99.88
2113.00,99.89
2112.00,99.87
2111.00,99.84
2110.00,99.81
2109.00,99.82
2108.00,99.83
2107.00,99.85
2106.00,99.85
2105.00,99.84
2104.00,99.84
2103.00,99.86
2102.00,99.88
2101.00,99.90
2100.00,99.92
2099.00,99.92
2098.00,99.92
2097.00,99.91
2096.00,99.91
2095.00,99.93
2094.00,99.97
2093.00,100.00
2092.00,100.02
2091.00,100.00
2090.00,99.98
2089.00,99.96
2088.00,99.94
2087.00,99.92
2086.00,99.89
2085.00,99.88
2084.00,99.88
2083.00,99.88
2082.00,99.86
2081.00,99.81
2080.00,99.78
2079.00,99.76
2078.00,99.77
2077.00,99.80
2076.00,99.83
2075.00,99.87
2074.00,99.90
2073.00,99.92
2072.00,99.91
2071.00,99.87
2070.00,99.81
2069.00,99.76
2068.00,99.74
2067.00,99.77
2066.00,99.81
2065.00,99.84
2064.00,99.83
2063.00,99.80
2062.00,99.77
2061.00,99.76
2060.00,99.78
2059.00,99.78
2058.00,99.77
2057.00,99.76
2056.00,99.75
2055.00,99.74
2054.00,99.72
2053.00,99.69
2052.00,99.65
2051.00,99.64
2050.00,99.65
2049.00,99.68
2048.00,99.70
2047.00,99.68
2046.00,99.62
2045.00,99.53
2044.00,99.45
2043.00,99.41
2042.00,99.42
2041.00,99.43
2040.00,99.43
2039.00,99.41
2038.00,99.40
2037.00,99.42
2036.00,99.46
2035.00,99.48
2034.00,99.46
2033.00,99.43
2032.00,99.41
2031.00,99.39
2030.00,99.36
2029.00,99.33
2028.00,99.34
2027.00,99.39
2026.00,99.44
2025.00,99.47
2024.00,99.47
2023.00,99.47
2022.00,99.48
2021.00,99.50
2020.00,99.50
2019.00,99.48
2018.00,99.46
2017.00,99.46
2016.00,99.50
2015.00,99.56
2014.00,99.60
2013.00,99.60
2012.00,99.57
2011.00,99.53
2010.00,99.49
2009.00,99.48
2008.00,99.50
2007.00,99.55
2006.00,99.61
2005.00,99.64
2004.00,99.64
2003.00,99.65
2002.00,99.67
2001.00,99.71
2000.00,99.75
1999.00,99.78
1998.00,99.80
1997.00,99.80
1996.00,99.79
1995.00,99.75
1994.00,99.70
1993.00,99.64
1992.00,99.62
1991.00,99.63
1990.00,99.63
1989.00,99.60
1988.00,99.54
1987.00,99.48
1986.00,99.45
1985.00,99.42
1984.00,99.41
1983.00,99.42
1982.00,99.47
1981.00,99.52
1980.00,99.56
1979.00,99.57
1978.00,99.59
1977.00,99.64
1976.00,99.73
1975.00,99.81
1974.00,99.84
1973.00,99.81
1972.00,99.78
1971.00,99.77
1970.00,99.78
1969.00,99.78
1968.00,99.75
1967.00,99.72
1966.00,99.70
1965.00,99.68
1964.00,99.66
1963.00,99.66
1962.00,99.70
1961.00,99.78
1960.00,99.88
1959.00,99.95
1958.00,99.98
1957.00,99.96
1956.00,99.92
1955.00,99.88
1954.00,99.88
1953.00,99.90
1952.00,99.94
1951.00,99.98
1950.00,99.99
1949.00,100.00
1948.00,100.03
1947.00,100.07
1946.00,100.11
1945.00,100.13
1944.00,100.10
1943.00,100.06
1942.00,100.03
1941.00,100.03
1940.00,100.04
1939.00,100.04
1938.00,100.04
1937.00,100.03
1936.00,100.04
1935.00,100.06
1934.00,100.08
1933.00,100.10
1932.00,100.12
1931.00,100.12
1930.00,100.11
1929.00,100.09
1928.00,100.07
1927.00,100.06
1926.00,100.07
1925.00,100.10
1924.00,100.13
1923.00,100.16
1922.00,100.17
1921.00,100.16
1920.00,100.13
1919.00,100.11
1918.00,100.13
1917.00,100.16
1916.00,100.19
1915.00,100.22
1914.00,100.24
1913.00,100.25
1912.00,100.25
1911.00,100.25
1910.00,100.25
1909.00,100.26
1908.00,100.25
1907.00,100.24
1906.00,100.22
1905.00,100.21
1904.00,100.20
1903.00,100.21
1902.00,100.23
1901.00,100.25
1900.00,100.27
1899.00,100.29
1898.00,100.29
1897.00,100.30
1896.00,100.31
1895.00,100.31
1894.00,100.30
1893.00,100.29
1892.00,100.27
1891.00,100.27
1890.00,100.27
1889.00,100.29
1888.00,100.30
1887.00,100.30
1886.00,100.29
1885.00,100.28
1884.00,100.27
1883.00,100.27
1882.00,100.29
1881.00,100.31
1880.00,100.32
1879.00,100.32
1878.00,100.32
1877.00,100.32
1876.00,100.32
1875.00,100.32
1874.00,100.32
1873.00,100.32
1872.00,100.32
1871.00,100.32
1870.00,100.33
1869.00,100.33
1868.00,100.33
1867.00,100.34
1866.00,100.33
1865.00,100.32
1864.00,100.31
1863.00,100.31
1862.00,100.31
1861.00,100.33
1860.00,100.33
1859.00,100.33
1858.00,100.31
1857.00,100.30
1856.00,100.29
1855.00,100.31
1854.00,100.33
1853.00,100.34
1852.00,100.33
1851.00,100.33
1850.00,100.34
1849.00,100.36
1848.00,100.38
1847.00,100.41
1846.00,100.43
1845.00,100.45
1844.00,100.47
1843.00,100.47
1842.00,100.46
1841.00,100.45
1840.00,100.44
1839.00,100.43
1838.00,100.41
1837.00,100.40
1836.00,100.38
1835.00,100.36
1834.00,100.36
1833.00,100.36
1832.00,100.37
1831.00,100.39
1830.00,100.40
1829.00,100.41
1828.00,100.42
1827.00,100.42
1826.00,100.42
1825.00,100.41
1824.00,100.41
1823.00,100.41
1822.00,100.41
1821.00,100.42
1820.00,100.42
1819.00,100.42
1818.00,100.43
1817.00,100.43
1816.00,100.45
1815.00,100.45
1814.00,100.44
1813.00,100.42
1812.00,100.41
1811.00,100.40
1810.00,100.40
1809.00,100.40
1808.00,100.41
1807.00,100.43
1806.00,100.44
1805.00,100.43
1804.00,100.41
1803.00,100.39
1802.00,100.38
1801.00,100.37
1800.00,100.37
1799.00,100.38
1798.00,100.40
1797.00,100.42
1796.00,100.44
1795.00,100.44
1794.00,100.43
1793.00,100.40
1792.00,100.39
1791.00,100.39
1790.00,100.41
1789.00,100.43
1788.00,100.45
1787.00,100.46
1786.00,100.47
1785.00,100.47
1784.00,100.46
1783.00,100.45
1782.00,100.44
1781.00,100.43
1780.00,100.43
1779.00,100.43
1778.00,100.43
1777.00,100.44
1776.00,100.44
1775.00,100.43
1774.00,100.41
1773.00,100.39
1772.00,100.37
1771.00,100.37
1770.00,100.38
1769.00,100.39
1768.00,100.40
1767.00,100.40
1766.00,100.41
1765.00,100.42
1764.00,100.43
1763.00,100.42
1762.00,100.40
1761.00,100.37
1760.00,100.35
1759.00,100.33
1758.00,100.33
1757.00,100.34
1756.00,100.35
1755.00,100.36
1754.00,100.35
1753.00,100.33
1752.00,100.30
1751.00,100.27
1750.00,100.26
1749.00,100.26
1748.00,100.26
1747.00,100.27
1746.00,100.28
1745.00,100.28
1744.00,100.28
1743.00,100.28
1742.00,100.28
1741.00,100.29
1740.00,100.31
1739.00,100.32
1738.00,100.31
1737.00,100.29
1736.00,100.28
1735.00,100.28
1734.00,100.29
1733.00,100.31
1732.00,100.31
1731.00,100.31
1730.00,100.31
1729.00,100.32
1728.00,100.34
1727.00,100.36
1726.00,100.37
1725.00,100.37
1724.00,100.37
1723.00,100.36
1722.00,100.36
1721.00,100.35
1720.00,100.32
1719.00,100.28
1718.00,100.23
1717.00,100.20
1716.00,100.18
1715.00,100.19
1714.00,100.21
1713.00,100.23
1712.00,100.26
1711.00,100.28
1710.00,100.30
1709.00,100.30
1708.00,100.29
1707.00,100.27
1706.00,100.24
1705.00,100.23
1704.00,100.21
1703.00,100.20
1702.00,100.20
1701.00,100.19
1700.00,100.19
1699.00,100.19
1698.00,100.19
1697.00,100.19
1696.00,100.17
1695.00,100.15
1694.00,100.14
1693.00,100.13
1692.00,100.13
1691.00,100.13
1690.00,100.11
1689.00,100.08
1688.00,100.06
1687.00,100.04
1686.00,100.05
1685.00,100.05
1684.00,100.05
1683.00,100.04
1682.00,100.03
1681.00,100.01
1680.00,99.99
1679.00,99.96
1678.00,99.94
1677.00,99.93
1676.00,99.92
1675.00,99.90
1674.00,99.89
1673.00,99.86
1672.00,99.83
1671.00,99.81
1670.00,99.79
1669.00,99.77
1668.00,99.75
1667.00,99.72
1666.00,99.69
1665.00,99.67
1664.00,99.65
1663.00,99.63
1662.00,99.60
1661.00,99.57
1660.00,99.54
1659.00,99.51
1658.00,99.50
1657.00,99.50
1656.00,99.49
1655.00,99.49
1654.00,99.47
1653.00,99.44
1652.00,99.43
1651.00,99.43
1650.00,99.41
1649.00,99.39
1648.00,99.36
1647.00,99.34
1646.00,99.35
1645.00,99.38
1644.00,99.39
1643.00,99.39
1642.00,99.38
1641.00,99.37
1640.00,99.37
1639.00,99.38
1638.00,99.39
1637.00,99.40
1636.00,99.40
1635.00,99.40
1634.00,99.40
1633.00,99.39
1632.00,99.39
1631.00,99.40
1630.00,99.42
1629.00,99.44
1628.00,99.45
1627.00,99.46
1626.00,99.45
1625.00,99.45
1624.00,99.45
1623.00,99.47
1622.00,99.49
1621.00,99.51
1620.00,99.50
1619.00,99.48
1618.00,99.46
1617.00,99.45
1616.00,99.46
1615.00,99.50
1614.00,99.55
1613.00,99.60
1612.00,99.64
1611.00,99.67
1610.00,99.69
1609.00,99.69
1608.00,99.70
1607.00,99.70
1606.00,99.72
1605.00,99.74
1604.00,99.75
1603.00,99.76
1602.00,99.76
1601.00,99.77
1600.00,99.79
1599.00,99.81
1598.00,99.82
1597.00,99.81
1596.00,99.80
1595.00,99.78
1594.00,99.78
1593.00,99.80
1592.00,99.83
1591.00,99.85
1590.00,99.86
1589.00,99.87
1588.00,99.87
1587.00,99.87
1586.00,99.87
1585.00,99.88
1584.00,99.90
1583.00,99.92
1582.00,99.94
1581.00,99.96
1580.00,99.97
1579.00,99.99
1578.00,100.00
1577.00,100.00
1576.00,99.99
1575.00,99.99
1574.00,100.00
1573.00,100.01
1572.00,100.02
1571.00,100.03
1570.00,100.04
1569.00,100.05
1568.00,100.05
1567.00,100.07
1566.00,100.09
1565.00,100.10
1564.00,100.10
1563.00,100.10
1562.00,100.09
1561.00,100.10
1560.00,100.10
1559.00,100.09
1558.00,100.09
1557.00,100.11
1556.00,100.10
1555.00,100.10
1554.00,100.10
1553.00,100.11
1552.00,100.12
1551.00,100.13
1550.00,100.14
1549.00,100.14
1548.00,100.14
1547.00,100.13
1546.00,100.12
1545.00,100.10
1544.00,100.09
1543.00,100.10
1542.00,100.12
1541.00,100.14
1540.00,100.15
1539.00,100.17
1538.00,100.19
1537.00,100.20
1536.00,100.20
1535.00,100.19
1534.00,100.18
1533.00,100.17
1532.00,100.18
1531.00,100.19
1530.00,100.20
1529.00,100.21
1528.00,100.22
1527.00,100.21
1526.00,100.20
1525.00,100.19
1524.00,100.20
1523.00,100.21
1522.00,100.21
1521.00,100.20
1520.00,100.20
1519.00,100.20
1518.00,100.20
1517.00,100.21
1516.00,100.22
1515.00,100.23
1514.00,100.23
1513.00,100.21
1512.00,100.19
1511.00,100.17
1510.00,100.17
1509.00,100.17
1508.00,100.17
1507.00,100.17
1506.00,100.16
1505.00,100.16
1504.00,100.14
1503.00,100.13
1502.00,100.11
1501.00,100.09
1500.00,100.08
1499.00,100.07
1498.00,100.06
1497.00,100.05
1496.00,100.05
1495.00,100.04
1494.00,100.03
1493.00,100.02
1492.00,100.00
1491.00,99.97
1490.00,99.93
1489.00,99.90
1488.00,99.87
1487.00,99.84
1486.00,99.82
1485.00,99.78
1484.00,99.74
1483.00,99.70
1482.00,99.66
1481.00,99.62
1480.00,99.57
1479.00,99.53
1478.00,99.48
1477.00,99.44
1476.00,99.41
1475.00,99.38
1474.00,99.35
1473.00,99.32
1472.00,99.27
1471.00,99.21
1470.00,99.14
1469.00,99.08
1468.00,99.04
1467.00,99.02
1466.00,99.00
1465.00,98.99
1464.00,98.97
1463.00,98.96
1462.00,98.93
1461.00,98.90
1460.00,98.85
1459.00,98.82
1458.00,98.80
1457.00,98.79
1456.00,98.79
1455.00,98.78
1454.00,98.75
1453.00,98.73
1452.00,98.70
1451.00,98.68
1450.00,98.66
1449.00,98.63
1448.00,98.59
1447.00,98.56
1446.00,98.54
1445.00,98.52
1444.00,98.49
1443.00,98.46
1442.00,98.44
1441.00,98.42
1440.00,98.39
1439.00,98.38
1438.00,98.38
1437.00,98.38
1436.00,98.37
1435.00,98.36
1434.00,98.34
1433.00,98.32
1432.00,98.30
1431.00,98.30
1430.00,98.29
1429.00,98.29
1428.00,98.28
1427.00,98.27
1426.00,98.25
1425.00,98.23
1424.00,98.20
1423.00,98.17
1422.00,98.17
1421.00,98.17
1420.00,98.18
1419.00,98.17
1418.00,98.17
1417.00,98.16
1416.00,98.15
1415.00,98.15
1414.00,98.15
1413.00,98.16
1412.00,98.19
1411.00,98.21
1410.00,98.22
1409.00,98.23
1408.00,98.25
1407.00,98.26
1406.00,98.26
1405.00,98.26
1404.00,98.25
1403.00,98.25
1402.00,98.25
1401.00,98.24
1400.00,98.22
1399.00,98.20
1398.00,98.18
1397.00,98.18
1396.00,98.18
1395.00,98.19
1394.00,98.19
1393.00,98.19
1392.00,98.17
1391.00,98.15
1390.00,98.13
1389.00,98.10
1388.00,98.07
1387.00,98.02
1386.00,97.97
1385.00,97.91
1384.00,97.85
1383.00,97.76
1382.00,97.66
1381.00,97.57
1380.00,97.47
1379.00,97.38
1378.00,97.30
1377.00,97.23
1376.00,97.16
1375.00,97.10
1374.00,97.05
1373.00,97.01
1372.00,96.99
1371.00,96.97
1370.00,96.95
1369.00,96.93
1368.00,96.91
1367.00,96.90
1366.00,96.90
1365.00,96.90
1364.00,96.91
1363.00,96.92
1362.00,96.94
1361.00,96.97
1360.00,97.03
1359.00,97.09
1358.00,97.15
1357.00,97.20
1356.00,97.24
1355.00,97.29
1354.00,97.33
1353.00,97.36
1352.00,97.39
1351.00,97.40
1350.00,97.42
1349.00,97.43
1348.00,97.43
1347.00,97.42
1346.00,97.40
1345.00,97.39
1344.00,97.38
1343.00,97.37
1342.00,97.36
1341.00,97.34
1340.00,97.32
1339.00,97.29
1338.00,97.28
1337.00,97.26
1336.00,97.26
1335.00,97.26
1334.00,97.26
1333.00,97.27
1332.00,97.28
1331.00,97.28
1330.00,97.28
1329.00,97.28
1328.00,97.29
1327.00,97.30
1326.00,97.32
1325.00,97.33
1324.00,97.33
1323.00,97.31
1322.00,97.27
1321.00,97.23
1320.00,97.17
1319.00,97.11
1318.00,97.03
1317.00,96.97
1316.00,96.91
1315.00,96.89
1314.00,96.89
1313.00,96.92
1312.00,96.95
1311.00,96.99
1310.00,97.04
1309.00,97.08
1308.00,97.13
1307.00,97.19
1306.00,97.24
1305.00,97.30
1304.00,97.35
1303.00,97.41
1302.00,97.46
1301.00,97.51
1300.00,97.56
1299.00,97.61
1298.00,97.65
1297.00,97.69
1296.00,97.73
1295.00,97.78
1294.00,97.84
1293.00,97.90
1292.00,97.96
1291.00,98.01
1290.00,98.07
1289.00,98.13
1288.00,98.18
1287.00,98.21
1286.00,98.22
1285.00,98.22
1284.00,98.21
1283.00,98.19
1282.00,98.16
1281.00,98.13
1280.00,98.10
1279.00,98.07
1278.00,98.05
1277.00,98.03
1276.00,98.02
1275.00,98.02
1274.00,98.03
1273.00,98.04
1272.00,98.05
1271.00,98.05
1270.00,98.04
1269.00,98.02
1268.00,97.99
1267.00,97.97
1266.00,97.97
1265.00,97.98
1264.00,97.99
1263.00,97.99
1262.00,97.98
1261.00,97.99
1260.00,98.00
1259.00,98.02
1258.00,98.04
1257.00,98.07
1256.00,98.11
1255.00,98.15
1254.00,98.19
1253.00,98.23
1252.00,98.25
1251.00,98.28
1250.00,98.30
1249.00,98.32
1248.00,98.33
1247.00,98.34
1246.00,98.36
1245.00,98.37
1244.00,98.38
1243.00,98.38
1242.00,98.38
1241.00,98.37
1240.00,98.37
1239.00,98.37
1238.00,98.37
1237.00,98.38
1236.00,98.39
1235.00,98.39
1234.00,98.38
1233.00,98.38
1232.00,98.38
1231.00,98.38
1230.00,98.38
1229.00,98.39
1228.00,98.40
1227.00,98.41
1226.00,98.43
1225.00,98.46
1224.00,98.50
1223.00,98.55
1222.00,98.61
1221.00,98.67
1220.00,98.74
1219.00,98.81
1218.00,98.87
1217.00,98.91
1216.00,98.94
1215.00,98.96
1214.00,98.97
1213.00,98.98
1212.00,98.99
1211.00,99.00
1210.00,98.99
1209.00,98.95
1208.00,98.91
1207.00,98.84
1206.00,98.78
1205.00,98.70
1204.00,98.63
1203.00,98.58
1202.00,98.54
1201.00,98.51
1200.00,98.49
1199.00,98.48
1198.00,98.49
1197.00,98.51
1196.00,98.56
1195.00,98.62
1194.00,98.69
1193.00,98.75
1192.00,98.82
1191.00,98.89
1190.00,98.98
1189.00,99.07
1188.00,99.15
1187.00,99.21
1186.00,99.24
1185.00,99.25
1184.00,99.25
1183.00,99.22
1182.00,99.18
1181.00,99.13
1180.00,99.08
1179.00,99.02
1178.00,98.94
1177.00,98.84
1176.00,98.73
1175.00,98.60
1174.00,98.47
1173.00,98.33
1172.00,98.17
1171.00,98.00
1170.00,97.82
1169.00,97.62
1168.00,97.40
1167.00,97.16
1166.00,96.90
1165.00,96.65
1164.00,96.42
1163.00,96.20
1162.00,96.01
1161.00,95.83
1160.00,95.68
1159.00,95.55
1158.00,95.47
1157.00,95.42
1156.00,95.41
1155.00,95.44
1154.00,95.50
1153.00,95.58
1152.00,95.69
1151.00,95.81
1150.00,95.94
1149.00,96.04
1148.00,96.12
1147.00,96.20
1146.00,96.30
1145.00,96.41
1144.00,96.51
1143.00,96.58
1142.00,96.63
1141.00,96.65
1140.00,96.65
1139.00,96.62
1138.00,96.58
1137.00,96.53
1136.00,96.46
1135.00,96.38
1134.00,96.28
1133.00,96.18
1132.00,96.06
1131.00,95.92
1130.00,95.77
1129.00,95.62
1128.00,95.48
1127.00,95.34
1126.00,95.18
1125.00,95.01
1124.00,94.83
1123.00,94.67
1122.00,94.51
1121.00,94.35
1120.00,94.20
1119.00,94.05
1118.00,93.89
1117.00,93.75
1116.00,93.63
1115.00,93.55
1114.00,93.47
1113.00,93.38
1112.00,93.27
1111.00,93.18
1110.00,93.11
1109.00,93.06
1108.00,93.00
1107.00,92.96
1106.00,92.90
1105.00,92.83
1104.00,92.75
1103.00,92.65
1102.00,92.55
1101.00,92.44
1100.00,92.32
1099.00,92.19
1098.00,92.07
1097.00,91.95
1096.00,91.83
1095.00,91.72
1094.00,91.63
1093.00,91.57
1092.00,91.50
1091.00,91.43
1090.00,91.35
1089.00,91.23
1088.00,91.11
1087.00,90.97
1086.00,90.83
1085.00,90.70
1084.00,90.56
1083.00,90.43
1082.00,90.31
1081.00,90.20
1080.00,90.09
1079.00,89.98
1078.00,89.82
1077.00,89.63
1076.00,89.42
1075.00,89.23
1074.00,89.08
1073.00,88.94
1072.00,88.82
1071.00,88.72
1070.00,88.63
1069.00,88.52
1068.00,88.38
1067.00,88.22
1066.00,88.05
1065.00,87.89
1064.00,87.73
1063.00,87.56
1062.00,87.40
1061.00,87.24
1060.00,87.10
1059.00,86.98
1058.00,86.87
1057.00,86.78
1056.00,86.72
1055.00,86.69
1054.00,86.69
1053.00,86.68
1052.00,86.67
1051.00,86.66
1050.00,86.65
1049.00,86.62
1048.00,86.56
1047.00,86.50
1046.00,86.45
1045.00,86.39
1044.00,86.35
1043.00,86.32
1042.00,86.30
1041.00,86.29
1040.00,86.26
1039.00,86.22
1038.00,86.15
1037.00,86.07
1036.00,85.97
1035.00,85.87
1034.00,85.77
1033.00,85.67
1032.00,85.55
1031.00,85.42
1030.00,85.28
1029.00,85.13
1028.00,84.97
1027.00,84.83
1026.00,84.72
1025.00,84.63
1024.00,84.54
1023.00,84.46
1022.00,84.37
1021.00,84.28
1020.00,84.21
1019.00,84.17
1018.00,84.16
1017.00,84.15
1016.00,84.15
1015.00,84.18
1014.00,84.24
1013.00,84.33
1012.00,84.43
1011.00,84.55
1010.00,84.69
1009.00,84.82
1008.00,84.95
1007.00,85.06
1006.00,85.15
1005.00,85.22
1004.00,85.27
1003.00,85.29
1002.00,85.28
1001.00,85.23
1000.00,85.16
999.00,85.06
998.00,84.95
997.00,84.86
996.00,84.79
995.00,84.74
994.00,84.73
993.00,84.73
992.00,84.77
991.00,84.86
990.00,84.98
989.00,85.14
988.00,85.34
987.00,85.58
986.00,85.84
985.00,86.11
984.00,86.38
983.00,86.66
982.00,86.93
981.00,87.19
980.00,87.45
979.00,87.70
978.00,87.96
977.00,88.22
976.00,88.45
975.00,88.66
974.00,88.87
973.00,89.06
972.00,89.24
971.00,89.40
970.00,89.53
969.00,89.64
968.00,89.74
967.00,89.85
966.00,89.98
965.00,90.11
964.00,90.22
963.00,90.31
962.00,90.40
961.00,90.50
960.00,90.62
959.00,90.76
958.00,90.92
957.00,91.08
956.00,91.23
955.00,91.37
954.00,91.52
953.00,91.66
952.00,91.80
951.00,91.93
950.00,92.05
949.00,92.17
948.00,92.27
947.00,92.37
946.00,92.47
945.00,92.58
944.00,92.70
943.00,92.81
942.00,92.90
941.00,92.99
940.00,93.06
939.00,93.14
938.00,93.22
937.00,93.30
936.00,93.36
935.00,93.40
934.00,93.43
933.00,93.46
932.00,93.51
931.00,93.56
930.00,93.62
929.00,93.70
928.00,93.77
927.00,93.85
926.00,93.92
925.00,93.97
924.00,94.03
923.00,94.08
922.00,94.15
921.00,94.20
920.00,94.22
919.00,94.24
918.00,94.25
917.00,94.28
916.00,94.31
915.00,94.32
914.00,94.31
913.00,94.29
912.00,94.27
911.00,94.24
910.00,94.19
909.00,94.13
908.00,94.07
907.00,94.02
906.00,93.95
905.00,93.86
904.00,93.77
903.00,93.66
902.00,93.54
901.00,93.40
900.00,93.26
899.00,93.13
898.00,93.03
897.00,92.95
896.00,92.85
895.00,92.78
894.00,92.74
893.00,92.76
892.00,92.83
891.00,92.91
890.00,93.01
889.00,93.12
888.00,93.25
887.00,93.40
886.00,93.56
885.00,93.71
884.00,93.84
883.00,93.95
882.00,94.07
881.00,94.20
880.00,94.34
879.00,94.45
878.00,94.53
877.00,94.60
876.00,94.66
875.00,94.74
874.00,94.83
873.00,94.90
872.00,94.95
871.00,94.98
870.00,95.02
869.00,95.08
868.00,95.16
867.00,95.22
866.00,95.27
865.00,95.29
864.00,95.31
863.00,95.34
862.00,95.38
861.00,95.41
860.00,95.42
859.00,95.42
858.00,95.42
857.00,95.45
856.00,95.48
855.00,95.50
854.00,95.52
853.00,95.54
852.00,95.56
851.00,95.56
850.00,95.55
849.00,95.55
848.00,95.55
847.00,95.56
846.00,95.57
845.00,95.58
844.00,95.61
843.00,95.63
842.00,95.64
841.00,95.63
840.00,95.60
839.00,95.59
838.00,95.58
837.00,95.58
836.00,95.56
835.00,95.52
834.00,95.48
833.00,95.44
832.00,95.42
831.00,95.41
830.00,95.41
829.00,95.42
828.00,95.43
827.00,95.43
826.00,95.43
825.00,95.45
824.00,95.50
823.00,95.55
822.00,95.59
821.00,95.60
820.00,95.59
819.00,95.57
818.00,95.54
817.00,95.50
816.00,95.45
815.00,95.41
814.00,95.38
813.00,95.37
812.00,95.37
811.00,95.40
810.00,95.43
809.00,95.46
808.00,95.47
807.00,95.47
806.00,95.46
805.00,95.45
804.00,95.44
803.00,95.44
802.00,95.43
801.00,95.44
800.00,95.44
799.00,95.43
798.00,95.42
797.00,95.38
796.00,95.32
795.00,95.24
794.00,95.18
793.00,95.16
792.00,95.15
791.00,95.15
790.00,95.14
789.00,95.15
788.00,95.18
787.00,95.22
786.00,95.24
785.00,95.24
784.00,95.23
783.00,95.20
782.00,95.17
781.00,95.13
780.00,95.08
779.00,95.05
778.00,95.03
777.00,95.02
776.00,95.00
775.00,94.98
774.00,94.96
773.00,94.94
772.00,94.92
771.00,94.89
770.00,94.86
769.00,94.84
768.00,94.84
767.00,94.85
766.00,94.86
765.00,94.86
764.00,94.85
763.00,94.83
762.00,94.81
761.00,94.79
760.00,94.77
759.00,94.74
758.00,94.68
757.00,94.62
756.00,94.56
755.00,94.52
754.00,94.51
753.00,94.50
752.00,94.48
751.00,94.47
750.00,94.45
749.00,94.43
748.00,94.42
747.00,94.39
746.00,94.35
745.00,94.30
744.00,94.26
743.00,94.24
742.00,94.24
741.00,94.25
740.00,94.27
739.00,94.28
738.00,94.24
737.00,94.15
736.00,94.02
735.00,93.89
734.00,93.81
733.00,93.79
732.00,93.81
731.00,93.85
730.00,93.88
729.00,93.89
728.00,93.88
727.00,93.84
726.00,93.80
725.00,93.77
724.00,93.75
723.00,93.75
722.00,93.73
721.00,93.67
720.00,93.57
719.00,93.48
718.00,93.42
717.00,93.38
716.00,93.35
715.00,93.34
714.00,93.35
713.00,93.38
712.00,93.40
711.00,93.40
710.00,93.40
709.00,93.39
708.00,93.34
707.00,93.26
706.00,93.17
705.00,93.10
704.00,93.07
703.00,93.07
702.00,93.06
701.00,93.06
700.00,93.06
699.00,93.08
698.00,93.09
697.00,93.08
696.00,93.06
695.00,93.06
694.00,93.05
693.00,93.02
692.00,92.98
691.00,92.96
690.00,92.97
689.00,92.98
688.00,92.96
687.00,92.92
686.00,92.88
685.00,92.86
684.00,92.84
683.00,92.81
682.00,92.71
681.00,92.53
680.00,92.31
679.00,92.11
678.00,91.96
677.00,91.81
676.00,91.58
675.00,91.27
674.00,90.94
673.00,90.65
672.00,90.43
671.00,90.27
670.00,90.13
669.00,90.02
668.00,89.99
667.00,90.01
666.00,90.01
665.00,89.98
664.00,89.94
663.00,89.90
662.00,89.86
661.00,89.84
660.00,89.83
659.00,89.86
658.00,89.95
657.00,90.08
656.00,90.20
655.00,90.27
654.00,90.25
653.00,90.15
652.00,90.05
651.00,90.01
650.00,90.06
649.00,90.13
648.00,90.12
647.00,90.03
646.00,89.94
645.00,89.91
644.00,89.96
643.00,90.03
642.00,90.07
641.00,90.07
640.00,90.03
639.00,89.95
638.00,89.82
637.00,89.70
636.00,89.68
635.00,89.72
634.00,89.74
633.00,89.65
632.00,89.48
631.00,89.32
630.00,89.26
629.00,89.26
628.00,89.28
627.00,89.27
626.00,89.23
625.00,89.15
624.00,89.05
623.00,88.97
622.00,88.97
621.00,89.05
620.00,89.13
619.00,89.09
618.00,88.87
617.00,88.57
616.00,88.46
615.00,88.65
614.00,88.96
613.00,89.02
612.00,88.73
611.00,88.29
610.00,88.00
609.00,87.93
608.00,87.95
607.00,87.96
606.00,87.93
605.00,87.86
604.00,87.77
603.00,87.70
602.00,87.69
601.00,87.72
600.00,87.71
599.00,87.62
598.00,87.55
597.00,87.56
596.00,87.59
595.00,87.49
594.00,87.17
593.00,86.79
592.00,86.56
591.00,86.64
590.00,86.95
589.00,87.37
588.00,87.82
587.00,88.25
586.00,88.54
585.00,88.47
584.00,87.91
583.00,87.04
582.00,86.33
581.00,86.20
580.00,86.54
579.00,86.77
578.00,86.56
577.00,86.28
576.00,86.59
575.00,87.57
574.00,88.55
573.00,88.92
572.00,88.76
571.00,88.40
570.00,87.93
569.00,87.33
568.00,86.80
567.00,86.64
566.00,86.78
565.00,86.91
564.00,86.96
563.00,87.04
562.00,87.08
561.00,86.82
560.00,86.29
559.00,86.03
558.00,86.43
557.00,87.20
556.00,87.58
555.00,87.12
554.00,86.19
553.00,85.48
552.00,85.26
551.00,85.34
550.00,85.47
