Created as New Dataset,197 Hoechst AG
cm-1,%T
4000.00,100.92
3999.00,100.91
3998.00,100.90
3997.00,100.90
3996.00,100.88
3995.00,100.85
3994.00,100.84
3993.00,100.83
3992.00,100.84
3991.00,100.84
3990.00,100.83
3989.00,100.82
3988.00,100.82
3987.00,100.82
3986.00,100.84
3985.00,100.87
3984.00,100.89
3983.00,100.90
3982.00,100.90
3981.00,100.89
3980.00,100.88
3979.00,100.89
3978.00,100.91
3977.00,100.93
3976.00,100.95
3975.00,100.94
3974.00,100.92
3973.00,100.90
3972.00,100.88
3971.00,100.87
3970.00,100.86
3969.00,100.86
3968.00,100.86
3967.00,100.86
3966.00,100.86
3965.00,100.85
3964.00,100.83
3963.00,100.81
3962.00,100.79
3961.00,100.79
3960.00,100.80
3959.00,100.83
3958.00,100.86
3957.00,100.89
3956.00,100.89
3955.00,100.89
3954.00,100.89
3953.00,100.89
3952.00,100.89
3951.00,100.88
3950.00,100.86
3949.00,100.84
3948.00,100.82
3947.00,100.82
3946.00,100.82
3945.00,100.83
3944.00,100.84
3943.00,100.84
3942.00,100.84
3941.00,100.84
3940.00,100.84
3939.00,100.84
3938.00,100.85
3937.00,100.85
3936.00,100.86
3935.00,100.87
3934.00,100.88
3933.00,100.89
3932.00,100.90
3931.00,100.90
3930.00,100.89
3929.00,100.88
3928.00,100.87
3927.00,100.87
3926.00,100.86
3925.00,100.86
3924.00,100.86
3923.00,100.86
3922.00,100.87
3921.00,100.87
3920.00,100.87
3919.00,100.85
3918.00,100.84
3917.00,100.83
3916.00,100.83
3915.00,100.84
3914.00,100.85
3913.00,100.87
3912.00,100.88
3911.00,100.89
3910.00,100.89
3909.00,100.89
3908.00,100.88
3907.00,100.87
3906.00,100.86
3905.00,100.85
3904.00,100.83
3903.00,100.83
3902.00,100.84
3901.00,100.85
3900.00,100.86
3899.00,100.86
3898.00,100.86
3897.00,100.86
3896.00,100.85
3895.00,100.86
3894.00,100.86
3893.00,100.86
3892.00,100.86
3891.00,100.86
3890.00,100.86
3889.00,100.87
3888.00,100.88
3887.00,100.88
3886.00,100.88
3885.00,100.87
3884.00,100.88
3883.00,100.91
3882.00,100.95
3881.00,100.98
3880.00,100.98
3879.00,100.95
3878.00,100.92
3877.00,100.88
3876.00,100.85
3875.00,100.84
3874.00,100.83
3873.00,100.83
3872.00,100.84
3871.00,100.85
3870.00,100.85
3869.00,100.85
3868.00,100.85
3867.00,100.86
3866.00,100.87
3865.00,100.89
3864.00,100.89
3863.00,100.87
3862.00,100.85
3861.00,100.83
3860.00,100.83
3859.00,100.84
3858.00,100.87
3857.00,100.91
3856.00,100.94
3855.00,100.95
3854.00,100.95
3853.00,100.94
3852.00,100.94
3851.00,100.95
3850.00,100.95
3849.00,100.94
3848.00,100.93
3847.00,100.92
3846.00,100.91
3845.00,100.90
3844.00,100.90
3843.00,100.92
3842.00,100.94
3841.00,100.96
3840.00,100.97
3839.00,100.97
3838.00,100.97
3837.00,100.96
3836.00,100.95
3835.00,100.94
3834.00,100.92
3833.00,100.90
3832.00,100.88
3831.00,100.86
3830.00,100.86
3829.00,100.85
3828.00,100.86
3827.00,100.86
3826.00,100.86
3825.00,100.87
3824.00,100.90
3823.00,100.92
3822.00,100.94
3821.00,100.94
3820.00,100.92
3819.00,100.91
3818.00,100.89
3817.00,100.89
3816.00,100.90
3815.00,100.91
3814.00,100.90
3813.00,100.88
3812.00,100.86
3811.00,100.84
3810.00,100.84
3809.00,100.83
3808.00,100.84
3807.00,100.85
3806.00,100.87
3805.00,100.90
3804.00,100.93
3803.00,100.95
3802.00,100.96
3801.00,100.97
3800.00,100.97
3799.00,100.96
3798.00,100.95
3797.00,100.95
3796.00,100.95
3795.00,100.94
3794.00,100.91
3793.00,100.88
3792.00,100.85
3791.00,100.83
3790.00,100.83
3789.00,100.83
3788.00,100.83
3787.00,100.83
3786.00,100.82
3785.00,100.82
3784.00,100.82
3783.00,100.82
3782.00,100.82
3781.00,100.83
3780.00,100.84
3779.00,100.85
3778.00,100.86
3777.00,100.88
3776.00,100.89
3775.00,100.89
3774.00,100.88
3773.00,100.85
3772.00,100.82
3771.00,100.80
3770.00,100.82
3769.00,100.84
3768.00,100.86
3767.00,100.85
3766.00,100.83
3765.00,100.81
3764.00,100.80
3763.00,100.79
3762.00,100.79
3761.00,100.79
3760.00,100.80
3759.00,100.81
3758.00,100.81
3757.00,100.81
3756.00,100.81
3755.00,100.82
3754.00,100.84
3753.00,100.88
3752.00,100.92
3751.00,100.94
3750.00,100.94
3749.00,100.93
3748.00,100.92
3747.00,100.90
3746.00,100.88
3745.00,100.86
3744.00,100.86
3743.00,100.88
3742.00,100.89
3741.00,100.89
3740.00,100.87
3739.00,100.86
3738.00,100.87
3737.00,100.89
3736.00,100.89
3735.00,100.86
3734.00,100.83
3733.00,100.82
3732.00,100.83
3731.00,100.84
3730.00,100.84
3729.00,100.83
3728.00,100.82
3727.00,100.81
3726.00,100.82
3725.00,100.82
3724.00,100.80
3723.00,100.78
3722.00,100.76
3721.00,100.75
3720.00,100.76
3719.00,100.78
3718.00,100.80
3717.00,100.83
3716.00,100.85
3715.00,100.86
3714.00,100.86
3713.00,100.86
3712.00,100.85
3711.00,100.85
3710.00,100.85
3709.00,100.84
3708.00,100.81
3707.00,100.79
3706.00,100.77
3705.00,100.77
3704.00,100.78
3703.00,100.79
3702.00,100.80
3701.00,100.81
3700.00,100.81
3699.00,100.81
3698.00,100.79
3697.00,100.76
3696.00,100.74
3695.00,100.73
3694.00,100.73
3693.00,100.74
3692.00,100.77
3691.00,100.81
3690.00,100.84
3689.00,100.86
3688.00,100.86
3687.00,100.85
3686.00,100.84
3685.00,100.84
3684.00,100.84
3683.00,100.83
3682.00,100.80
3681.00,100.75
3680.00,100.72
3679.00,100.71
3678.00,100.72
3677.00,100.75
3676.00,100.78
3675.00,100.78
3674.00,100.77
3673.00,100.75
3672.00,100.73
3671.00,100.72
3670.00,100.72
3669.00,100.73
3668.00,100.73
3667.00,100.72
3666.00,100.71
3665.00,100.69
3664.00,100.68
3663.00,100.67
3662.00,100.66
3661.00,100.66
3660.00,100.66
3659.00,100.65
3658.00,100.63
3657.00,100.62
3656.00,100.61
3655.00,100.62
3654.00,100.63
3653.00,100.64
3652.00,100.63
3651.00,100.60
3650.00,100.56
3649.00,100.53
3648.00,100.51
3647.00,100.51
3646.00,100.52
3645.00,100.53
3644.00,100.53
3643.00,100.52
3642.00,100.51
3641.00,100.49
3640.00,100.48
3639.00,100.47
3638.00,100.46
3637.00,100.44
3636.00,100.42
3635.00,100.39
3634.00,100.35
3633.00,100.31
3632.00,100.28
3631.00,100.25
3630.00,100.21
3629.00,100.19
3628.00,100.19
3627.00,100.21
3626.00,100.22
3625.00,100.23
3624.00,100.22
3623.00,100.20
3622.00,100.17
3621.00,100.15
3620.00,100.13
3619.00,100.13
3618.00,100.13
3617.00,100.13
3616.00,100.13
3615.00,100.13
3614.00,100.10
3613.00,100.06
3612.00,100.01
3611.00,99.96
3610.00,99.91
3609.00,99.88
3608.00,99.86
3607.00,99.84
3606.00,99.83
3605.00,99.83
3604.00,99.83
3603.00,99.84
3602.00,99.84
3601.00,99.82
3600.00,99.79
3599.00,99.73
3598.00,99.67
3597.00,99.61
3596.00,99.57
3595.00,99.54
3594.00,99.52
3593.00,99.50
3592.00,99.48
3591.00,99.47
3590.00,99.46
3589.00,99.43
3588.00,99.38
3587.00,99.34
3586.00,99.31
3585.00,99.29
3584.00,99.30
3583.00,99.30
3582.00,99.28
3581.00,99.26
3580.00,99.23
3579.00,99.20
3578.00,99.17
3577.00,99.15
3576.00,99.14
3575.00,99.12
3574.00,99.09
3573.00,99.05
3572.00,99.00
3571.00,98.97
3570.00,98.94
3569.00,98.91
3568.00,98.87
3567.00,98.83
3566.00,98.76
3565.00,98.70
3564.00,98.65
3563.00,98.63
3562.00,98.63
3561.00,98.63
3560.00,98.63
3559.00,98.63
3558.00,98.62
3557.00,98.60
3556.00,98.56
3555.00,98.50
3554.00,98.44
3553.00,98.40
3552.00,98.37
3551.00,98.35
3550.00,98.32
3549.00,98.27
3548.00,98.22
3547.00,98.17
3546.00,98.13
3545.00,98.10
3544.00,98.07
3543.00,98.04
3542.00,98.01
3541.00,97.97
3540.00,97.92
3539.00,97.87
3538.00,97.82
3537.00,97.78
3536.00,97.75
3535.00,97.74
3534.00,97.75
3533.00,97.75
3532.00,97.74
3531.00,97.71
3530.00,97.66
3529.00,97.61
3528.00,97.57
3527.00,97.53
3526.00,97.49
3525.00,97.45
3524.00,97.41
3523.00,97.37
3522.00,97.34
3521.00,97.30
3520.00,97.26
3519.00,97.19
3518.00,97.12
3517.00,97.06
3516.00,97.02
3515.00,96.99
3514.00,96.95
3513.00,96.90
3512.00,96.84
3511.00,96.79
3510.00,96.75
3509.00,96.71
3508.00,96.67
3507.00,96.60
3506.00,96.52
3505.00,96.44
3504.00,96.38
3503.00,96.32
3502.00,96.26
3501.00,96.20
3500.00,96.16
3499.00,96.12
3498.00,96.08
3497.00,96.03
3496.00,95.98
3495.00,95.93
3494.00,95.87
3493.00,95.81
3492.00,95.75
3491.00,95.69
3490.00,95.65
3489.00,95.63
3488.00,95.62
3487.00,95.60
3486.00,95.55
3485.00,95.49
3484.00,95.44
3483.00,95.41
3482.00,95.39
3481.00,95.36
3480.00,95.33
3479.00,95.28
3478.00,95.23
3477.00,95.19
3476.00,95.17
3475.00,95.16
3474.00,95.14
3473.00,95.11
3472.00,95.08
3471.00,95.03
3470.00,94.97
3469.00,94.91
3468.00,94.85
3467.00,94.81
3466.00,94.79
3465.00,94.77
3464.00,94.75
3463.00,94.72
3462.00,94.68
3461.00,94.63
3460.00,94.55
3459.00,94.48
3458.00,94.42
3457.00,94.36
3456.00,94.32
3455.00,94.28
3454.00,94.24
3453.00,94.20
3452.00,94.15
3451.00,94.09
3450.00,94.03
3449.00,93.97
3448.00,93.92
3447.00,93.88
3446.00,93.83
3445.00,93.79
3444.00,93.75
3443.00,93.71
3442.00,93.68
3441.00,93.65
3440.00,93.62
3439.00,93.60
3438.00,93.59
3437.00,93.57
3436.00,93.57
3435.00,93.57
3434.00,93.58
3433.00,93.58
3432.00,93.56
3431.00,93.53
3430.00,93.49
3429.00,93.46
3428.00,93.44
3427.00,93.43
3426.00,93.42
3425.00,93.42
3424.00,93.41
3423.00,93.39
3422.00,93.37
3421.00,93.34
3420.00,93.31
3419.00,93.27
3418.00,93.24
3417.00,93.21
3416.00,93.18
3415.00,93.15
3414.00,93.11
3413.00,93.08
3412.00,93.06
3411.00,93.03
3410.00,93.01
3409.00,93.00
3408.00,92.98
3407.00,92.97
3406.00,92.95
3405.00,92.93
3404.00,92.93
3403.00,92.94
3402.00,92.94
3401.00,92.94
3400.00,92.91
3399.00,92.88
3398.00,92.84
3397.00,92.81
3396.00,92.78
3395.00,92.76
3394.00,92.74
3393.00,92.73
3392.00,92.73
3391.00,92.73
3390.00,92.72
3389.00,92.70
3388.00,92.68
3387.00,92.67
3386.00,92.65
3385.00,92.64
3384.00,92.62
3383.00,92.60
3382.00,92.58
3381.00,92.55
3380.00,92.53
3379.00,92.51
3378.00,92.50
3377.00,92.49
3376.00,92.49
3375.00,92.47
3374.00,92.46
3373.00,92.43
3372.00,92.42
3371.00,92.41
3370.00,92.41
3369.00,92.41
3368.00,92.39
3367.00,92.37
3366.00,92.36
3365.00,92.35
3364.00,92.35
3363.00,92.34
3362.00,92.32
3361.00,92.31
3360.00,92.30
3359.00,92.30
3358.00,92.31
3357.00,92.31
3356.00,92.31
3355.00,92.31
3354.00,92.32
3353.00,92.33
3352.00,92.33
3351.00,92.31
3350.00,92.29
3349.00,92.28
3348.00,92.27
3347.00,92.27
3346.00,92.27
3345.00,92.26
3344.00,92.24
3343.00,92.22
3342.00,92.22
3341.00,92.23
3340.00,92.24
3339.00,92.24
3338.00,92.23
3337.00,92.23
3336.00,92.23
3335.00,92.23
3334.00,92.22
3333.00,92.20
3332.00,92.19
3331.00,92.18
3330.00,92.19
3329.00,92.20
3328.00,92.21
3327.00,92.20
3326.00,92.20
3325.00,92.19
3324.00,92.18
3323.00,92.17
3322.00,92.16
3321.00,92.16
3320.00,92.16
3319.00,92.16
3318.00,92.18
3317.00,92.19
3316.00,92.21
3315.00,92.23
3314.00,92.24
3313.00,92.25
3312.00,92.24
3311.00,92.23
3310.00,92.22
3309.00,92.22
3308.00,92.22
3307.00,92.23
3306.00,92.23
3305.00,92.24
3304.00,92.25
3303.00,92.26
3302.00,92.28
3301.00,92.31
3300.00,92.32
3299.00,92.31
3298.00,92.30
3297.00,92.29
3296.00,92.30
3295.00,92.32
3294.00,92.34
3293.00,92.36
3292.00,92.37
3291.00,92.36
3290.00,92.34
3289.00,92.30
3288.00,92.29
3287.00,92.29
3286.00,92.31
3285.00,92.32
3284.00,92.34
3283.00,92.35
3282.00,92.36
3281.00,92.38
3280.00,92.40
3279.00,92.42
3278.00,92.43
3277.00,92.43
3276.00,92.44
3275.00,92.45
3274.00,92.46
3273.00,92.48
3272.00,92.48
3271.00,92.47
3270.00,92.47
3269.00,92.49
3268.00,92.52
3267.00,92.56
3266.00,92.58
3265.00,92.60
3264.00,92.61
3263.00,92.62
3262.00,92.64
3261.00,92.67
3260.00,92.70
3259.00,92.72
3258.00,92.72
3257.00,92.70
3256.00,92.69
3255.00,92.70
3254.00,92.71
3253.00,92.74
3252.00,92.76
3251.00,92.78
3250.00,92.79
3249.00,92.80
3248.00,92.81
3247.00,92.80
3246.00,92.81
3245.00,92.83
3244.00,92.86
3243.00,92.89
3242.00,92.91
3241.00,92.91
3240.00,92.92
3239.00,92.94
3238.00,92.96
3237.00,92.97
3236.00,92.97
3235.00,92.97
3234.00,92.97
3233.00,92.97
3232.00,92.98
3231.00,93.00
3230.00,93.02
3229.00,93.06
3228.00,93.10
3227.00,93.12
3226.00,93.13
3225.00,93.12
3224.00,93.12
3223.00,93.14
3222.00,93.17
3221.00,93.22
3220.00,93.26
3219.00,93.29
3218.00,93.30
3217.00,93.30
3216.00,93.30
3215.00,93.31
3214.00,93.33
3213.00,93.36
3212.00,93.38
3211.00,93.41
3210.00,93.42
3209.00,93.44
3208.00,93.45
3207.00,93.47
3206.00,93.48
3205.00,93.50
3204.00,93.53
3203.00,93.56
3202.00,93.58
3201.00,93.61
3200.00,93.64
3199.00,93.68
3198.00,93.71
3197.00,93.72
3196.00,93.73
3195.00,93.73
3194.00,93.75
3193.00,93.77
3192.00,93.79
3191.00,93.81
3190.00,93.83
3189.00,93.85
3188.00,93.89
3187.00,93.91
3186.00,93.92
3185.00,93.91
3184.00,93.91
3183.00,93.93
3182.00,93.95
3181.00,93.98
3180.00,94.00
3179.00,94.02
3178.00,94.04
3177.00,94.07
3176.00,94.10
3175.00,94.12
3174.00,94.15
3173.00,94.18
3172.00,94.20
3171.00,94.22
3170.00,94.23
3169.00,94.24
3168.00,94.26
3167.00,94.30
3166.00,94.33
3165.00,94.37
3164.00,94.40
3163.00,94.43
3162.00,94.45
3161.00,94.48
3160.00,94.49
3159.00,94.51
3158.00,94.53
3157.00,94.55
3156.00,94.58
3155.00,94.61
3154.00,94.63
3153.00,94.64
3152.00,94.65
3151.00,94.67
3150.00,94.70
3149.00,94.75
3148.00,94.78
3147.00,94.81
3146.00,94.84
3145.00,94.86
3144.00,94.88
3143.00,94.89
3142.00,94.91
3141.00,94.93
3140.00,94.96
3139.00,94.99
3138.00,95.02
3137.00,95.05
3136.00,95.07
3135.00,95.10
3134.00,95.13
3133.00,95.16
3132.00,95.18
3131.00,95.19
3130.00,95.20
3129.00,95.20
3128.00,95.22
3127.00,95.25
3126.00,95.28
3125.00,95.32
3124.00,95.36
3123.00,95.39
3122.00,95.42
3121.00,95.45
3120.00,95.48
3119.00,95.50
3118.00,95.52
3117.00,95.55
3116.00,95.58
3115.00,95.62
3114.00,95.65
3113.00,95.69
3112.00,95.73
3111.00,95.76
3110.00,95.80
3109.00,95.82
3108.00,95.84
3107.00,95.86
3106.00,95.89
3105.00,95.92
3104.00,95.96
3103.00,95.99
3102.00,96.02
3101.00,96.04
3100.00,96.06
3099.00,96.08
3098.00,96.11
3097.00,96.14
3096.00,96.17
3095.00,96.19
3094.00,96.22
3093.00,96.25
3092.00,96.28
3091.00,96.31
3090.00,96.33
3089.00,96.35
3088.00,96.35
3087.00,96.35
3086.00,96.35
3085.00,96.38
3084.00,96.42
3083.00,96.47
3082.00,96.51
3081.00,96.55
3080.00,96.58
3079.00,96.61
3078.00,96.63
3077.00,96.65
3076.00,96.66
3075.00,96.66
3074.00,96.67
3073.00,96.69
3072.00,96.73
3071.00,96.78
3070.00,96.83
3069.00,96.86
3068.00,96.87
3067.00,96.87
3066.00,96.87
3065.00,96.87
3064.00,96.89
3063.00,96.92
3062.00,96.95
3061.00,96.98
3060.00,97.01
3059.00,97.04
3058.00,97.06
3057.00,97.09
3056.00,97.11
3055.00,97.14
3054.00,97.16
3053.00,97.18
3052.00,97.20
3051.00,97.23
3050.00,97.25
3049.00,97.28
3048.00,97.31
3047.00,97.35
3046.00,97.39
3045.00,97.42
3044.00,97.43
3043.00,97.44
3042.00,97.43
3041.00,97.43
3040.00,97.43
3039.00,97.44
3038.00,97.47
3037.00,97.50
3036.00,97.51
3035.00,97.52
3034.00,97.53
3033.00,97.54
3032.00,97.56
3031.00,97.59
3030.00,97.63
3029.00,97.66
3028.00,97.69
3027.00,97.69
3026.00,97.69
3025.00,97.69
3024.00,97.70
3023.00,97.71
3022.00,97.73
3021.00,97.74
3020.00,97.76
3019.00,97.76
3018.00,97.76
3017.00,97.77
3016.00,97.79
3015.00,97.82
3014.00,97.85
3013.00,97.87
3012.00,97.86
3011.00,97.85
3010.00,97.85
3009.00,97.86
3008.00,97.89
3007.00,97.92
3006.00,97.94
3005.00,97.94
3004.00,97.94
3003.00,97.94
3002.00,97.94
3001.00,97.95
3000.00,97.95
2999.00,97.95
2998.00,97.95
2997.00,97.97
2996.00,97.99
2995.00,98.00
2994.00,98.00
2993.00,97.99
2992.00,97.98
2991.00,97.97
2990.00,97.97
2989.00,97.96
2988.00,97.94
2987.00,97.93
2986.00,97.92
2985.00,97.92
2984.00,97.92
2983.00,97.92
2982.00,97.91
2981.00,97.90
2980.00,97.89
2979.00,97.88
2978.00,97.88
2977.00,97.87
2976.00,97.87
2975.00,97.86
2974.00,97.84
2973.00,97.83
2972.00,97.82
2971.00,97.80
2970.00,97.80
2969.00,97.79
2968.00,97.78
2967.00,97.76
2966.00,97.73
2965.00,97.70
2964.00,97.69
2963.00,97.68
2962.00,97.66
2961.00,97.62
2960.00,97.58
2959.00,97.54
2958.00,97.51
2957.00,97.49
2956.00,97.47
2955.00,97.44
2954.00,97.40
2953.00,97.35
2952.00,97.31
2951.00,97.26
2950.00,97.23
2949.00,97.20
2948.00,97.17
2947.00,97.15
2946.00,97.12
2945.00,97.08
2944.00,97.04
2943.00,97.00
2942.00,96.95
2941.00,96.90
2940.00,96.84
2939.00,96.78
2938.00,96.74
2937.00,96.71
2936.00,96.67
2935.00,96.62
2934.00,96.57
2933.00,96.52
2932.00,96.48
2931.00,96.45
2930.00,96.42
2929.00,96.39
2928.00,96.36
2927.00,96.33
2926.00,96.31
2925.00,96.29
2924.00,96.27
2923.00,96.23
2922.00,96.19
2921.00,96.16
2920.00,96.14
2919.00,96.11
2918.00,96.09
2917.00,96.07
2916.00,96.05
2915.00,96.03
2914.00,96.01
2913.00,95.98
2912.00,95.94
2911.00,95.89
2910.00,95.86
2909.00,95.82
2908.00,95.80
2907.00,95.78
2906.00,95.75
2905.00,95.72
2904.00,95.69
2903.00,95.67
2902.00,95.65
2901.00,95.64
2900.00,95.63
2899.00,95.63
2898.00,95.62
2897.00,95.59
2896.00,95.56
2895.00,95.53
2894.00,95.51
2893.00,95.49
2892.00,95.47
2891.00,95.46
2890.00,95.47
2889.00,95.49
2888.00,95.51
2887.00,95.52
2886.00,95.53
2885.00,95.54
2884.00,95.55
2883.00,95.56
2882.00,95.58
2881.00,95.60
2880.00,95.62
2879.00,95.63
2878.00,95.65
2877.00,95.66
2876.00,95.67
2875.00,95.67
2874.00,95.68
2873.00,95.70
2872.00,95.73
2871.00,95.78
2870.00,95.83
2869.00,95.87
2868.00,95.91
2867.00,95.95
2866.00,95.98
2865.00,96.01
2864.00,96.04
2863.00,96.08
2862.00,96.12
2861.00,96.17
2860.00,96.21
2859.00,96.26
2858.00,96.30
2857.00,96.35
2856.00,96.40
2855.00,96.45
2854.00,96.49
2853.00,96.52
2852.00,96.55
2851.00,96.59
2850.00,96.62
2849.00,96.67
2848.00,96.73
2847.00,96.80
2846.00,96.87
2845.00,96.92
2844.00,96.96
2843.00,96.97
2842.00,96.98
2841.00,97.00
2840.00,97.04
2839.00,97.08
2838.00,97.12
2837.00,97.15
2836.00,97.18
2835.00,97.21
2834.00,97.23
2833.00,97.26
2832.00,97.28
2831.00,97.30
2830.00,97.32
2829.00,97.33
2828.00,97.35
2827.00,97.37
2826.00,97.39
2825.00,97.42
2824.00,97.44
2823.00,97.45
2822.00,97.46
2821.00,97.47
2820.00,97.47
2819.00,97.49
2818.00,97.51
2817.00,97.53
2816.00,97.55
2815.00,97.56
2814.00,97.56
2813.00,97.58
2812.00,97.60
2811.00,97.62
2810.00,97.64
2809.00,97.65
2808.00,97.65
2807.00,97.65
2806.00,97.65
2805.00,97.66
2804.00,97.68
2803.00,97.69
2802.00,97.71
2801.00,97.72
2800.00,97.74
2799.00,97.75
2798.00,97.76
2797.00,97.78
2796.00,97.80
2795.00,97.82
2794.00,97.84
2793.00,97.85
2792.00,97.86
2791.00,97.85
2790.00,97.85
2789.00,97.84
2788.00,97.85
2787.00,97.86
2786.00,97.88
2785.00,97.88
2784.00,97.89
2783.00,97.89
2782.00,97.90
2781.00,97.91
2780.00,97.92
2779.00,97.92
2778.00,97.92
2777.00,97.93
2776.00,97.94
2775.00,97.96
2774.00,97.99
2773.00,98.00
2772.00,98.02
2771.00,98.03
2770.00,98.04
2769.00,98.04
2768.00,98.04
2767.00,98.04
2766.00,98.04
2765.00,98.04
2764.00,98.04
2763.00,98.05
2762.00,98.06
2761.00,98.09
2760.00,98.11
2759.00,98.11
2758.00,98.12
2757.00,98.11
2756.00,98.11
2755.00,98.11
2754.00,98.12
2753.00,98.12
2752.00,98.11
2751.00,98.11
2750.00,98.10
2749.00,98.10
2748.00,98.10
2747.00,98.10
2746.00,98.11
2745.00,98.11
2744.00,98.11
2743.00,98.11
2742.00,98.11
2741.00,98.11
2740.00,98.12
2739.00,98.12
2738.00,98.13
2737.00,98.13
2736.00,98.14
2735.00,98.13
2734.00,98.13
2733.00,98.12
2732.00,98.13
2731.00,98.14
2730.00,98.15
2729.00,98.15
2728.00,98.16
2727.00,98.17
2726.00,98.18
2725.00,98.18
2724.00,98.17
2723.00,98.16
2722.00,98.16
2721.00,98.17
2720.00,98.18
2719.00,98.20
2718.00,98.22
2717.00,98.23
2716.00,98.25
2715.00,98.26
2714.00,98.27
2713.00,98.28
2712.00,98.28
2711.00,98.28
2710.00,98.28
2709.00,98.27
2708.00,98.26
2707.00,98.26
2706.00,98.26
2705.00,98.27
2704.00,98.27
2703.00,98.27
2702.00,98.27
2701.00,98.27
2700.00,98.27
2699.00,98.27
2698.00,98.28
2697.00,98.29
2696.00,98.30
2695.00,98.31
2694.00,98.31
2693.00,98.32
2692.00,98.32
2691.00,98.33
2690.00,98.33
2689.00,98.34
2688.00,98.33
2687.00,98.33
2686.00,98.33
2685.00,98.33
2684.00,98.34
2683.00,98.35
2682.00,98.35
2681.00,98.35
2680.00,98.34
2679.00,98.33
2678.00,98.32
2677.00,98.33
2676.00,98.35
2675.00,98.36
2674.00,98.37
2673.00,98.38
2672.00,98.39
2671.00,98.40
2670.00,98.41
2669.00,98.41
2668.00,98.42
2667.00,98.42
2666.00,98.43
2665.00,98.43
2664.00,98.43
2663.00,98.44
2662.00,98.44
2661.00,98.44
2660.00,98.44
2659.00,98.43
2658.00,98.43
2657.00,98.43
2656.00,98.43
2655.00,98.43
2654.00,98.44
2653.00,98.45
2652.00,98.47
2651.00,98.48
2650.00,98.48
2649.00,98.48
2648.00,98.47
2647.00,98.45
2646.00,98.44
2645.00,98.43
2644.00,98.42
2643.00,98.42
2642.00,98.42
2641.00,98.43
2640.00,98.42
2639.00,98.42
2638.00,98.40
2637.00,98.39
2636.00,98.39
2635.00,98.40
2634.00,98.42
2633.00,98.43
2632.00,98.43
2631.00,98.42
2630.00,98.42
2629.00,98.42
2628.00,98.41
2627.00,98.42
2626.00,98.42
2625.00,98.44
2624.00,98.45
2623.00,98.47
2622.00,98.47
2621.00,98.46
2620.00,98.45
2619.00,98.46
2618.00,98.47
2617.00,98.49
2616.00,98.50
2615.00,98.52
2614.00,98.53
2613.00,98.54
2612.00,98.53
2611.00,98.52
2610.00,98.52
2609.00,98.52
2608.00,98.52
2607.00,98.52
2606.00,98.51
2605.00,98.49
2604.00,98.48
2603.00,98.48
2602.00,98.49
2601.00,98.51
2600.00,98.52
2599.00,98.52
2598.00,98.51
2597.00,98.51
2596.00,98.51
2595.00,98.51
2594.00,98.50
2593.00,98.50
2592.00,98.51
2591.00,98.52
2590.00,98.53
2589.00,98.52
2588.00,98.50
2587.00,98.49
2586.00,98.49
2585.00,98.51
2584.00,98.53
2583.00,98.54
2582.00,98.54
2581.00,98.53
2580.00,98.50
2579.00,98.48
2578.00,98.47
2577.00,98.48
2576.00,98.50
2575.00,98.52
2574.00,98.54
2573.00,98.53
2572.00,98.52
2571.00,98.50
2570.00,98.50
2569.00,98.50
2568.00,98.51
2567.00,98.53
2566.00,98.53
2565.00,98.53
2564.00,98.52
2563.00,98.52
2562.00,98.54
2561.00,98.56
2560.00,98.56
2559.00,98.55
2558.00,98.52
2557.00,98.50
2556.00,98.50
2555.00,98.52
2554.00,98.55
2553.00,98.58
2552.00,98.60
2551.00,98.61
2550.00,98.61
2549.00,98.61
2548.00,98.59
2547.00,98.57
2546.00,98.55
2545.00,98.55
2544.00,98.56
2543.00,98.57
2542.00,98.56
2541.00,98.53
2540.00,98.51
2539.00,98.50
2538.00,98.50
2537.00,98.51
2536.00,98.52
2535.00,98.53
2534.00,98.53
2533.00,98.52
2532.00,98.53
2531.00,98.54
2530.00,98.56
2529.00,98.57
2528.00,98.56
2527.00,98.54
2526.00,98.54
2525.00,98.53
2524.00,98.52
2523.00,98.52
2522.00,98.52
2521.00,98.53
2520.00,98.54
2519.00,98.54
2518.00,98.54
2517.00,98.52
2516.00,98.51
2515.00,98.51
2514.00,98.51
2513.00,98.51
2512.00,98.49
2511.00,98.48
2510.00,98.49
2509.00,98.51
2508.00,98.54
2507.00,98.58
2506.00,98.62
2505.00,98.65
2504.00,98.68
2503.00,98.68
2502.00,98.67
2501.00,98.64
2500.00,98.61
2499.00,98.59
2498.00,98.59
2497.00,98.60
2496.00,98.61
2495.00,98.61
2494.00,98.60
2493.00,98.58
2492.00,98.57
2491.00,98.56
2490.00,98.56
2489.00,98.56
2488.00,98.56
2487.00,98.56
2486.00,98.57
2485.00,98.57
2484.00,98.58
2483.00,98.58
2482.00,98.57
2481.00,98.56
2480.00,98.57
2479.00,98.59
2478.00,98.61
2477.00,98.62
2476.00,98.62
2475.00,98.60
2474.00,98.57
2473.00,98.55
2472.00,98.56
2471.00,98.58
2470.00,98.60
2469.00,98.62
2468.00,98.62
2467.00,98.63
2466.00,98.64
2465.00,98.64
2464.00,98.64
2463.00,98.64
2462.00,98.64
2461.00,98.65
2460.00,98.66
2459.00,98.66
2458.00,98.66
2457.00,98.64
2456.00,98.64
2455.00,98.64
2454.00,98.65
2453.00,98.66
2452.00,98.66
2451.00,98.65
2450.00,98.64
2449.00,98.63
2448.00,98.63
2447.00,98.65
2446.00,98.67
2445.00,98.69
2444.00,98.70
2443.00,98.69
2442.00,98.68
2441.00,98.66
2440.00,98.65
2439.00,98.66
2438.00,98.68
2437.00,98.71
2436.00,98.73
2435.00,98.73
2434.00,98.73
2433.00,98.72
2432.00,98.70
2431.00,98.68
2430.00,98.68
2429.00,98.68
2428.00,98.70
2427.00,98.71
2426.00,98.72
2425.00,98.71
2424.00,98.71
2423.00,98.72
2422.00,98.72
2421.00,98.73
2420.00,98.73
2419.00,98.74
2418.00,98.74
2417.00,98.74
2416.00,98.73
2415.00,98.72
2414.00,98.71
2413.00,98.70
2412.00,98.70
2411.00,98.70
2410.00,98.71
2409.00,98.72
2408.00,98.74
2407.00,98.75
2406.00,98.76
2405.00,98.77
2404.00,98.78
2403.00,98.79
2402.00,98.80
2401.00,98.81
2400.00,98.82
2399.00,98.84
2398.00,98.84
2397.00,98.84
2396.00,98.83
2395.00,98.83
2394.00,98.83
2393.00,98.84
2392.00,98.82
2391.00,98.81
2390.00,98.79
2389.00,98.79
2388.00,98.79
2387.00,98.80
2386.00,98.81
2385.00,98.82
2384.00,98.83
2383.00,98.85
2382.00,98.86
2381.00,98.86
2380.00,98.85
2379.00,98.85
2378.00,98.86
2377.00,98.88
2376.00,98.92
2375.00,98.93
2374.00,98.91
2373.00,98.88
2372.00,98.86
2371.00,98.87
2370.00,98.89
2369.00,98.90
2368.00,98.87
2367.00,98.84
2366.00,98.84
2365.00,98.86
2364.00,98.89
2363.00,98.90
2362.00,98.88
2361.00,98.87
2360.00,98.88
2359.00,98.91
2358.00,98.91
2357.00,98.87
2356.00,98.83
2355.00,98.82
2354.00,98.85
2353.00,98.89
2352.00,98.92
2351.00,98.93
2350.00,98.93
2349.00,98.92
2348.00,98.91
2347.00,98.90
2346.00,98.90
2345.00,98.89
2344.00,98.89
2343.00,98.90
2342.00,98.91
2341.00,98.91
2340.00,98.91
2339.00,98.90
2338.00,98.90
2337.00,98.90
2336.00,98.88
2335.00,98.86
2334.00,98.88
2333.00,98.92
2332.00,98.97
2331.00,98.99
2330.00,98.96
2329.00,98.91
2328.00,98.83
2327.00,98.77
2326.00,98.74
2325.00,98.76
2324.00,98.80
2323.00,98.84
2322.00,98.85
2321.00,98.83
2320.00,98.79
2319.00,98.78
2318.00,98.79
2317.00,98.81
2316.00,98.82
2315.00,98.80
2314.00,98.76
2313.00,98.72
2312.00,98.69
2311.00,98.70
2310.00,98.72
2309.00,98.76
2308.00,98.78
2307.00,98.77
2306.00,98.74
2305.00,98.70
2304.00,98.65
2303.00,98.61
2302.00,98.60
2301.00,98.62
2300.00,98.65
2299.00,98.66
2298.00,98.67
2297.00,98.66
2296.00,98.67
2295.00,98.68
2294.00,98.68
2293.00,98.66
2292.00,98.63
2291.00,98.61
2290.00,98.59
2289.00,98.59
2288.00,98.59
2287.00,98.59
2286.00,98.60
2285.00,98.60
2284.00,98.59
2283.00,98.55
2282.00,98.50
2281.00,98.46
2280.00,98.43
2279.00,98.42
2278.00,98.44
2277.00,98.47
2276.00,98.50
2275.00,98.53
2274.00,98.56
2273.00,98.57
2272.00,98.55
2271.00,98.52
2270.00,98.50
2269.00,98.48
2268.00,98.48
2267.00,98.47
2266.00,98.46
2265.00,98.47
2264.00,98.50
2263.00,98.52
2262.00,98.53
2261.00,98.52
2260.00,98.52
2259.00,98.52
2258.00,98.51
2257.00,98.49
2256.00,98.47
2255.00,98.45
2254.00,98.44
2253.00,98.46
2252.00,98.50
2251.00,98.52
2250.00,98.51
2249.00,98.46
2248.00,98.41
2247.00,98.39
2246.00,98.40
2245.00,98.42
2244.00,98.44
2243.00,98.47
2242.00,98.51
2241.00,98.54
2240.00,98.53
2239.00,98.51
2238.00,98.48
2237.00,98.48
2236.00,98.50
2235.00,98.51
2234.00,98.48
2233.00,98.44
2232.00,98.41
2231.00,98.40
2230.00,98.40
2229.00,98.37
2228.00,98.35
2227.00,98.33
2226.00,98.33
2225.00,98.33
2224.00,98.34
2223.00,98.37
2222.00,98.41
2221.00,98.42
2220.00,98.39
2219.00,98.34
2218.00,98.30
2217.00,98.29
2216.00,98.30
2215.00,98.34
2214.00,98.37
2213.00,98.37
2212.00,98.34
2211.00,98.31
2210.00,98.33
2209.00,98.39
2208.00,98.44
2207.00,98.45
2206.00,98.42
2205.00,98.37
2204.00,98.31
2203.00,98.27
2202.00,98.23
2201.00,98.19
2200.00,98.16
2199.00,98.15
2198.00,98.16
2197.00,98.19
2196.00,98.20
2195.00,98.18
2194.00,98.14
2193.00,98.12
2192.00,98.12
2191.00,98.11
2190.00,98.07
2189.00,98.04
2188.00,98.03
2187.00,98.03
2186.00,98.03
2185.00,98.03
2184.00,98.06
2183.00,98.13
2182.00,98.22
2181.00,98.29
2180.00,98.29
2179.00,98.23
2178.00,98.13
2177.00,98.04
2176.00,98.01
2175.00,98.04
2174.00,98.11
2173.00,98.15
2172.00,98.15
2171.00,98.14
2170.00,98.14
2169.00,98.12
2168.00,98.07
2167.00,98.01
2166.00,97.95
2165.00,97.91
2164.00,97.86
2163.00,97.80
2162.00,97.77
2161.00,97.81
2160.00,97.91
2159.00,98.04
2158.00,98.14
2157.00,98.21
2156.00,98.27
2155.00,98.33
2154.00,98.38
2153.00,98.38
2152.00,98.35
2151.00,98.29
2150.00,98.24
2149.00,98.21
2148.00,98.22
2147.00,98.24
2146.00,98.25
2145.00,98.25
2144.00,98.26
2143.00,98.30
2142.00,98.34
2141.00,98.36
2140.00,98.37
2139.00,98.38
2138.00,98.37
2137.00,98.37
2136.00,98.35
2135.00,98.35
2134.00,98.35
2133.00,98.35
2132.00,98.34
2131.00,98.33
2130.00,98.30
2129.00,98.28
2128.00,98.27
2127.00,98.29
2126.00,98.31
2125.00,98.34
2124.00,98.36
2123.00,98.38
2122.00,98.39
2121.00,98.39
2120.00,98.37
2119.00,98.34
2118.00,98.31
2117.00,98.30
2116.00,98.31
2115.00,98.34
2114.00,98.39
2113.00,98.43
2112.00,98.45
2111.00,98.43
2110.00,98.38
2109.00,98.32
2108.00,98.28
2107.00,98.27
2106.00,98.27
2105.00,98.27
2104.00,98.25
2103.00,98.23
2102.00,98.21
2101.00,98.22
2100.00,98.25
2099.00,98.28
2098.00,98.32
2097.00,98.34
2096.00,98.37
2095.00,98.40
2094.00,98.41
2093.00,98.41
2092.00,98.41
2091.00,98.41
2090.00,98.40
2089.00,98.37
2088.00,98.33
2087.00,98.30
2086.00,98.29
2085.00,98.29
2084.00,98.31
2083.00,98.34
2082.00,98.35
2081.00,98.34
2080.00,98.32
2079.00,98.30
2078.00,98.29
2077.00,98.30
2076.00,98.29
2075.00,98.25
2074.00,98.19
2073.00,98.11
2072.00,98.08
2071.00,98.09
2070.00,98.14
2069.00,98.21
2068.00,98.27
2067.00,98.31
2066.00,98.33
2065.00,98.32
2064.00,98.31
2063.00,98.31
2062.00,98.31
2061.00,98.30
2060.00,98.26
2059.00,98.21
2058.00,98.18
2057.00,98.17
2056.00,98.17
2055.00,98.18
2054.00,98.19
2053.00,98.18
2052.00,98.16
2051.00,98.12
2050.00,98.07
2049.00,98.02
2048.00,97.97
2047.00,97.96
2046.00,97.98
2045.00,98.02
2044.00,98.07
2043.00,98.12
2042.00,98.17
2041.00,98.18
2040.00,98.16
2039.00,98.12
2038.00,98.08
2037.00,98.05
2036.00,98.03
2035.00,98.03
2034.00,98.06
2033.00,98.10
2032.00,98.12
2031.00,98.12
2030.00,98.13
2029.00,98.18
2028.00,98.24
2027.00,98.27
2026.00,98.25
2025.00,98.20
2024.00,98.16
2023.00,98.15
2022.00,98.14
2021.00,98.11
2020.00,98.07
2019.00,98.05
2018.00,98.05
2017.00,98.07
2016.00,98.07
2015.00,98.05
2014.00,98.05
2013.00,98.08
2012.00,98.15
2011.00,98.23
2010.00,98.31
2009.00,98.33
2008.00,98.31
2007.00,98.27
2006.00,98.25
2005.00,98.24
2004.00,98.22
2003.00,98.16
2002.00,98.12
2001.00,98.12
2000.00,98.16
1999.00,98.21
1998.00,98.24
1997.00,98.26
1996.00,98.26
1995.00,98.25
1994.00,98.23
1993.00,98.20
1992.00,98.18
1991.00,98.20
1990.00,98.25
1989.00,98.29
1988.00,98.29
1987.00,98.24
1986.00,98.16
1985.00,98.07
1984.00,98.00
1983.00,97.95
1982.00,97.94
1981.00,97.94
1980.00,97.98
1979.00,98.02
1978.00,98.08
1977.00,98.15
1976.00,98.25
1975.00,98.35
1974.00,98.41
1973.00,98.41
1972.00,98.35
1971.00,98.29
1970.00,98.25
1969.00,98.25
1968.00,98.27
1967.00,98.28
1966.00,98.29
1965.00,98.29
1964.00,98.30
1963.00,98.32
1962.00,98.36
1961.00,98.40
1960.00,98.43
1959.00,98.42
1958.00,98.40
1957.00,98.38
1956.00,98.37
1955.00,98.37
1954.00,98.36
1953.00,98.34
1952.00,98.34
1951.00,98.37
1950.00,98.41
1949.00,98.44
1948.00,98.45
1947.00,98.46
1946.00,98.46
1945.00,98.45
1944.00,98.45
1943.00,98.45
1942.00,98.46
1941.00,98.46
1940.00,98.45
1939.00,98.43
1938.00,98.42
1937.00,98.42
1936.00,98.45
1935.00,98.47
1934.00,98.47
1933.00,98.47
1932.00,98.47
1931.00,98.47
1930.00,98.47
1929.00,98.46
1928.00,98.45
1927.00,98.44
1926.00,98.45
1925.00,98.46
1924.00,98.48
1923.00,98.50
1922.00,98.50
1921.00,98.49
1920.00,98.46
1919.00,98.44
1918.00,98.44
1917.00,98.46
1916.00,98.48
1915.00,98.50
1914.00,98.52
1913.00,98.53
1912.00,98.55
1911.00,98.56
1910.00,98.56
1909.00,98.55
1908.00,98.54
1907.00,98.53
1906.00,98.51
1905.00,98.51
1904.00,98.51
1903.00,98.53
1902.00,98.54
1901.00,98.56
1900.00,98.56
1899.00,98.57
1898.00,98.58
1897.00,98.58
1896.00,98.59
1895.00,98.59
1894.00,98.59
1893.00,98.59
1892.00,98.60
1891.00,98.61
1890.00,98.60
1889.00,98.59
1888.00,98.56
1887.00,98.55
1886.00,98.55
1885.00,98.56
1884.00,98.58
1883.00,98.60
1882.00,98.61
1881.00,98.60
1880.00,98.58
1879.00,98.57
1878.00,98.57
1877.00,98.59
1876.00,98.60
1875.00,98.60
1874.00,98.60
1873.00,98.59
1872.00,98.59
1871.00,98.60
1870.00,98.61
1869.00,98.61
1868.00,98.61
1867.00,98.60
1866.00,98.60
1865.00,98.61
1864.00,98.62
1863.00,98.63
1862.00,98.63
1861.00,98.62
1860.00,98.60
1859.00,98.59
1858.00,98.59
1857.00,98.60
1856.00,98.62
1855.00,98.62
1854.00,98.62
1853.00,98.61
1852.00,98.62
1851.00,98.64
1850.00,98.66
1849.00,98.66
1848.00,98.63
1847.00,98.61
1846.00,98.61
1845.00,98.63
1844.00,98.65
1843.00,98.67
1842.00,98.70
1841.00,98.73
1840.00,98.75
1839.00,98.74
1838.00,98.71
1837.00,98.67
1836.00,98.64
1835.00,98.63
1834.00,98.63
1833.00,98.62
1832.00,98.61
1831.00,98.61
1830.00,98.62
1829.00,98.63
1828.00,98.63
1827.00,98.64
1826.00,98.63
1825.00,98.63
1824.00,98.63
1823.00,98.63
1822.00,98.64
1821.00,98.65
1820.00,98.66
1819.00,98.68
1818.00,98.70
1817.00,98.72
1816.00,98.72
1815.00,98.70
1814.00,98.68
1813.00,98.67
1812.00,98.67
1811.00,98.67
1810.00,98.67
1809.00,98.66
1808.00,98.65
1807.00,98.65
1806.00,98.66
1805.00,98.67
1804.00,98.68
1803.00,98.67
1802.00,98.66
1801.00,98.64
1800.00,98.64
1799.00,98.65
1798.00,98.65
1797.00,98.65
1796.00,98.65
1795.00,98.65
1794.00,98.64
1793.00,98.63
1792.00,98.62
1791.00,98.62
1790.00,98.63
1789.00,98.63
1788.00,98.63
1787.00,98.64
1786.00,98.64
1785.00,98.65
1784.00,98.66
1783.00,98.65
1782.00,98.63
1781.00,98.61
1780.00,98.59
1779.00,98.60
1778.00,98.61
1777.00,98.61
1776.00,98.61
1775.00,98.62
1774.00,98.63
1773.00,98.63
1772.00,98.61
1771.00,98.59
1770.00,98.58
1769.00,98.59
1768.00,98.60
1767.00,98.61
1766.00,98.61
1765.00,98.60
1764.00,98.60
1763.00,98.59
1762.00,98.59
1761.00,98.59
1760.00,98.59
1759.00,98.58
1758.00,98.58
1757.00,98.58
1756.00,98.57
1755.00,98.56
1754.00,98.55
1753.00,98.55
1752.00,98.55
1751.00,98.55
1750.00,98.54
1749.00,98.52
1748.00,98.50
1747.00,98.49
1746.00,98.49
1745.00,98.48
1744.00,98.49
1743.00,98.49
1742.00,98.49
1741.00,98.48
1740.00,98.46
1739.00,98.45
1738.00,98.44
1737.00,98.44
1736.00,98.44
1735.00,98.44
1734.00,98.44
1733.00,98.45
1732.00,98.45
1731.00,98.46
1730.00,98.45
1729.00,98.45
1728.00,98.44
1727.00,98.45
1726.00,98.45
1725.00,98.45
1724.00,98.44
1723.00,98.44
1722.00,98.44
1721.00,98.45
1720.00,98.46
1719.00,98.44
1718.00,98.42
1717.00,98.40
1716.00,98.37
1715.00,98.35
1714.00,98.33
1713.00,98.33
1712.00,98.33
1711.00,98.34
1710.00,98.35
1709.00,98.35
1708.00,98.35
1707.00,98.33
1706.00,98.31
1705.00,98.29
1704.00,98.26
1703.00,98.25
1702.00,98.24
1701.00,98.24
1700.00,98.24
1699.00,98.24
1698.00,98.23
1697.00,98.23
1696.00,98.22
1695.00,98.19
1694.00,98.15
1693.00,98.13
1692.00,98.11
1691.00,98.09
1690.00,98.07
1689.00,98.03
1688.00,98.01
1687.00,98.00
1686.00,97.99
1685.00,97.95
1684.00,97.88
1683.00,97.81
1682.00,97.77
1681.00,97.75
1680.00,97.73
1679.00,97.72
1678.00,97.70
1677.00,97.67
1676.00,97.64
1675.00,97.62
1674.00,97.59
1673.00,97.57
1672.00,97.54
1671.00,97.50
1670.00,97.45
1669.00,97.41
1668.00,97.37
1667.00,97.35
1666.00,97.34
1665.00,97.32
1664.00,97.29
1663.00,97.25
1662.00,97.20
1661.00,97.16
1660.00,97.13
1659.00,97.12
1658.00,97.10
1657.00,97.07
1656.00,97.03
1655.00,97.00
1654.00,96.98
1653.00,96.98
1652.00,96.98
1651.00,96.96
1650.00,96.93
1649.00,96.91
1648.00,96.89
1647.00,96.88
1646.00,96.87
1645.00,96.85
1644.00,96.82
1643.00,96.79
1642.00,96.78
1641.00,96.78
1640.00,96.77
1639.00,96.75
1638.00,96.73
1637.00,96.72
1636.00,96.74
1635.00,96.77
1634.00,96.80
1633.00,96.81
1632.00,96.82
1631.00,96.83
1630.00,96.86
1629.00,96.89
1628.00,96.91
1627.00,96.93
1626.00,96.94
1625.00,96.96
1624.00,96.99
1623.00,97.01
1622.00,97.03
1621.00,97.04
1620.00,97.06
1619.00,97.09
1618.00,97.13
1617.00,97.16
1616.00,97.17
1615.00,97.17
1614.00,97.17
1613.00,97.18
1612.00,97.20
1611.00,97.23
1610.00,97.26
1609.00,97.28
1608.00,97.28
1607.00,97.29
1606.00,97.30
1605.00,97.32
1604.00,97.34
1603.00,97.37
1602.00,97.39
1601.00,97.41
1600.00,97.42
1599.00,97.43
1598.00,97.46
1597.00,97.49
1596.00,97.52
1595.00,97.53
1594.00,97.54
1593.00,97.55
1592.00,97.56
1591.00,97.57
1590.00,97.58
1589.00,97.59
1588.00,97.61
1587.00,97.65
1586.00,97.68
1585.00,97.72
1584.00,97.74
1583.00,97.75
1582.00,97.75
1581.00,97.76
1580.00,97.77
1579.00,97.80
1578.00,97.84
1577.00,97.86
1576.00,97.87
1575.00,97.88
1574.00,97.88
1573.00,97.89
1572.00,97.90
1571.00,97.91
1570.00,97.92
1569.00,97.92
1568.00,97.92
1567.00,97.93
1566.00,97.94
1565.00,97.94
1564.00,97.94
1563.00,97.94
1562.00,97.96
1561.00,97.98
1560.00,98.01
1559.00,98.01
1558.00,98.01
1557.00,98.01
1556.00,98.02
1555.00,98.02
1554.00,98.01
1553.00,98.00
1552.00,98.00
1551.00,98.00
1550.00,98.01
1549.00,98.03
1548.00,98.04
1547.00,98.04
1546.00,98.04
1545.00,98.04
1544.00,98.05
1543.00,98.06
1542.00,98.08
1541.00,98.08
1540.00,98.08
1539.00,98.08
1538.00,98.07
1537.00,98.06
1536.00,98.06
1535.00,98.06
1534.00,98.05
1533.00,98.04
1532.00,98.04
1531.00,98.05
1530.00,98.06
1529.00,98.07
1528.00,98.07
1527.00,98.08
1526.00,98.08
1525.00,98.08
1524.00,98.07
1523.00,98.07
1522.00,98.06
1521.00,98.05
1520.00,98.05
1519.00,98.06
1518.00,98.07
1517.00,98.08
1516.00,98.07
1515.00,98.07
1514.00,98.06
1513.00,98.05
1512.00,98.05
1511.00,98.05
1510.00,98.04
1509.00,98.02
1508.00,98.00
1507.00,97.97
1506.00,97.96
1505.00,97.96
1504.00,97.96
1503.00,97.96
1502.00,97.96
1501.00,97.95
1500.00,97.93
1499.00,97.90
1498.00,97.87
1497.00,97.84
1496.00,97.81
1495.00,97.77
1494.00,97.74
1493.00,97.70
1492.00,97.67
1491.00,97.62
1490.00,97.56
1489.00,97.50
1488.00,97.46
1487.00,97.44
1486.00,97.42
1485.00,97.39
1484.00,97.34
1483.00,97.28
1482.00,97.21
1481.00,97.15
1480.00,97.09
1479.00,97.03
1478.00,96.96
1477.00,96.88
1476.00,96.80
1475.00,96.72
1474.00,96.63
1473.00,96.52
1472.00,96.40
1471.00,96.31
1470.00,96.25
1469.00,96.21
1468.00,96.17
1467.00,96.12
1466.00,96.08
1465.00,96.03
1464.00,95.99
1463.00,95.95
1462.00,95.91
1461.00,95.86
1460.00,95.81
1459.00,95.76
1458.00,95.72
1457.00,95.69
1456.00,95.66
1455.00,95.63
1454.00,95.59
1453.00,95.54
1452.00,95.49
1451.00,95.45
1450.00,95.40
1449.00,95.34
1448.00,95.29
1447.00,95.25
1446.00,95.21
1445.00,95.17
1444.00,95.12
1443.00,95.06
1442.00,95.01
1441.00,94.97
1440.00,94.93
1439.00,94.90
1438.00,94.88
1437.00,94.87
1436.00,94.86
1435.00,94.85
1434.00,94.84
1433.00,94.82
1432.00,94.81
1431.00,94.81
1430.00,94.81
1429.00,94.80
1428.00,94.78
1427.00,94.77
1426.00,94.75
1425.00,94.73
1424.00,94.70
1423.00,94.67
1422.00,94.64
1421.00,94.63
1420.00,94.64
1419.00,94.66
1418.00,94.67
1417.00,94.66
1416.00,94.64
1415.00,94.64
1414.00,94.64
1413.00,94.65
1412.00,94.67
1411.00,94.70
1410.00,94.72
1409.00,94.73
1408.00,94.72
1407.00,94.72
1406.00,94.72
1405.00,94.73
1404.00,94.74
1403.00,94.76
1402.00,94.75
1401.00,94.74
1400.00,94.72
1399.00,94.71
1398.00,94.70
1397.00,94.68
1396.00,94.67
1395.00,94.66
1394.00,94.66
1393.00,94.64
1392.00,94.62
1391.00,94.58
1390.00,94.54
1389.00,94.49
1388.00,94.42
1387.00,94.35
1386.00,94.28
1385.00,94.21
1384.00,94.13
1383.00,94.03
1382.00,93.92
1381.00,93.79
1380.00,93.66
1379.00,93.52
1378.00,93.40
1377.00,93.28
1376.00,93.18
1375.00,93.08
1374.00,93.01
1373.00,92.95
1372.00,92.91
1371.00,92.87
1370.00,92.83
1369.00,92.79
1368.00,92.76
1367.00,92.74
1366.00,92.72
1365.00,92.71
1364.00,92.71
1363.00,92.74
1362.00,92.79
1361.00,92.86
1360.00,92.93
1359.00,92.99
1358.00,93.04
1357.00,93.10
1356.00,93.15
1355.00,93.20
1354.00,93.26
1353.00,93.32
1352.00,93.37
1351.00,93.41
1350.00,93.43
1349.00,93.43
1348.00,93.43
1347.00,93.43
1346.00,93.43
1345.00,93.43
1344.00,93.42
1343.00,93.41
1342.00,93.38
1341.00,93.33
1340.00,93.26
1339.00,93.21
1338.00,93.17
1337.00,93.14
1336.00,93.14
1335.00,93.14
1334.00,93.15
1333.00,93.16
1332.00,93.17
1331.00,93.17
1330.00,93.18
1329.00,93.19
1328.00,93.21
1327.00,93.23
1326.00,93.24
1325.00,93.24
1324.00,93.24
1323.00,93.21
1322.00,93.17
1321.00,93.10
1320.00,93.02
1319.00,92.93
1318.00,92.86
1317.00,92.80
1316.00,92.77
1315.00,92.75
1314.00,92.75
1313.00,92.76
1312.00,92.78
1311.00,92.82
1310.00,92.89
1309.00,92.97
1308.00,93.06
1307.00,93.15
1306.00,93.24
1305.00,93.33
1304.00,93.42
1303.00,93.51
1302.00,93.60
1301.00,93.69
1300.00,93.77
1299.00,93.85
1298.00,93.93
1297.00,94.00
1296.00,94.06
1295.00,94.12
1294.00,94.19
1293.00,94.27
1292.00,94.36
1291.00,94.45
1290.00,94.54
1289.00,94.62
1288.00,94.68
1287.00,94.72
1286.00,94.75
1285.00,94.76
1284.00,94.76
1283.00,94.75
1282.00,94.74
1281.00,94.71
1280.00,94.69
1279.00,94.65
1278.00,94.62
1277.00,94.61
1276.00,94.60
1275.00,94.59
1274.00,94.57
1273.00,94.55
1272.00,94.53
1271.00,94.51
1270.00,94.48
1269.00,94.46
1268.00,94.43
1267.00,94.40
1266.00,94.38
1265.00,94.36
1264.00,94.34
1263.00,94.32
1262.00,94.32
1261.00,94.31
1260.00,94.31
1259.00,94.33
1258.00,94.36
1257.00,94.42
1256.00,94.49
1255.00,94.56
1254.00,94.61
1253.00,94.66
1252.00,94.70
1251.00,94.74
1250.00,94.78
1249.00,94.81
1248.00,94.83
1247.00,94.85
1246.00,94.88
1245.00,94.90
1244.00,94.92
1243.00,94.93
1242.00,94.92
1241.00,94.91
1240.00,94.90
1239.00,94.90
1238.00,94.90
1237.00,94.90
1236.00,94.90
1235.00,94.90
1234.00,94.91
1233.00,94.93
1232.00,94.94
1231.00,94.96
1230.00,94.98
1229.00,95.00
1228.00,95.04
1227.00,95.08
1226.00,95.12
1225.00,95.18
1224.00,95.24
1223.00,95.31
1222.00,95.39
1221.00,95.48
1220.00,95.56
1219.00,95.65
1218.00,95.74
1217.00,95.80
1216.00,95.85
1215.00,95.89
1214.00,95.92
1213.00,95.95
1212.00,95.96
1211.00,95.95
1210.00,95.89
1209.00,95.81
1208.00,95.71
1207.00,95.61
1206.00,95.50
1205.00,95.39
1204.00,95.29
1203.00,95.21
1202.00,95.14
1201.00,95.09
1200.00,95.07
1199.00,95.05
1198.00,95.06
1197.00,95.10
1196.00,95.18
1195.00,95.29
1194.00,95.42
1193.00,95.55
1192.00,95.68
1191.00,95.81
1190.00,95.93
1189.00,96.02
1188.00,96.09
1187.00,96.13
1186.00,96.14
1185.00,96.14
1184.00,96.13
1183.00,96.11
1182.00,96.08
1181.00,96.02
1180.00,95.93
1179.00,95.82
1178.00,95.67
1177.00,95.50
1176.00,95.32
1175.00,95.15
1174.00,94.98
1173.00,94.79
1172.00,94.57
1171.00,94.30
1170.00,93.99
1169.00,93.65
1168.00,93.29
1167.00,92.94
1166.00,92.60
1165.00,92.24
1164.00,91.89
1163.00,91.57
1162.00,91.28
1161.00,91.04
1160.00,90.84
1159.00,90.68
1158.00,90.57
1157.00,90.50
1156.00,90.48
1155.00,90.49
1154.00,90.56
1153.00,90.67
1152.00,90.82
1151.00,91.00
1150.00,91.17
1149.00,91.33
1148.00,91.46
1147.00,91.58
1146.00,91.69
1145.00,91.80
1144.00,91.90
1143.00,92.00
1142.00,92.08
1141.00,92.11
1140.00,92.10
1139.00,92.04
1138.00,91.94
1137.00,91.81
1136.00,91.68
1135.00,91.54
1134.00,91.38
1133.00,91.19
1132.00,90.98
1131.00,90.75
1130.00,90.52
1129.00,90.29
1128.00,90.06
1127.00,89.84
1126.00,89.63
1125.00,89.41
1124.00,89.18
1123.00,88.91
1122.00,88.64
1121.00,88.36
1120.00,88.10
1119.00,87.87
1118.00,87.66
1117.00,87.46
1116.00,87.28
1115.00,87.11
1114.00,86.96
1113.00,86.83
1112.00,86.70
1111.00,86.60
1110.00,86.50
1109.00,86.39
1108.00,86.26
1107.00,86.14
1106.00,86.03
1105.00,85.92
1104.00,85.78
1103.00,85.61
1102.00,85.40
1101.00,85.19
1100.00,84.99
1099.00,84.81
1098.00,84.64
1097.00,84.48
1096.00,84.31
1095.00,84.15
1094.00,83.99
1093.00,83.85
1092.00,83.71
1091.00,83.59
1090.00,83.46
1089.00,83.31
1088.00,83.14
1087.00,82.97
1086.00,82.81
1085.00,82.64
1084.00,82.47
1083.00,82.30
1082.00,82.12
1081.00,81.94
1080.00,81.73
1079.00,81.52
1078.00,81.30
1077.00,81.06
1076.00,80.80
1075.00,80.55
1074.00,80.32
1073.00,80.09
1072.00,79.86
1071.00,79.64
1070.00,79.43
1069.00,79.23
1068.00,79.01
1067.00,78.80
1066.00,78.59
1065.00,78.39
1064.00,78.17
1063.00,77.94
1062.00,77.72
1061.00,77.52
1060.00,77.35
1059.00,77.23
1058.00,77.13
1057.00,77.03
1056.00,76.91
1055.00,76.78
1054.00,76.65
1053.00,76.55
1052.00,76.47
1051.00,76.39
1050.00,76.31
1049.00,76.22
1048.00,76.12
1047.00,76.05
1046.00,75.99
1045.00,75.94
1044.00,75.89
1043.00,75.85
1042.00,75.79
1041.00,75.72
1040.00,75.63
1039.00,75.55
1038.00,75.47
1037.00,75.36
1036.00,75.22
1035.00,75.04
1034.00,74.85
1033.00,74.65
1032.00,74.44
1031.00,74.23
1030.00,74.01
1029.00,73.79
1028.00,73.58
1027.00,73.39
1026.00,73.22
1025.00,73.07
1024.00,72.93
1023.00,72.80
1022.00,72.70
1021.00,72.60
1020.00,72.52
1019.00,72.46
1018.00,72.44
1017.00,72.46
1016.00,72.51
1015.00,72.61
1014.00,72.74
1013.00,72.91
1012.00,73.09
1011.00,73.28
1010.00,73.49
1009.00,73.70
1008.00,73.91
1007.00,74.12
1006.00,74.29
1005.00,74.40
1004.00,74.46
1003.00,74.49
1002.00,74.50
1001.00,74.47
1000.00,74.41
999.00,74.35
998.00,74.29
997.00,74.23
996.00,74.17
995.00,74.14
994.00,74.16
993.00,74.23
992.00,74.36
991.00,74.53
990.00,74.75
989.00,75.01
988.00,75.30
987.00,75.64
986.00,76.02
985.00,76.44
984.00,76.88
983.00,77.35
982.00,77.84
981.00,78.35
980.00,78.84
979.00,79.29
978.00,79.70
977.00,80.05
976.00,80.37
975.00,80.67
974.00,80.96
973.00,81.23
972.00,81.50
971.00,81.76
970.00,82.01
969.00,82.24
968.00,82.44
967.00,82.62
966.00,82.79
965.00,82.95
964.00,83.13
963.00,83.32
962.00,83.52
961.00,83.73
960.00,83.93
959.00,84.13
958.00,84.35
957.00,84.57
956.00,84.78
955.00,84.99
954.00,85.20
953.00,85.41
952.00,85.62
951.00,85.83
950.00,86.03
949.00,86.23
948.00,86.41
947.00,86.58
946.00,86.74
945.00,86.91
944.00,87.06
943.00,87.21
942.00,87.34
941.00,87.44
940.00,87.53
939.00,87.64
938.00,87.77
937.00,87.91
936.00,88.04
935.00,88.12
934.00,88.18
933.00,88.22
932.00,88.28
931.00,88.35
930.00,88.44
929.00,88.54
928.00,88.63
927.00,88.72
926.00,88.80
925.00,88.87
924.00,88.92
923.00,88.96
922.00,89.02
921.00,89.09
920.00,89.17
919.00,89.24
918.00,89.29
917.00,89.31
916.00,89.32
915.00,89.33
914.00,89.33
913.00,89.31
912.00,89.27
911.00,89.20
910.00,89.10
909.00,88.98
908.00,88.85
907.00,88.70
906.00,88.54
905.00,88.37
904.00,88.20
903.00,88.05
902.00,87.91
901.00,87.77
900.00,87.61
899.00,87.44
898.00,87.27
897.00,87.13
896.00,87.02
895.00,86.95
894.00,86.93
893.00,86.97
892.00,87.06
891.00,87.18
890.00,87.34
889.00,87.52
888.00,87.73
887.00,87.97
886.00,88.20
885.00,88.41
884.00,88.60
883.00,88.78
882.00,88.96
881.00,89.13
880.00,89.30
879.00,89.46
878.00,89.61
877.00,89.76
876.00,89.90
875.00,90.03
874.00,90.13
873.00,90.19
872.00,90.24
871.00,90.30
870.00,90.39
869.00,90.50
868.00,90.62
867.00,90.70
866.00,90.77
865.00,90.82
864.00,90.85
863.00,90.89
862.00,90.91
861.00,90.92
860.00,90.92
859.00,90.93
858.00,90.94
857.00,90.95
856.00,90.96
855.00,90.97
854.00,90.99
853.00,91.02
852.00,91.05
851.00,91.09
850.00,91.13
849.00,91.15
848.00,91.16
847.00,91.17
846.00,91.19
845.00,91.22
844.00,91.26
843.00,91.29
842.00,91.29
841.00,91.26
840.00,91.21
839.00,91.16
838.00,91.12
837.00,91.11
836.00,91.12
835.00,91.13
834.00,91.12
833.00,91.10
832.00,91.08
831.00,91.07
830.00,91.07
829.00,91.07
828.00,91.05
827.00,91.04
826.00,91.05
825.00,91.06
824.00,91.07
823.00,91.06
822.00,91.04
821.00,91.00
820.00,90.95
819.00,90.90
818.00,90.87
817.00,90.88
816.00,90.89
815.00,90.89
814.00,90.87
813.00,90.86
812.00,90.86
811.00,90.85
810.00,90.83
809.00,90.80
808.00,90.76
807.00,90.72
806.00,90.70
805.00,90.69
804.00,90.70
803.00,90.72
802.00,90.73
801.00,90.72
800.00,90.69
799.00,90.65
798.00,90.62
797.00,90.59
796.00,90.55
795.00,90.50
794.00,90.45
793.00,90.43
792.00,90.44
791.00,90.47
790.00,90.47
789.00,90.45
788.00,90.42
787.00,90.41
786.00,90.39
785.00,90.35
784.00,90.29
783.00,90.23
782.00,90.18
781.00,90.13
780.00,90.10
779.00,90.09
778.00,90.10
777.00,90.09
776.00,90.04
775.00,89.97
774.00,89.91
773.00,89.87
772.00,89.85
771.00,89.84
770.00,89.83
769.00,89.82
768.00,89.80
767.00,89.77
766.00,89.70
765.00,89.62
764.00,89.52
763.00,89.43
762.00,89.37
761.00,89.33
760.00,89.31
759.00,89.30
758.00,89.29
757.00,89.29
756.00,89.30
755.00,89.30
754.00,89.27
753.00,89.21
752.00,89.13
751.00,89.05
750.00,88.98
749.00,88.91
748.00,88.86
747.00,88.82
746.00,88.79
745.00,88.76
744.00,88.72
743.00,88.68
742.00,88.62
741.00,88.57
740.00,88.52
739.00,88.48
738.00,88.43
737.00,88.35
736.00,88.25
735.00,88.17
734.00,88.13
733.00,88.11
732.00,88.07
731.00,88.01
730.00,87.95
729.00,87.90
728.00,87.88
727.00,87.86
726.00,87.85
725.00,87.82
724.00,87.75
723.00,87.67
722.00,87.57
721.00,87.47
720.00,87.38
719.00,87.30
718.00,87.24
717.00,87.20
716.00,87.20
715.00,87.21
714.00,87.21
713.00,87.16
712.00,87.08
711.00,87.00
710.00,86.97
709.00,86.97
708.00,86.97
707.00,86.95
706.00,86.92
705.00,86.87
704.00,86.83
703.00,86.82
702.00,86.83
701.00,86.82
700.00,86.79
699.00,86.74
698.00,86.71
697.00,86.68
696.00,86.63
695.00,86.56
694.00,86.49
693.00,86.44
692.00,86.41
691.00,86.39
690.00,86.38
689.00,86.38
688.00,86.35
687.00,86.32
686.00,86.28
685.00,86.23
684.00,86.13
683.00,85.99
682.00,85.84
681.00,85.66
680.00,85.47
679.00,85.25
678.00,85.01
677.00,84.72
676.00,84.36
675.00,83.95
674.00,83.50
673.00,83.06
672.00,82.65
671.00,82.33
670.00,82.11
669.00,82.03
668.00,82.02
667.00,81.97
666.00,81.86
665.00,81.75
664.00,81.68
663.00,81.67
662.00,81.70
661.00,81.75
660.00,81.81
659.00,81.84
658.00,81.85
657.00,81.83
656.00,81.82
655.00,81.82
654.00,81.82
653.00,81.81
652.00,81.79
651.00,81.79
650.00,81.79
649.00,81.78
648.00,81.77
647.00,81.76
646.00,81.72
645.00,81.60
644.00,81.42
643.00,81.26
642.00,81.21
641.00,81.25
640.00,81.30
639.00,81.29
638.00,81.21
637.00,81.09
636.00,80.97
635.00,80.95
634.00,81.03
633.00,81.16
632.00,81.27
631.00,81.31
630.00,81.27
629.00,81.11
628.00,80.84
627.00,80.56
626.00,80.36
625.00,80.21
624.00,80.07
623.00,79.93
622.00,79.84
621.00,79.80
620.00,79.81
619.00,79.88
618.00,79.97
617.00,79.95
616.00,79.74
615.00,79.44
614.00,79.24
613.00,79.18
612.00,79.11
611.00,78.92
610.00,78.63
609.00,78.40
608.00,78.33
607.00,78.42
606.00,78.57
605.00,78.67
604.00,78.66
603.00,78.51
602.00,78.27
601.00,78.00
600.00,77.83
599.00,77.81
598.00,77.90
597.00,77.99
596.00,78.01
595.00,77.96
594.00,77.82
593.00,77.58
592.00,77.30
591.00,77.23
590.00,77.48
589.00,77.92
588.00,78.27
587.00,78.37
586.00,78.25
585.00,78.03
584.00,77.87
583.00,77.87
582.00,78.03
581.00,78.21
580.00,78.25
579.00,78.12
578.00,77.89
577.00,77.76
576.00,77.82
575.00,78.00
574.00,78.04
573.00,77.76
572.00,77.29
571.00,76.99
570.00,77.01
569.00,77.10
568.00,76.97
567.00,76.60
566.00,76.25
565.00,76.17
564.00,76.36
563.00,76.66
562.00,76.93
561.00,77.16
560.00,77.42
559.00,77.56
558.00,77.29
557.00,76.64
556.00,76.07
555.00,76.05
554.00,76.48
553.00,76.85
552.00,76.98
551.00,77.08
550.00,77.29
