Created as New Dataset,194 FMC American Viscose
cm-1,%T
4000.00,100.52
3999.00,100.56
3998.00,100.59
3997.00,100.61
3996.00,100.60
3995.00,100.58
3994.00,100.57
3993.00,100.57
3992.00,100.58
3991.00,100.60
3990.00,100.62
3989.00,100.62
3988.00,100.61
3987.00,100.60
3986.00,100.59
3985.00,100.58
3984.00,100.57
3983.00,100.57
3982.00,100.56
3981.00,100.55
3980.00,100.54
3979.00,100.55
3978.00,100.56
3977.00,100.57
3976.00,100.57
3975.00,100.56
3974.00,100.55
3973.00,100.56
3972.00,100.56
3971.00,100.57
3970.00,100.56
3969.00,100.55
3968.00,100.54
3967.00,100.54
3966.00,100.55
3965.00,100.57
3964.00,100.58
3963.00,100.57
3962.00,100.55
3961.00,100.53
3960.00,100.51
3959.00,100.51
3958.00,100.53
3957.00,100.56
3956.00,100.58
3955.00,100.59
3954.00,100.60
3953.00,100.60
3952.00,100.59
3951.00,100.57
3950.00,100.55
3949.00,100.54
3948.00,100.53
3947.00,100.53
3946.00,100.53
3945.00,100.52
3944.00,100.51
3943.00,100.51
3942.00,100.52
3941.00,100.53
3940.00,100.55
3939.00,100.57
3938.00,100.58
3937.00,100.58
3936.00,100.58
3935.00,100.58
3934.00,100.59
3933.00,100.61
3932.00,100.62
3931.00,100.60
3930.00,100.57
3929.00,100.53
3928.00,100.51
3927.00,100.50
3926.00,100.51
3925.00,100.54
3924.00,100.56
3923.00,100.57
3922.00,100.56
3921.00,100.56
3920.00,100.57
3919.00,100.59
3918.00,100.61
3917.00,100.63
3916.00,100.62
3915.00,100.60
3914.00,100.57
3913.00,100.57
3912.00,100.58
3911.00,100.60
3910.00,100.61
3909.00,100.61
3908.00,100.61
3907.00,100.60
3906.00,100.61
3905.00,100.63
3904.00,100.66
3903.00,100.67
3902.00,100.65
3901.00,100.63
3900.00,100.60
3899.00,100.57
3898.00,100.57
3897.00,100.58
3896.00,100.60
3895.00,100.62
3894.00,100.63
3893.00,100.62
3892.00,100.62
3891.00,100.63
3890.00,100.64
3889.00,100.62
3888.00,100.60
3887.00,100.61
3886.00,100.64
3885.00,100.65
3884.00,100.61
3883.00,100.55
3882.00,100.52
3881.00,100.52
3880.00,100.57
3879.00,100.60
3878.00,100.62
3877.00,100.62
3876.00,100.63
3875.00,100.65
3874.00,100.65
3873.00,100.61
3872.00,100.55
3871.00,100.52
3870.00,100.54
3869.00,100.56
3868.00,100.55
3867.00,100.52
3866.00,100.51
3865.00,100.53
3864.00,100.55
3863.00,100.56
3862.00,100.57
3861.00,100.60
3860.00,100.62
3859.00,100.65
3858.00,100.66
3857.00,100.64
3856.00,100.60
3855.00,100.58
3854.00,100.58
3853.00,100.59
3852.00,100.60
3851.00,100.60
3850.00,100.61
3849.00,100.62
3848.00,100.62
3847.00,100.60
3846.00,100.59
3845.00,100.59
3844.00,100.60
3843.00,100.61
3842.00,100.62
3841.00,100.61
3840.00,100.60
3839.00,100.60
3838.00,100.61
3837.00,100.61
3836.00,100.59
3835.00,100.56
3834.00,100.53
3833.00,100.52
3832.00,100.54
3831.00,100.56
3830.00,100.56
3829.00,100.54
3828.00,100.53
3827.00,100.54
3826.00,100.57
3825.00,100.57
3824.00,100.54
3823.00,100.51
3822.00,100.52
3821.00,100.55
3820.00,100.55
3819.00,100.52
3818.00,100.48
3817.00,100.50
3816.00,100.54
3815.00,100.56
3814.00,100.53
3813.00,100.50
3812.00,100.50
3811.00,100.52
3810.00,100.54
3809.00,100.55
3808.00,100.57
3807.00,100.60
3806.00,100.62
3805.00,100.60
3804.00,100.57
3803.00,100.55
3802.00,100.58
3801.00,100.60
3800.00,100.58
3799.00,100.54
3798.00,100.52
3797.00,100.54
3796.00,100.57
3795.00,100.57
3794.00,100.55
3793.00,100.52
3792.00,100.51
3791.00,100.50
3790.00,100.50
3789.00,100.50
3788.00,100.49
3787.00,100.48
3786.00,100.48
3785.00,100.50
3784.00,100.53
3783.00,100.54
3782.00,100.53
3781.00,100.51
3780.00,100.50
3779.00,100.50
3778.00,100.50
3777.00,100.49
3776.00,100.49
3775.00,100.51
3774.00,100.54
3773.00,100.54
3772.00,100.52
3771.00,100.50
3770.00,100.48
3769.00,100.47
3768.00,100.45
3767.00,100.44
3766.00,100.45
3765.00,100.45
3764.00,100.45
3763.00,100.43
3762.00,100.42
3761.00,100.43
3760.00,100.45
3759.00,100.44
3758.00,100.43
3757.00,100.43
3756.00,100.44
3755.00,100.45
3754.00,100.47
3753.00,100.48
3752.00,100.48
3751.00,100.47
3750.00,100.50
3749.00,100.53
3748.00,100.54
3747.00,100.52
3746.00,100.51
3745.00,100.55
3744.00,100.57
3743.00,100.56
3742.00,100.54
3741.00,100.53
3740.00,100.55
3739.00,100.58
3738.00,100.60
3737.00,100.61
3736.00,100.61
3735.00,100.58
3734.00,100.54
3733.00,100.53
3732.00,100.54
3731.00,100.53
3730.00,100.49
3729.00,100.45
3728.00,100.44
3727.00,100.47
3726.00,100.51
3725.00,100.51
3724.00,100.49
3723.00,100.46
3722.00,100.44
3721.00,100.44
3720.00,100.45
3719.00,100.46
3718.00,100.48
3717.00,100.49
3716.00,100.49
3715.00,100.47
3714.00,100.45
3713.00,100.46
3712.00,100.49
3711.00,100.52
3710.00,100.53
3709.00,100.52
3708.00,100.51
3707.00,100.50
3706.00,100.48
3705.00,100.46
3704.00,100.44
3703.00,100.43
3702.00,100.45
3701.00,100.47
3700.00,100.47
3699.00,100.45
3698.00,100.43
3697.00,100.44
3696.00,100.45
3695.00,100.46
3694.00,100.47
3693.00,100.46
3692.00,100.46
3691.00,100.45
3690.00,100.45
3689.00,100.45
3688.00,100.45
3687.00,100.43
3686.00,100.41
3685.00,100.40
3684.00,100.40
3683.00,100.40
3682.00,100.39
3681.00,100.39
3680.00,100.40
3679.00,100.42
3678.00,100.43
3677.00,100.46
3676.00,100.50
3675.00,100.52
3674.00,100.49
3673.00,100.44
3672.00,100.40
3671.00,100.40
3670.00,100.41
3669.00,100.40
3668.00,100.37
3667.00,100.35
3666.00,100.34
3665.00,100.35
3664.00,100.35
3663.00,100.35
3662.00,100.35
3661.00,100.35
3660.00,100.33
3659.00,100.30
3658.00,100.28
3657.00,100.29
3656.00,100.32
3655.00,100.33
3654.00,100.33
3653.00,100.31
3652.00,100.32
3651.00,100.34
3650.00,100.36
3649.00,100.35
3648.00,100.31
3647.00,100.27
3646.00,100.23
3645.00,100.19
3644.00,100.17
3643.00,100.17
3642.00,100.18
3641.00,100.19
3640.00,100.18
3639.00,100.17
3638.00,100.15
3637.00,100.13
3636.00,100.10
3635.00,100.10
3634.00,100.11
3633.00,100.11
3632.00,100.07
3631.00,100.00
3630.00,99.95
3629.00,99.94
3628.00,99.96
3627.00,99.98
3626.00,99.98
3625.00,99.99
3624.00,99.99
3623.00,99.99
3622.00,99.98
3621.00,99.97
3620.00,99.95
3619.00,99.94
3618.00,99.92
3617.00,99.90
3616.00,99.90
3615.00,99.91
3614.00,99.92
3613.00,99.92
3612.00,99.89
3611.00,99.85
3610.00,99.82
3609.00,99.81
3608.00,99.81
3607.00,99.80
3606.00,99.78
3605.00,99.75
3604.00,99.74
3603.00,99.73
3602.00,99.73
3601.00,99.71
3600.00,99.69
3599.00,99.65
3598.00,99.61
3597.00,99.57
3596.00,99.55
3595.00,99.55
3594.00,99.55
3593.00,99.57
3592.00,99.57
3591.00,99.55
3590.00,99.51
3589.00,99.48
3588.00,99.45
3587.00,99.42
3586.00,99.40
3585.00,99.38
3584.00,99.36
3583.00,99.34
3582.00,99.32
3581.00,99.30
3580.00,99.27
3579.00,99.24
3578.00,99.21
3577.00,99.21
3576.00,99.21
3575.00,99.21
3574.00,99.18
3573.00,99.14
3572.00,99.10
3571.00,99.07
3570.00,99.05
3569.00,99.03
3568.00,99.01
3567.00,99.00
3566.00,98.99
3565.00,98.97
3564.00,98.94
3563.00,98.89
3562.00,98.85
3561.00,98.82
3560.00,98.80
3559.00,98.79
3558.00,98.77
3557.00,98.74
3556.00,98.71
3555.00,98.68
3554.00,98.65
3553.00,98.61
3552.00,98.57
3551.00,98.54
3550.00,98.54
3549.00,98.55
3548.00,98.56
3547.00,98.56
3546.00,98.52
3545.00,98.47
3544.00,98.42
3543.00,98.38
3542.00,98.34
3541.00,98.32
3540.00,98.30
3539.00,98.28
3538.00,98.26
3537.00,98.23
3536.00,98.19
3535.00,98.14
3534.00,98.10
3533.00,98.07
3532.00,98.05
3531.00,98.03
3530.00,98.02
3529.00,98.00
3528.00,97.98
3527.00,97.96
3526.00,97.93
3525.00,97.89
3524.00,97.85
3523.00,97.82
3522.00,97.81
3521.00,97.80
3520.00,97.79
3519.00,97.77
3518.00,97.74
3517.00,97.70
3516.00,97.64
3515.00,97.58
3514.00,97.52
3513.00,97.46
3512.00,97.41
3511.00,97.36
3510.00,97.30
3509.00,97.26
3508.00,97.24
3507.00,97.23
3506.00,97.21
3505.00,97.18
3504.00,97.14
3503.00,97.10
3502.00,97.05
3501.00,97.00
3500.00,96.96
3499.00,96.91
3498.00,96.86
3497.00,96.81
3496.00,96.76
3495.00,96.72
3494.00,96.67
3493.00,96.61
3492.00,96.55
3491.00,96.50
3490.00,96.47
3489.00,96.43
3488.00,96.39
3487.00,96.34
3486.00,96.29
3485.00,96.26
3484.00,96.24
3483.00,96.22
3482.00,96.21
3481.00,96.20
3480.00,96.18
3479.00,96.15
3478.00,96.10
3477.00,96.06
3476.00,96.04
3475.00,96.04
3474.00,96.06
3473.00,96.06
3472.00,96.03
3471.00,95.99
3470.00,95.92
3469.00,95.86
3468.00,95.81
3467.00,95.79
3466.00,95.79
3465.00,95.79
3464.00,95.78
3463.00,95.73
3462.00,95.67
3461.00,95.61
3460.00,95.57
3459.00,95.53
3458.00,95.49
3457.00,95.44
3456.00,95.39
3455.00,95.34
3454.00,95.30
3453.00,95.27
3452.00,95.24
3451.00,95.20
3450.00,95.13
3449.00,95.07
3448.00,95.02
3447.00,95.00
3446.00,94.99
3445.00,94.97
3444.00,94.94
3443.00,94.90
3442.00,94.86
3441.00,94.82
3440.00,94.78
3439.00,94.74
3438.00,94.71
3437.00,94.71
3436.00,94.72
3435.00,94.72
3434.00,94.70
3433.00,94.69
3432.00,94.69
3431.00,94.71
3430.00,94.73
3429.00,94.74
3428.00,94.72
3427.00,94.68
3426.00,94.65
3425.00,94.61
3424.00,94.59
3423.00,94.57
3422.00,94.57
3421.00,94.57
3420.00,94.57
3419.00,94.57
3418.00,94.56
3417.00,94.54
3416.00,94.52
3415.00,94.49
3414.00,94.45
3413.00,94.42
3412.00,94.39
3411.00,94.37
3410.00,94.35
3409.00,94.34
3408.00,94.33
3407.00,94.33
3406.00,94.33
3405.00,94.32
3404.00,94.30
3403.00,94.28
3402.00,94.27
3401.00,94.25
3400.00,94.22
3399.00,94.20
3398.00,94.19
3397.00,94.18
3396.00,94.17
3395.00,94.16
3394.00,94.15
3393.00,94.15
3392.00,94.15
3391.00,94.15
3390.00,94.14
3389.00,94.12
3388.00,94.11
3387.00,94.09
3386.00,94.08
3385.00,94.06
3384.00,94.04
3383.00,94.02
3382.00,94.01
3381.00,94.01
3380.00,94.00
3379.00,93.99
3378.00,93.97
3377.00,93.94
3376.00,93.92
3375.00,93.90
3374.00,93.90
3373.00,93.91
3372.00,93.91
3371.00,93.90
3370.00,93.88
3369.00,93.87
3368.00,93.86
3367.00,93.85
3366.00,93.85
3365.00,93.84
3364.00,93.83
3363.00,93.82
3362.00,93.82
3361.00,93.81
3360.00,93.80
3359.00,93.79
3358.00,93.78
3357.00,93.78
3356.00,93.77
3355.00,93.75
3354.00,93.72
3353.00,93.70
3352.00,93.70
3351.00,93.71
3350.00,93.73
3349.00,93.74
3348.00,93.75
3347.00,93.75
3346.00,93.74
3345.00,93.72
3344.00,93.71
3343.00,93.70
3342.00,93.70
3341.00,93.70
3340.00,93.70
3339.00,93.69
3338.00,93.68
3337.00,93.67
3336.00,93.67
3335.00,93.67
3334.00,93.67
3333.00,93.67
3332.00,93.66
3331.00,93.65
3330.00,93.66
3329.00,93.67
3328.00,93.69
3327.00,93.70
3326.00,93.70
3325.00,93.69
3324.00,93.68
3323.00,93.68
3322.00,93.67
3321.00,93.67
3320.00,93.66
3319.00,93.66
3318.00,93.67
3317.00,93.69
3316.00,93.71
3315.00,93.71
3314.00,93.71
3313.00,93.71
3312.00,93.71
3311.00,93.71
3310.00,93.72
3309.00,93.71
3308.00,93.69
3307.00,93.68
3306.00,93.67
3305.00,93.67
3304.00,93.68
3303.00,93.69
3302.00,93.70
3301.00,93.71
3300.00,93.72
3299.00,93.74
3298.00,93.75
3297.00,93.76
3296.00,93.77
3295.00,93.78
3294.00,93.80
3293.00,93.82
3292.00,93.83
3291.00,93.84
3290.00,93.83
3289.00,93.83
3288.00,93.82
3287.00,93.82
3286.00,93.82
3285.00,93.82
3284.00,93.81
3283.00,93.81
3282.00,93.80
3281.00,93.80
3280.00,93.81
3279.00,93.82
3278.00,93.83
3277.00,93.84
3276.00,93.85
3275.00,93.86
3274.00,93.87
3273.00,93.88
3272.00,93.89
3271.00,93.90
3270.00,93.90
3269.00,93.90
3268.00,93.90
3267.00,93.91
3266.00,93.93
3265.00,93.95
3264.00,93.96
3263.00,93.97
3262.00,93.97
3261.00,93.98
3260.00,93.99
3259.00,94.00
3258.00,94.01
3257.00,94.03
3256.00,94.04
3255.00,94.04
3254.00,94.04
3253.00,94.04
3252.00,94.04
3251.00,94.04
3250.00,94.07
3249.00,94.09
3248.00,94.12
3247.00,94.14
3246.00,94.14
3245.00,94.14
3244.00,94.15
3243.00,94.16
3242.00,94.18
3241.00,94.20
3240.00,94.23
3239.00,94.26
3238.00,94.28
3237.00,94.30
3236.00,94.31
3235.00,94.31
3234.00,94.32
3233.00,94.33
3232.00,94.33
3231.00,94.34
3230.00,94.35
3229.00,94.35
3228.00,94.36
3227.00,94.36
3226.00,94.37
3225.00,94.38
3224.00,94.40
3223.00,94.42
3222.00,94.44
3221.00,94.45
3220.00,94.45
3219.00,94.46
3218.00,94.47
3217.00,94.48
3216.00,94.49
3215.00,94.50
3214.00,94.51
3213.00,94.53
3212.00,94.54
3211.00,94.56
3210.00,94.57
3209.00,94.59
3208.00,94.60
3207.00,94.61
3206.00,94.62
3205.00,94.62
3204.00,94.63
3203.00,94.66
3202.00,94.69
3201.00,94.73
3200.00,94.75
3199.00,94.75
3198.00,94.74
3197.00,94.74
3196.00,94.74
3195.00,94.76
3194.00,94.79
3193.00,94.81
3192.00,94.84
3191.00,94.85
3190.00,94.87
3189.00,94.88
3188.00,94.90
3187.00,94.92
3186.00,94.94
3185.00,94.96
3184.00,94.98
3183.00,95.00
3182.00,95.02
3181.00,95.04
3180.00,95.05
3179.00,95.06
3178.00,95.06
3177.00,95.07
3176.00,95.08
3175.00,95.09
3174.00,95.10
3173.00,95.12
3172.00,95.14
3171.00,95.17
3170.00,95.19
3169.00,95.22
3168.00,95.24
3167.00,95.27
3166.00,95.29
3165.00,95.30
3164.00,95.30
3163.00,95.31
3162.00,95.32
3161.00,95.35
3160.00,95.38
3159.00,95.40
3158.00,95.41
3157.00,95.40
3156.00,95.40
3155.00,95.42
3154.00,95.45
3153.00,95.48
3152.00,95.51
3151.00,95.53
3150.00,95.55
3149.00,95.57
3148.00,95.59
3147.00,95.60
3146.00,95.60
3145.00,95.61
3144.00,95.63
3143.00,95.66
3142.00,95.67
3141.00,95.69
3140.00,95.71
3139.00,95.73
3138.00,95.76
3137.00,95.78
3136.00,95.79
3135.00,95.81
3134.00,95.83
3133.00,95.87
3132.00,95.91
3131.00,95.93
3130.00,95.94
3129.00,95.94
3128.00,95.95
3127.00,95.96
3126.00,95.97
3125.00,95.99
3124.00,96.02
3123.00,96.06
3122.00,96.12
3121.00,96.17
3120.00,96.20
3119.00,96.20
3118.00,96.20
3117.00,96.20
3116.00,96.22
3115.00,96.25
3114.00,96.28
3113.00,96.30
3112.00,96.32
3111.00,96.36
3110.00,96.40
3109.00,96.43
3108.00,96.45
3107.00,96.45
3106.00,96.46
3105.00,96.49
3104.00,96.52
3103.00,96.54
3102.00,96.55
3101.00,96.56
3100.00,96.58
3099.00,96.61
3098.00,96.64
3097.00,96.66
3096.00,96.68
3095.00,96.70
3094.00,96.71
3093.00,96.73
3092.00,96.75
3091.00,96.78
3090.00,96.81
3089.00,96.84
3088.00,96.87
3087.00,96.89
3086.00,96.91
3085.00,96.92
3084.00,96.93
3083.00,96.95
3082.00,96.97
3081.00,97.00
3080.00,97.01
3079.00,97.03
3078.00,97.04
3077.00,97.05
3076.00,97.08
3075.00,97.10
3074.00,97.13
3073.00,97.16
3072.00,97.17
3071.00,97.18
3070.00,97.18
3069.00,97.19
3068.00,97.20
3067.00,97.21
3066.00,97.23
3065.00,97.25
3064.00,97.27
3063.00,97.30
3062.00,97.32
3061.00,97.33
3060.00,97.33
3059.00,97.34
3058.00,97.36
3057.00,97.39
3056.00,97.42
3055.00,97.43
3054.00,97.45
3053.00,97.46
3052.00,97.49
3051.00,97.51
3050.00,97.53
3049.00,97.55
3048.00,97.58
3047.00,97.60
3046.00,97.62
3045.00,97.64
3044.00,97.64
3043.00,97.65
3042.00,97.66
3041.00,97.68
3040.00,97.69
3039.00,97.70
3038.00,97.71
3037.00,97.71
3036.00,97.72
3035.00,97.73
3034.00,97.75
3033.00,97.78
3032.00,97.81
3031.00,97.84
3030.00,97.86
3029.00,97.87
3028.00,97.88
3027.00,97.89
3026.00,97.91
3025.00,97.92
3024.00,97.93
3023.00,97.94
3022.00,97.95
3021.00,97.96
3020.00,97.96
3019.00,97.95
3018.00,97.95
3017.00,97.96
3016.00,97.97
3015.00,97.99
3014.00,98.01
3013.00,98.03
3012.00,98.05
3011.00,98.06
3010.00,98.06
3009.00,98.06
3008.00,98.07
3007.00,98.07
3006.00,98.08
3005.00,98.10
3004.00,98.11
3003.00,98.13
3002.00,98.14
3001.00,98.14
3000.00,98.14
2999.00,98.14
2998.00,98.14
2997.00,98.15
2996.00,98.16
2995.00,98.16
2994.00,98.16
2993.00,98.16
2992.00,98.16
2991.00,98.16
2990.00,98.16
2989.00,98.14
2988.00,98.13
2987.00,98.12
2986.00,98.11
2985.00,98.10
2984.00,98.08
2983.00,98.08
2982.00,98.08
2981.00,98.08
2980.00,98.08
2979.00,98.09
2978.00,98.09
2977.00,98.09
2976.00,98.09
2975.00,98.08
2974.00,98.07
2973.00,98.05
2972.00,98.04
2971.00,98.03
2970.00,98.01
2969.00,98.00
2968.00,97.98
2967.00,97.98
2966.00,97.97
2965.00,97.96
2964.00,97.94
2963.00,97.91
2962.00,97.90
2961.00,97.89
2960.00,97.89
2959.00,97.88
2958.00,97.86
2957.00,97.83
2956.00,97.80
2955.00,97.78
2954.00,97.75
2953.00,97.72
2952.00,97.69
2951.00,97.66
2950.00,97.64
2949.00,97.62
2948.00,97.60
2947.00,97.57
2946.00,97.54
2945.00,97.51
2944.00,97.47
2943.00,97.43
2942.00,97.40
2941.00,97.39
2940.00,97.39
2939.00,97.38
2938.00,97.35
2937.00,97.29
2936.00,97.23
2935.00,97.18
2934.00,97.16
2933.00,97.15
2932.00,97.13
2931.00,97.12
2930.00,97.10
2929.00,97.08
2928.00,97.06
2927.00,97.04
2926.00,97.00
2925.00,96.97
2924.00,96.94
2923.00,96.92
2922.00,96.91
2921.00,96.89
2920.00,96.88
2919.00,96.86
2918.00,96.84
2917.00,96.81
2916.00,96.79
2915.00,96.77
2914.00,96.74
2913.00,96.71
2912.00,96.68
2911.00,96.66
2910.00,96.64
2909.00,96.62
2908.00,96.59
2907.00,96.56
2906.00,96.53
2905.00,96.51
2904.00,96.49
2903.00,96.47
2902.00,96.45
2901.00,96.43
2900.00,96.41
2899.00,96.40
2898.00,96.39
2897.00,96.38
2896.00,96.36
2895.00,96.33
2894.00,96.31
2893.00,96.30
2892.00,96.30
2891.00,96.30
2890.00,96.31
2889.00,96.33
2888.00,96.35
2887.00,96.37
2886.00,96.38
2885.00,96.39
2884.00,96.39
2883.00,96.40
2882.00,96.40
2881.00,96.41
2880.00,96.42
2879.00,96.43
2878.00,96.44
2877.00,96.45
2876.00,96.47
2875.00,96.49
2874.00,96.51
2873.00,96.53
2872.00,96.54
2871.00,96.56
2870.00,96.57
2869.00,96.60
2868.00,96.63
2867.00,96.66
2866.00,96.69
2865.00,96.71
2864.00,96.74
2863.00,96.77
2862.00,96.80
2861.00,96.84
2860.00,96.88
2859.00,96.92
2858.00,96.95
2857.00,96.98
2856.00,97.01
2855.00,97.04
2854.00,97.08
2853.00,97.13
2852.00,97.17
2851.00,97.20
2850.00,97.22
2849.00,97.24
2848.00,97.27
2847.00,97.31
2846.00,97.34
2845.00,97.37
2844.00,97.39
2843.00,97.41
2842.00,97.44
2841.00,97.46
2840.00,97.47
2839.00,97.49
2838.00,97.50
2837.00,97.52
2836.00,97.55
2835.00,97.57
2834.00,97.60
2833.00,97.63
2832.00,97.65
2831.00,97.67
2830.00,97.69
2829.00,97.69
2828.00,97.68
2827.00,97.68
2826.00,97.68
2825.00,97.70
2824.00,97.73
2823.00,97.75
2822.00,97.77
2821.00,97.79
2820.00,97.80
2819.00,97.82
2818.00,97.83
2817.00,97.84
2816.00,97.84
2815.00,97.84
2814.00,97.84
2813.00,97.85
2812.00,97.87
2811.00,97.89
2810.00,97.91
2809.00,97.92
2808.00,97.93
2807.00,97.93
2806.00,97.93
2805.00,97.94
2804.00,97.95
2803.00,97.96
2802.00,97.97
2801.00,97.98
2800.00,97.99
2799.00,97.99
2798.00,98.00
2797.00,98.01
2796.00,98.02
2795.00,98.03
2794.00,98.03
2793.00,98.04
2792.00,98.05
2791.00,98.06
2790.00,98.07
2789.00,98.08
2788.00,98.08
2787.00,98.08
2786.00,98.09
2785.00,98.10
2784.00,98.11
2783.00,98.13
2782.00,98.15
2781.00,98.16
2780.00,98.17
2779.00,98.16
2778.00,98.15
2777.00,98.15
2776.00,98.16
2775.00,98.17
2774.00,98.18
2773.00,98.19
2772.00,98.20
2771.00,98.22
2770.00,98.23
2769.00,98.23
2768.00,98.23
2767.00,98.24
2766.00,98.25
2765.00,98.26
2764.00,98.28
2763.00,98.30
2762.00,98.30
2761.00,98.29
2760.00,98.29
2759.00,98.29
2758.00,98.30
2757.00,98.30
2756.00,98.31
2755.00,98.31
2754.00,98.31
2753.00,98.31
2752.00,98.30
2751.00,98.29
2750.00,98.28
2749.00,98.29
2748.00,98.31
2747.00,98.33
2746.00,98.34
2745.00,98.32
2744.00,98.31
2743.00,98.30
2742.00,98.29
2741.00,98.29
2740.00,98.29
2739.00,98.29
2738.00,98.29
2737.00,98.30
2736.00,98.30
2735.00,98.31
2734.00,98.31
2733.00,98.31
2732.00,98.32
2731.00,98.33
2730.00,98.34
2729.00,98.35
2728.00,98.35
2727.00,98.35
2726.00,98.34
2725.00,98.33
2724.00,98.33
2723.00,98.33
2722.00,98.33
2721.00,98.34
2720.00,98.34
2719.00,98.35
2718.00,98.36
2717.00,98.37
2716.00,98.37
2715.00,98.38
2714.00,98.38
2713.00,98.39
2712.00,98.39
2711.00,98.40
2710.00,98.41
2709.00,98.42
2708.00,98.43
2707.00,98.43
2706.00,98.43
2705.00,98.43
2704.00,98.43
2703.00,98.42
2702.00,98.42
2701.00,98.42
2700.00,98.43
2699.00,98.44
2698.00,98.45
2697.00,98.45
2696.00,98.45
2695.00,98.44
2694.00,98.44
2693.00,98.43
2692.00,98.42
2691.00,98.43
2690.00,98.44
2689.00,98.46
2688.00,98.47
2687.00,98.47
2686.00,98.47
2685.00,98.47
2684.00,98.47
2683.00,98.47
2682.00,98.47
2681.00,98.47
2680.00,98.49
2679.00,98.50
2678.00,98.51
2677.00,98.51
2676.00,98.52
2675.00,98.52
2674.00,98.52
2673.00,98.54
2672.00,98.56
2671.00,98.57
2670.00,98.58
2669.00,98.58
2668.00,98.58
2667.00,98.57
2666.00,98.56
2665.00,98.54
2664.00,98.54
2663.00,98.54
2662.00,98.54
2661.00,98.53
2660.00,98.52
2659.00,98.51
2658.00,98.50
2657.00,98.50
2656.00,98.51
2655.00,98.52
2654.00,98.53
2653.00,98.52
2652.00,98.51
2651.00,98.50
2650.00,98.51
2649.00,98.52
2648.00,98.52
2647.00,98.52
2646.00,98.50
2645.00,98.50
2644.00,98.50
2643.00,98.51
2642.00,98.52
2641.00,98.53
2640.00,98.53
2639.00,98.52
2638.00,98.51
2637.00,98.51
2636.00,98.51
2635.00,98.51
2634.00,98.50
2633.00,98.50
2632.00,98.49
2631.00,98.49
2630.00,98.49
2629.00,98.49
2628.00,98.50
2627.00,98.52
2626.00,98.54
2625.00,98.54
2624.00,98.54
2623.00,98.53
2622.00,98.52
2621.00,98.52
2620.00,98.51
2619.00,98.51
2618.00,98.52
2617.00,98.53
2616.00,98.54
2615.00,98.55
2614.00,98.54
2613.00,98.53
2612.00,98.52
2611.00,98.52
2610.00,98.52
2609.00,98.52
2608.00,98.52
2607.00,98.52
2606.00,98.52
2605.00,98.53
2604.00,98.52
2603.00,98.50
2602.00,98.47
2601.00,98.45
2600.00,98.45
2599.00,98.47
2598.00,98.48
2597.00,98.48
2596.00,98.47
2595.00,98.46
2594.00,98.46
2593.00,98.47
2592.00,98.48
2591.00,98.48
2590.00,98.48
2589.00,98.48
2588.00,98.47
2587.00,98.47
2586.00,98.45
2585.00,98.45
2584.00,98.45
2583.00,98.47
2582.00,98.50
2581.00,98.52
2580.00,98.52
2579.00,98.52
2578.00,98.51
2577.00,98.50
2576.00,98.49
2575.00,98.50
2574.00,98.51
2573.00,98.51
2572.00,98.50
2571.00,98.49
2570.00,98.48
2569.00,98.48
2568.00,98.48
2567.00,98.46
2566.00,98.44
2565.00,98.43
2564.00,98.43
2563.00,98.45
2562.00,98.47
2561.00,98.49
2560.00,98.49
2559.00,98.49
2558.00,98.47
2557.00,98.46
2556.00,98.46
2555.00,98.47
2554.00,98.48
2553.00,98.48
2552.00,98.47
2551.00,98.46
2550.00,98.45
2549.00,98.45
2548.00,98.46
2547.00,98.47
2546.00,98.46
2545.00,98.43
2544.00,98.41
2543.00,98.41
2542.00,98.44
2541.00,98.47
2540.00,98.49
2539.00,98.49
2538.00,98.48
2537.00,98.47
2536.00,98.48
2535.00,98.50
2534.00,98.51
2533.00,98.52
2532.00,98.52
2531.00,98.51
2530.00,98.50
2529.00,98.50
2528.00,98.49
2527.00,98.48
2526.00,98.47
2525.00,98.45
2524.00,98.45
2523.00,98.46
2522.00,98.48
2521.00,98.49
2520.00,98.50
2519.00,98.50
2518.00,98.51
2517.00,98.51
2516.00,98.51
2515.00,98.50
2514.00,98.50
2513.00,98.50
2512.00,98.49
2511.00,98.48
2510.00,98.46
2509.00,98.46
2508.00,98.48
2507.00,98.51
2506.00,98.55
2505.00,98.58
2504.00,98.60
2503.00,98.61
2502.00,98.59
2501.00,98.54
2500.00,98.50
2499.00,98.47
2498.00,98.47
2497.00,98.48
2496.00,98.50
2495.00,98.53
2494.00,98.55
2493.00,98.56
2492.00,98.56
2491.00,98.56
2490.00,98.55
2489.00,98.55
2488.00,98.54
2487.00,98.54
2486.00,98.53
2485.00,98.53
2484.00,98.53
2483.00,98.56
2482.00,98.59
2481.00,98.61
2480.00,98.61
2479.00,98.59
2478.00,98.57
2477.00,98.56
2476.00,98.56
2475.00,98.57
2474.00,98.58
2473.00,98.58
2472.00,98.56
2471.00,98.53
2470.00,98.51
2469.00,98.50
2468.00,98.52
2467.00,98.54
2466.00,98.55
2465.00,98.54
2464.00,98.54
2463.00,98.55
2462.00,98.57
2461.00,98.58
2460.00,98.59
2459.00,98.59
2458.00,98.60
2457.00,98.59
2456.00,98.59
2455.00,98.58
2454.00,98.58
2453.00,98.59
2452.00,98.59
2451.00,98.59
2450.00,98.58
2449.00,98.57
2448.00,98.56
2447.00,98.55
2446.00,98.55
2445.00,98.54
2444.00,98.54
2443.00,98.56
2442.00,98.59
2441.00,98.61
2440.00,98.62
2439.00,98.63
2438.00,98.62
2437.00,98.61
2436.00,98.59
2435.00,98.56
2434.00,98.55
2433.00,98.57
2432.00,98.61
2431.00,98.64
2430.00,98.64
2429.00,98.63
2428.00,98.61
2427.00,98.59
2426.00,98.59
2425.00,98.59
2424.00,98.60
2423.00,98.61
2422.00,98.63
2421.00,98.64
2420.00,98.64
2419.00,98.64
2418.00,98.64
2417.00,98.65
2416.00,98.66
2415.00,98.67
2414.00,98.67
2413.00,98.67
2412.00,98.68
2411.00,98.68
2410.00,98.68
2409.00,98.70
2408.00,98.71
2407.00,98.73
2406.00,98.73
2405.00,98.73
2404.00,98.74
2403.00,98.75
2402.00,98.75
2401.00,98.75
2400.00,98.75
2399.00,98.75
2398.00,98.76
2397.00,98.77
2396.00,98.78
2395.00,98.78
2394.00,98.78
2393.00,98.78
2392.00,98.78
2391.00,98.79
2390.00,98.80
2389.00,98.81
2388.00,98.82
2387.00,98.82
2386.00,98.84
2385.00,98.86
2384.00,98.89
2383.00,98.92
2382.00,98.95
2381.00,98.99
2380.00,99.03
2379.00,99.09
2378.00,99.13
2377.00,99.16
2376.00,99.16
2375.00,99.14
2374.00,99.12
2373.00,99.08
2372.00,99.05
2371.00,99.03
2370.00,99.03
2369.00,99.06
2368.00,99.11
2367.00,99.14
2366.00,99.14
2365.00,99.14
2364.00,99.14
2363.00,99.14
2362.00,99.13
2361.00,99.11
2360.00,99.07
2359.00,99.05
2358.00,99.07
2357.00,99.10
2356.00,99.15
2355.00,99.17
2354.00,99.18
2353.00,99.16
2352.00,99.15
2351.00,99.15
2350.00,99.17
2349.00,99.21
2348.00,99.25
2347.00,99.28
2346.00,99.28
2345.00,99.26
2344.00,99.26
2343.00,99.25
2342.00,99.23
2341.00,99.19
2340.00,99.16
2339.00,99.15
2338.00,99.16
2337.00,99.15
2336.00,99.12
2335.00,99.09
2334.00,99.07
2333.00,99.06
2332.00,99.07
2331.00,99.10
2330.00,99.12
2329.00,99.10
2328.00,99.03
2327.00,98.95
2326.00,98.90
2325.00,98.88
2324.00,98.87
2323.00,98.86
2322.00,98.84
2321.00,98.83
2320.00,98.84
2319.00,98.87
2318.00,98.89
2317.00,98.91
2316.00,98.92
2315.00,98.91
2314.00,98.90
2313.00,98.88
2312.00,98.88
2311.00,98.88
2310.00,98.88
2309.00,98.87
2308.00,98.83
2307.00,98.79
2306.00,98.75
2305.00,98.72
2304.00,98.71
2303.00,98.72
2302.00,98.72
2301.00,98.72
2300.00,98.71
2299.00,98.69
2298.00,98.66
2297.00,98.63
2296.00,98.61
2295.00,98.62
2294.00,98.62
2293.00,98.62
2292.00,98.61
2291.00,98.59
2290.00,98.56
2289.00,98.51
2288.00,98.46
2287.00,98.42
2286.00,98.40
2285.00,98.40
2284.00,98.40
2283.00,98.40
2282.00,98.40
2281.00,98.41
2280.00,98.42
2279.00,98.43
2278.00,98.45
2277.00,98.45
2276.00,98.44
2275.00,98.42
2274.00,98.39
2273.00,98.36
2272.00,98.35
2271.00,98.36
2270.00,98.37
2269.00,98.37
2268.00,98.35
2267.00,98.30
2266.00,98.25
2265.00,98.21
2264.00,98.20
2263.00,98.22
2262.00,98.26
2261.00,98.29
2260.00,98.32
2259.00,98.33
2258.00,98.32
2257.00,98.30
2256.00,98.28
2255.00,98.27
2254.00,98.27
2253.00,98.26
2252.00,98.25
2251.00,98.24
2250.00,98.23
2249.00,98.24
2248.00,98.24
2247.00,98.24
2246.00,98.23
2245.00,98.19
2244.00,98.15
2243.00,98.12
2242.00,98.12
2241.00,98.13
2240.00,98.13
2239.00,98.12
2238.00,98.12
2237.00,98.14
2236.00,98.18
2235.00,98.20
2234.00,98.19
2233.00,98.17
2232.00,98.16
2231.00,98.17
2230.00,98.16
2229.00,98.16
2228.00,98.14
2227.00,98.12
2226.00,98.09
2225.00,98.04
2224.00,98.00
2223.00,97.98
2222.00,97.99
2221.00,98.01
2220.00,98.02
2219.00,98.02
2218.00,98.01
2217.00,97.99
2216.00,97.97
2215.00,97.99
2214.00,98.03
2213.00,98.06
2212.00,98.05
2211.00,98.01
2210.00,97.96
2209.00,97.94
2208.00,97.94
2207.00,97.95
2206.00,97.96
2205.00,97.96
2204.00,97.96
2203.00,97.95
2202.00,97.93
2201.00,97.88
2200.00,97.83
2199.00,97.78
2198.00,97.73
2197.00,97.70
2196.00,97.69
2195.00,97.71
2194.00,97.73
2193.00,97.75
2192.00,97.75
2191.00,97.76
2190.00,97.76
2189.00,97.75
2188.00,97.70
2187.00,97.63
2186.00,97.57
2185.00,97.55
2184.00,97.54
2183.00,97.55
2182.00,97.56
2181.00,97.57
2180.00,97.57
2179.00,97.55
2178.00,97.53
2177.00,97.53
2176.00,97.56
2175.00,97.62
2174.00,97.69
2173.00,97.73
2172.00,97.72
2171.00,97.69
2170.00,97.63
2169.00,97.58
2168.00,97.55
2167.00,97.53
2166.00,97.52
2165.00,97.50
2164.00,97.46
2163.00,97.41
2162.00,97.40
2161.00,97.43
2160.00,97.52
2159.00,97.65
2158.00,97.78
2157.00,97.87
2156.00,97.90
2155.00,97.89
2154.00,97.85
2153.00,97.82
2152.00,97.81
2151.00,97.80
2150.00,97.80
2149.00,97.81
2148.00,97.83
2147.00,97.87
2146.00,97.92
2145.00,97.95
2144.00,97.95
2143.00,97.92
2142.00,97.89
2141.00,97.88
2140.00,97.89
2139.00,97.91
2138.00,97.93
2137.00,97.96
2136.00,98.03
2135.00,98.14
2134.00,98.25
2133.00,98.32
2132.00,98.34
2131.00,98.32
2130.00,98.29
2129.00,98.27
2128.00,98.26
2127.00,98.28
2126.00,98.29
2125.00,98.29
2124.00,98.29
2123.00,98.29
2122.00,98.28
2121.00,98.29
2120.00,98.30
2119.00,98.31
2118.00,98.32
2117.00,98.29
2116.00,98.24
2115.00,98.20
2114.00,98.16
2113.00,98.14
2112.00,98.14
2111.00,98.16
2110.00,98.17
2109.00,98.18
2108.00,98.17
2107.00,98.16
2106.00,98.15
2105.00,98.14
2104.00,98.14
2103.00,98.14
2102.00,98.14
2101.00,98.13
2100.00,98.12
2099.00,98.12
2098.00,98.13
2097.00,98.15
2096.00,98.17
2095.00,98.18
2094.00,98.20
2093.00,98.21
2092.00,98.21
2091.00,98.20
2090.00,98.19
2089.00,98.21
2088.00,98.23
2087.00,98.22
2086.00,98.19
2085.00,98.17
2084.00,98.16
2083.00,98.15
2082.00,98.15
2081.00,98.14
2080.00,98.13
2079.00,98.12
2078.00,98.11
2077.00,98.10
2076.00,98.10
2075.00,98.12
2074.00,98.13
2073.00,98.13
2072.00,98.11
2071.00,98.09
2070.00,98.08
2069.00,98.08
2068.00,98.06
2067.00,98.04
2066.00,98.01
2065.00,97.98
2064.00,97.97
2063.00,97.99
2062.00,98.03
2061.00,98.07
2060.00,98.07
2059.00,98.05
2058.00,98.04
2057.00,98.03
2056.00,98.03
2055.00,98.02
2054.00,97.98
2053.00,97.92
2052.00,97.84
2051.00,97.79
2050.00,97.78
2049.00,97.81
2048.00,97.85
2047.00,97.88
2046.00,97.90
2045.00,97.89
2044.00,97.87
2043.00,97.84
2042.00,97.80
2041.00,97.73
2040.00,97.66
2039.00,97.60
2038.00,97.59
2037.00,97.61
2036.00,97.64
2035.00,97.66
2034.00,97.64
2033.00,97.60
2032.00,97.58
2031.00,97.58
2030.00,97.60
2029.00,97.62
2028.00,97.65
2027.00,97.69
2026.00,97.74
2025.00,97.76
2024.00,97.75
2023.00,97.72
2022.00,97.69
2021.00,97.68
2020.00,97.68
2019.00,97.71
2018.00,97.75
2017.00,97.78
2016.00,97.75
2015.00,97.70
2014.00,97.68
2013.00,97.72
2012.00,97.78
2011.00,97.81
2010.00,97.81
2009.00,97.79
2008.00,97.80
2007.00,97.82
2006.00,97.84
2005.00,97.85
2004.00,97.85
2003.00,97.85
2002.00,97.85
2001.00,97.86
2000.00,97.86
1999.00,97.84
1998.00,97.83
1997.00,97.81
1996.00,97.80
1995.00,97.79
1994.00,97.79
1993.00,97.83
1992.00,97.89
1991.00,97.96
1990.00,98.02
1989.00,98.02
1988.00,97.97
1987.00,97.89
1986.00,97.84
1985.00,97.82
1984.00,97.84
1983.00,97.84
1982.00,97.81
1981.00,97.76
1980.00,97.72
1979.00,97.73
1978.00,97.79
1977.00,97.86
1976.00,97.91
1975.00,97.92
1974.00,97.89
1973.00,97.85
1972.00,97.83
1971.00,97.82
1970.00,97.84
1969.00,97.86
1968.00,97.89
1967.00,97.91
1966.00,97.92
1965.00,97.91
1964.00,97.92
1963.00,97.96
1962.00,98.02
1961.00,98.10
1960.00,98.17
1959.00,98.20
1958.00,98.19
1957.00,98.15
1956.00,98.12
1955.00,98.12
1954.00,98.15
1953.00,98.18
1952.00,98.21
1951.00,98.22
1950.00,98.24
1949.00,98.25
1948.00,98.26
1947.00,98.26
1946.00,98.26
1945.00,98.27
1944.00,98.28
1943.00,98.31
1942.00,98.33
1941.00,98.34
1940.00,98.35
1939.00,98.36
1938.00,98.38
1937.00,98.38
1936.00,98.37
1935.00,98.35
1934.00,98.34
1933.00,98.34
1932.00,98.33
1931.00,98.34
1930.00,98.35
1929.00,98.37
1928.00,98.38
1927.00,98.39
1926.00,98.40
1925.00,98.43
1924.00,98.44
1923.00,98.44
1922.00,98.42
1921.00,98.41
1920.00,98.44
1919.00,98.47
1918.00,98.49
1917.00,98.48
1916.00,98.47
1915.00,98.49
1914.00,98.52
1913.00,98.53
1912.00,98.52
1911.00,98.50
1910.00,98.48
1909.00,98.50
1908.00,98.52
1907.00,98.54
1906.00,98.54
1905.00,98.54
1904.00,98.55
1903.00,98.57
1902.00,98.58
1901.00,98.57
1900.00,98.55
1899.00,98.56
1898.00,98.57
1897.00,98.58
1896.00,98.59
1895.00,98.59
1894.00,98.59
1893.00,98.59
1892.00,98.58
1891.00,98.57
1890.00,98.56
1889.00,98.55
1888.00,98.54
1887.00,98.54
1886.00,98.56
1885.00,98.58
1884.00,98.60
1883.00,98.62
1882.00,98.64
1881.00,98.66
1880.00,98.67
1879.00,98.65
1878.00,98.63
1877.00,98.62
1876.00,98.61
1875.00,98.62
1874.00,98.63
1873.00,98.65
1872.00,98.66
1871.00,98.67
1870.00,98.66
1869.00,98.65
1868.00,98.64
1867.00,98.64
1866.00,98.65
1865.00,98.65
1864.00,98.65
1863.00,98.65
1862.00,98.65
1861.00,98.65
1860.00,98.64
1859.00,98.64
1858.00,98.65
1857.00,98.67
1856.00,98.70
1855.00,98.71
1854.00,98.72
1853.00,98.71
1852.00,98.69
1851.00,98.67
1850.00,98.66
1849.00,98.66
1848.00,98.68
1847.00,98.71
1846.00,98.73
1845.00,98.73
1844.00,98.71
1843.00,98.69
1842.00,98.70
1841.00,98.71
1840.00,98.73
1839.00,98.74
1838.00,98.75
1837.00,98.75
1836.00,98.74
1835.00,98.74
1834.00,98.74
1833.00,98.75
1832.00,98.76
1831.00,98.77
1830.00,98.77
1829.00,98.76
1828.00,98.73
1827.00,98.72
1826.00,98.73
1825.00,98.76
1824.00,98.78
1823.00,98.78
1822.00,98.78
1821.00,98.77
1820.00,98.76
1819.00,98.77
1818.00,98.78
1817.00,98.79
1816.00,98.79
1815.00,98.80
1814.00,98.81
1813.00,98.82
1812.00,98.81
1811.00,98.80
1810.00,98.77
1809.00,98.75
1808.00,98.74
1807.00,98.74
1806.00,98.76
1805.00,98.78
1804.00,98.79
1803.00,98.81
1802.00,98.81
1801.00,98.82
1800.00,98.81
1799.00,98.81
1798.00,98.79
1797.00,98.78
1796.00,98.78
1795.00,98.79
1794.00,98.80
1793.00,98.81
1792.00,98.82
1791.00,98.82
1790.00,98.82
1789.00,98.82
1788.00,98.83
1787.00,98.85
1786.00,98.86
1785.00,98.85
1784.00,98.83
1783.00,98.82
1782.00,98.81
1781.00,98.80
1780.00,98.80
1779.00,98.81
1778.00,98.82
1777.00,98.83
1776.00,98.82
1775.00,98.79
1774.00,98.76
1773.00,98.75
1772.00,98.75
1771.00,98.75
1770.00,98.75
1769.00,98.75
1768.00,98.76
1767.00,98.77
1766.00,98.77
1765.00,98.77
1764.00,98.76
1763.00,98.75
1762.00,98.72
1761.00,98.70
1760.00,98.70
1759.00,98.71
1758.00,98.74
1757.00,98.75
1756.00,98.75
1755.00,98.74
1754.00,98.74
1753.00,98.74
1752.00,98.74
1751.00,98.74
1750.00,98.73
1749.00,98.73
1748.00,98.71
1747.00,98.70
1746.00,98.69
1745.00,98.68
1744.00,98.67
1743.00,98.67
1742.00,98.68
1741.00,98.68
1740.00,98.68
1739.00,98.68
1738.00,98.67
1737.00,98.66
1736.00,98.66
1735.00,98.67
1734.00,98.67
1733.00,98.66
1732.00,98.65
1731.00,98.65
1730.00,98.65
1729.00,98.66
1728.00,98.67
1727.00,98.67
1726.00,98.67
1725.00,98.66
1724.00,98.66
1723.00,98.66
1722.00,98.66
1721.00,98.65
1720.00,98.63
1719.00,98.60
1718.00,98.59
1717.00,98.60
1716.00,98.62
1715.00,98.63
1714.00,98.62
1713.00,98.61
1712.00,98.58
1711.00,98.56
1710.00,98.54
1709.00,98.53
1708.00,98.53
1707.00,98.53
1706.00,98.55
1705.00,98.56
1704.00,98.57
1703.00,98.56
1702.00,98.55
1701.00,98.52
1700.00,98.49
1699.00,98.47
1698.00,98.47
1697.00,98.47
1696.00,98.47
1695.00,98.46
1694.00,98.45
1693.00,98.44
1692.00,98.42
1691.00,98.39
1690.00,98.37
1689.00,98.34
1688.00,98.31
1687.00,98.29
1686.00,98.27
1685.00,98.26
1684.00,98.23
1683.00,98.19
1682.00,98.15
1681.00,98.12
1680.00,98.10
1679.00,98.09
1678.00,98.09
1677.00,98.09
1676.00,98.07
1675.00,98.05
1674.00,98.03
1673.00,98.01
1672.00,97.99
1671.00,97.96
1670.00,97.93
1669.00,97.89
1668.00,97.86
1667.00,97.84
1666.00,97.82
1665.00,97.79
1664.00,97.74
1663.00,97.70
1662.00,97.67
1661.00,97.64
1660.00,97.62
1659.00,97.59
1658.00,97.57
1657.00,97.56
1656.00,97.55
1655.00,97.56
1654.00,97.56
1653.00,97.54
1652.00,97.49
1651.00,97.46
1650.00,97.44
1649.00,97.43
1648.00,97.42
1647.00,97.40
1646.00,97.39
1645.00,97.38
1644.00,97.38
1643.00,97.37
1642.00,97.37
1641.00,97.36
1640.00,97.37
1639.00,97.37
1638.00,97.37
1637.00,97.36
1636.00,97.36
1635.00,97.37
1634.00,97.38
1633.00,97.39
1632.00,97.39
1631.00,97.39
1630.00,97.41
1629.00,97.44
1628.00,97.47
1627.00,97.47
1626.00,97.45
1625.00,97.43
1624.00,97.44
1623.00,97.48
1622.00,97.51
1621.00,97.53
1620.00,97.54
1619.00,97.55
1618.00,97.57
1617.00,97.61
1616.00,97.65
1615.00,97.67
1614.00,97.69
1613.00,97.71
1612.00,97.72
1611.00,97.74
1610.00,97.77
1609.00,97.78
1608.00,97.80
1607.00,97.81
1606.00,97.82
1605.00,97.83
1604.00,97.84
1603.00,97.85
1602.00,97.86
1601.00,97.87
1600.00,97.87
1599.00,97.88
1598.00,97.90
1597.00,97.91
1596.00,97.92
1595.00,97.94
1594.00,97.96
1593.00,97.98
1592.00,98.00
1591.00,98.01
1590.00,98.03
1589.00,98.04
1588.00,98.05
1587.00,98.07
1586.00,98.09
1585.00,98.11
1584.00,98.13
1583.00,98.13
1582.00,98.13
1581.00,98.14
1580.00,98.15
1579.00,98.15
1578.00,98.17
1577.00,98.19
1576.00,98.22
1575.00,98.23
1574.00,98.22
1573.00,98.22
1572.00,98.23
1571.00,98.24
1570.00,98.26
1569.00,98.28
1568.00,98.29
1567.00,98.29
1566.00,98.30
1565.00,98.31
1564.00,98.31
1563.00,98.30
1562.00,98.30
1561.00,98.29
1560.00,98.30
1559.00,98.34
1558.00,98.38
1557.00,98.39
1556.00,98.40
1555.00,98.41
1554.00,98.42
1553.00,98.43
1552.00,98.43
1551.00,98.41
1550.00,98.40
1549.00,98.39
1548.00,98.39
1547.00,98.39
1546.00,98.40
1545.00,98.40
1544.00,98.40
1543.00,98.40
1542.00,98.40
1541.00,98.39
1540.00,98.39
1539.00,98.39
1538.00,98.39
1537.00,98.40
1536.00,98.42
1535.00,98.44
1534.00,98.45
1533.00,98.45
1532.00,98.45
1531.00,98.46
1530.00,98.47
1529.00,98.48
1528.00,98.48
1527.00,98.47
1526.00,98.45
1525.00,98.43
1524.00,98.42
1523.00,98.43
1522.00,98.44
1521.00,98.45
1520.00,98.45
1519.00,98.46
1518.00,98.47
1517.00,98.49
1516.00,98.51
1515.00,98.52
1514.00,98.53
1513.00,98.52
1512.00,98.50
1511.00,98.48
1510.00,98.46
1509.00,98.44
1508.00,98.43
1507.00,98.43
1506.00,98.42
1505.00,98.40
1504.00,98.37
1503.00,98.35
1502.00,98.34
1501.00,98.33
1500.00,98.31
1499.00,98.30
1498.00,98.28
1497.00,98.25
1496.00,98.23
1495.00,98.21
1494.00,98.20
1493.00,98.19
1492.00,98.17
1491.00,98.14
1490.00,98.10
1489.00,98.05
1488.00,98.01
1487.00,97.98
1486.00,97.94
1485.00,97.90
1484.00,97.86
1483.00,97.82
1482.00,97.78
1481.00,97.73
1480.00,97.68
1479.00,97.63
1478.00,97.59
1477.00,97.54
1476.00,97.50
1475.00,97.46
1474.00,97.42
1473.00,97.36
1472.00,97.28
1471.00,97.19
1470.00,97.12
1469.00,97.07
1468.00,97.03
1467.00,96.99
1466.00,96.95
1465.00,96.90
1464.00,96.87
1463.00,96.84
1462.00,96.82
1461.00,96.79
1460.00,96.75
1459.00,96.72
1458.00,96.69
1457.00,96.66
1456.00,96.62
1455.00,96.60
1454.00,96.57
1453.00,96.54
1452.00,96.51
1451.00,96.48
1450.00,96.45
1449.00,96.42
1448.00,96.38
1447.00,96.33
1446.00,96.28
1445.00,96.24
1444.00,96.21
1443.00,96.18
1442.00,96.16
1441.00,96.13
1440.00,96.11
1439.00,96.09
1438.00,96.08
1437.00,96.07
1436.00,96.04
1435.00,96.00
1434.00,95.97
1433.00,95.95
1432.00,95.94
1431.00,95.93
1430.00,95.93
1429.00,95.92
1428.00,95.92
1427.00,95.90
1426.00,95.87
1425.00,95.85
1424.00,95.84
1423.00,95.83
1422.00,95.83
1421.00,95.82
1420.00,95.81
1419.00,95.80
1418.00,95.79
1417.00,95.78
1416.00,95.78
1415.00,95.79
1414.00,95.81
1413.00,95.82
1412.00,95.84
1411.00,95.85
1410.00,95.87
1409.00,95.89
1408.00,95.89
1407.00,95.89
1406.00,95.88
1405.00,95.87
1404.00,95.88
1403.00,95.90
1402.00,95.92
1401.00,95.93
1400.00,95.92
1399.00,95.90
1398.00,95.89
1397.00,95.88
1396.00,95.88
1395.00,95.87
1394.00,95.85
1393.00,95.82
1392.00,95.78
1391.00,95.74
1390.00,95.70
1389.00,95.67
1388.00,95.64
1387.00,95.59
1386.00,95.53
1385.00,95.45
1384.00,95.36
1383.00,95.27
1382.00,95.16
1381.00,95.05
1380.00,94.94
1379.00,94.83
1378.00,94.72
1377.00,94.61
1376.00,94.52
1375.00,94.44
1374.00,94.39
1373.00,94.35
1372.00,94.31
1371.00,94.28
1370.00,94.24
1369.00,94.21
1368.00,94.19
1367.00,94.17
1366.00,94.16
1365.00,94.16
1364.00,94.18
1363.00,94.21
1362.00,94.26
1361.00,94.31
1360.00,94.36
1359.00,94.42
1358.00,94.49
1357.00,94.55
1356.00,94.62
1355.00,94.67
1354.00,94.72
1353.00,94.76
1352.00,94.79
1351.00,94.82
1350.00,94.84
1349.00,94.85
1348.00,94.85
1347.00,94.85
1346.00,94.85
1345.00,94.85
1344.00,94.86
1343.00,94.86
1342.00,94.85
1341.00,94.82
1340.00,94.78
1339.00,94.75
1338.00,94.72
1337.00,94.69
1336.00,94.67
1335.00,94.66
1334.00,94.67
1333.00,94.68
1332.00,94.69
1331.00,94.69
1330.00,94.68
1329.00,94.68
1328.00,94.69
1327.00,94.70
1326.00,94.71
1325.00,94.72
1324.00,94.72
1323.00,94.70
1322.00,94.66
1321.00,94.61
1320.00,94.54
1319.00,94.47
1318.00,94.40
1317.00,94.36
1316.00,94.32
1315.00,94.30
1314.00,94.29
1313.00,94.30
1312.00,94.32
1311.00,94.34
1310.00,94.38
1309.00,94.43
1308.00,94.50
1307.00,94.57
1306.00,94.64
1305.00,94.71
1304.00,94.78
1303.00,94.85
1302.00,94.92
1301.00,94.99
1300.00,95.06
1299.00,95.12
1298.00,95.18
1297.00,95.24
1296.00,95.29
1295.00,95.35
1294.00,95.42
1293.00,95.50
1292.00,95.58
1291.00,95.65
1290.00,95.71
1289.00,95.76
1288.00,95.79
1287.00,95.81
1286.00,95.84
1285.00,95.86
1284.00,95.87
1283.00,95.86
1282.00,95.84
1281.00,95.81
1280.00,95.77
1279.00,95.75
1278.00,95.74
1277.00,95.73
1276.00,95.73
1275.00,95.73
1274.00,95.72
1273.00,95.70
1272.00,95.68
1271.00,95.67
1270.00,95.67
1269.00,95.66
1268.00,95.65
1267.00,95.62
1266.00,95.59
1265.00,95.56
1264.00,95.54
1263.00,95.53
1262.00,95.55
1261.00,95.56
1260.00,95.58
1259.00,95.60
1258.00,95.63
1257.00,95.67
1256.00,95.74
1255.00,95.81
1254.00,95.87
1253.00,95.92
1252.00,95.95
1251.00,95.96
1250.00,95.98
1249.00,96.00
1248.00,96.04
1247.00,96.07
1246.00,96.10
1245.00,96.12
1244.00,96.13
1243.00,96.13
1242.00,96.12
1241.00,96.11
1240.00,96.11
1239.00,96.11
1238.00,96.11
1237.00,96.11
1236.00,96.10
1235.00,96.10
1234.00,96.10
1233.00,96.10
1232.00,96.10
1231.00,96.11
1230.00,96.12
1229.00,96.13
1228.00,96.16
1227.00,96.20
1226.00,96.25
1225.00,96.29
1224.00,96.34
1223.00,96.41
1222.00,96.48
1221.00,96.57
1220.00,96.66
1219.00,96.74
1218.00,96.80
1217.00,96.85
1216.00,96.88
1215.00,96.90
1214.00,96.92
1213.00,96.93
1212.00,96.93
1211.00,96.90
1210.00,96.86
1209.00,96.81
1208.00,96.74
1207.00,96.67
1206.00,96.59
1205.00,96.52
1204.00,96.46
1203.00,96.41
1202.00,96.36
1201.00,96.32
1200.00,96.29
1199.00,96.28
1198.00,96.28
1197.00,96.30
1196.00,96.34
1195.00,96.41
1194.00,96.51
1193.00,96.62
1192.00,96.73
1191.00,96.83
1190.00,96.91
1189.00,96.98
1188.00,97.03
1187.00,97.07
1186.00,97.10
1185.00,97.12
1184.00,97.12
1183.00,97.09
1182.00,97.04
1181.00,96.98
1180.00,96.91
1179.00,96.84
1178.00,96.72
1177.00,96.58
1176.00,96.42
1175.00,96.26
1174.00,96.10
1173.00,95.94
1172.00,95.77
1171.00,95.59
1170.00,95.39
1169.00,95.15
1168.00,94.87
1167.00,94.57
1166.00,94.27
1165.00,93.97
1164.00,93.68
1163.00,93.39
1162.00,93.11
1161.00,92.86
1160.00,92.66
1159.00,92.52
1158.00,92.44
1157.00,92.40
1156.00,92.39
1155.00,92.41
1154.00,92.46
1153.00,92.52
1152.00,92.60
1151.00,92.70
1150.00,92.83
1149.00,92.99
1148.00,93.14
1147.00,93.28
1146.00,93.41
1145.00,93.52
1144.00,93.61
1143.00,93.68
1142.00,93.73
1141.00,93.76
1140.00,93.76
1139.00,93.74
1138.00,93.72
1137.00,93.68
1136.00,93.61
1135.00,93.50
1134.00,93.36
1133.00,93.19
1132.00,93.03
1131.00,92.89
1130.00,92.76
1129.00,92.62
1128.00,92.43
1127.00,92.22
1126.00,92.01
1125.00,91.79
1124.00,91.58
1123.00,91.35
1122.00,91.13
1121.00,90.91
1120.00,90.70
1119.00,90.51
1118.00,90.34
1117.00,90.20
1116.00,90.06
1115.00,89.93
1114.00,89.80
1113.00,89.67
1112.00,89.54
1111.00,89.42
1110.00,89.30
1109.00,89.20
1108.00,89.11
1107.00,89.04
1106.00,88.97
1105.00,88.90
1104.00,88.80
1103.00,88.68
1102.00,88.55
1101.00,88.40
1100.00,88.27
1099.00,88.14
1098.00,87.99
1097.00,87.81
1096.00,87.64
1095.00,87.49
1094.00,87.38
1093.00,87.28
1092.00,87.16
1091.00,87.04
1090.00,86.92
1089.00,86.81
1088.00,86.70
1087.00,86.58
1086.00,86.47
1085.00,86.35
1084.00,86.23
1083.00,86.10
1082.00,85.96
1081.00,85.79
1080.00,85.60
1079.00,85.38
1078.00,85.17
1077.00,84.96
1076.00,84.76
1075.00,84.58
1074.00,84.41
1073.00,84.22
1072.00,84.02
1071.00,83.82
1070.00,83.64
1069.00,83.47
1068.00,83.30
1067.00,83.12
1066.00,82.92
1065.00,82.69
1064.00,82.45
1063.00,82.23
1062.00,82.04
1061.00,81.87
1060.00,81.71
1059.00,81.59
1058.00,81.49
1057.00,81.41
1056.00,81.32
1055.00,81.23
1054.00,81.16
1053.00,81.11
1052.00,81.09
1051.00,81.07
1050.00,81.04
1049.00,81.00
1048.00,80.95
1047.00,80.90
1046.00,80.83
1045.00,80.77
1044.00,80.73
1043.00,80.72
1042.00,80.72
1041.00,80.68
1040.00,80.62
1039.00,80.54
1038.00,80.47
1037.00,80.41
1036.00,80.34
1035.00,80.24
1034.00,80.11
1033.00,79.95
1032.00,79.78
1031.00,79.61
1030.00,79.45
1029.00,79.28
1028.00,79.10
1027.00,78.94
1026.00,78.79
1025.00,78.64
1024.00,78.49
1023.00,78.36
1022.00,78.27
1021.00,78.19
1020.00,78.14
1019.00,78.08
1018.00,78.04
1017.00,78.00
1016.00,78.00
1015.00,78.07
1014.00,78.18
1013.00,78.31
1012.00,78.45
1011.00,78.60
1010.00,78.75
1009.00,78.91
1008.00,79.08
1007.00,79.23
1006.00,79.36
1005.00,79.43
1004.00,79.48
1003.00,79.51
1002.00,79.51
1001.00,79.47
1000.00,79.39
999.00,79.30
998.00,79.21
997.00,79.12
996.00,79.04
995.00,78.98
994.00,78.95
993.00,78.96
992.00,79.01
991.00,79.11
990.00,79.24
989.00,79.42
988.00,79.63
987.00,79.89
986.00,80.19
985.00,80.51
984.00,80.86
983.00,81.22
982.00,81.60
981.00,81.98
980.00,82.34
979.00,82.69
978.00,83.03
977.00,83.36
976.00,83.67
975.00,83.95
974.00,84.20
973.00,84.41
972.00,84.59
971.00,84.75
970.00,84.91
969.00,85.07
968.00,85.22
967.00,85.37
966.00,85.50
965.00,85.62
964.00,85.75
963.00,85.89
962.00,86.04
961.00,86.19
960.00,86.34
959.00,86.51
958.00,86.68
957.00,86.85
956.00,87.02
955.00,87.20
954.00,87.37
953.00,87.54
952.00,87.72
951.00,87.90
950.00,88.08
949.00,88.25
948.00,88.39
947.00,88.53
946.00,88.67
945.00,88.82
944.00,88.97
943.00,89.10
942.00,89.21
941.00,89.28
940.00,89.34
939.00,89.40
938.00,89.50
937.00,89.60
936.00,89.69
935.00,89.76
934.00,89.84
933.00,89.93
932.00,90.03
931.00,90.13
930.00,90.22
929.00,90.29
928.00,90.35
927.00,90.40
926.00,90.45
925.00,90.50
924.00,90.56
923.00,90.63
922.00,90.71
921.00,90.78
920.00,90.83
919.00,90.89
918.00,90.97
917.00,91.04
916.00,91.11
915.00,91.14
914.00,91.13
913.00,91.09
912.00,91.05
911.00,91.00
910.00,90.94
909.00,90.85
908.00,90.73
907.00,90.61
906.00,90.50
905.00,90.39
904.00,90.28
903.00,90.16
902.00,90.03
901.00,89.90
900.00,89.75
899.00,89.61
898.00,89.47
897.00,89.33
896.00,89.20
895.00,89.09
894.00,89.05
893.00,89.07
892.00,89.16
891.00,89.29
890.00,89.43
889.00,89.58
888.00,89.74
887.00,89.92
886.00,90.09
885.00,90.24
884.00,90.38
883.00,90.53
882.00,90.69
881.00,90.83
880.00,90.94
879.00,91.04
878.00,91.15
877.00,91.26
876.00,91.34
875.00,91.40
874.00,91.46
873.00,91.57
872.00,91.71
871.00,91.86
870.00,91.98
869.00,92.03
868.00,92.04
867.00,92.06
866.00,92.10
865.00,92.16
864.00,92.22
863.00,92.28
862.00,92.34
861.00,92.41
860.00,92.45
859.00,92.46
858.00,92.45
857.00,92.43
856.00,92.42
855.00,92.44
854.00,92.46
853.00,92.50
852.00,92.55
851.00,92.60
850.00,92.65
849.00,92.68
848.00,92.68
847.00,92.68
846.00,92.68
845.00,92.69
844.00,92.67
843.00,92.63
842.00,92.58
841.00,92.55
840.00,92.55
839.00,92.58
838.00,92.63
837.00,92.68
836.00,92.71
835.00,92.72
834.00,92.73
833.00,92.74
832.00,92.74
831.00,92.73
830.00,92.74
829.00,92.75
828.00,92.74
827.00,92.71
826.00,92.66
825.00,92.62
824.00,92.61
823.00,92.61
822.00,92.62
821.00,92.62
820.00,92.59
819.00,92.56
818.00,92.51
817.00,92.45
816.00,92.39
815.00,92.35
814.00,92.34
813.00,92.34
812.00,92.34
811.00,92.33
810.00,92.33
809.00,92.35
808.00,92.37
807.00,92.37
806.00,92.38
805.00,92.38
804.00,92.37
803.00,92.35
802.00,92.32
801.00,92.30
800.00,92.29
799.00,92.29
798.00,92.29
797.00,92.28
796.00,92.27
795.00,92.25
794.00,92.24
793.00,92.24
792.00,92.26
791.00,92.30
790.00,92.31
789.00,92.26
788.00,92.17
787.00,92.07
786.00,92.02
785.00,92.00
784.00,92.00
783.00,92.03
782.00,92.06
781.00,92.07
780.00,92.07
779.00,92.05
778.00,92.05
777.00,92.06
776.00,92.05
775.00,92.03
774.00,92.00
773.00,91.96
772.00,91.91
771.00,91.87
770.00,91.83
769.00,91.81
768.00,91.79
767.00,91.77
766.00,91.74
765.00,91.70
764.00,91.66
763.00,91.62
762.00,91.60
761.00,91.60
760.00,91.62
759.00,91.63
758.00,91.63
757.00,91.60
756.00,91.55
755.00,91.48
754.00,91.43
753.00,91.40
752.00,91.41
751.00,91.43
750.00,91.43
749.00,91.41
748.00,91.37
747.00,91.32
746.00,91.24
745.00,91.15
744.00,91.07
743.00,91.02
742.00,91.00
741.00,90.97
740.00,90.93
739.00,90.89
738.00,90.85
737.00,90.80
736.00,90.75
735.00,90.71
734.00,90.69
733.00,90.68
732.00,90.66
731.00,90.63
730.00,90.59
729.00,90.56
728.00,90.52
727.00,90.48
726.00,90.45
725.00,90.39
724.00,90.31
723.00,90.22
722.00,90.17
721.00,90.15
720.00,90.14
719.00,90.13
718.00,90.09
717.00,90.03
716.00,89.96
715.00,89.90
714.00,89.88
713.00,89.89
712.00,89.91
711.00,89.90
710.00,89.86
709.00,89.79
708.00,89.72
707.00,89.68
706.00,89.68
705.00,89.71
704.00,89.72
703.00,89.72
702.00,89.70
701.00,89.67
700.00,89.64
699.00,89.62
698.00,89.60
697.00,89.59
696.00,89.57
695.00,89.55
694.00,89.55
693.00,89.55
692.00,89.56
691.00,89.57
690.00,89.57
689.00,89.55
688.00,89.49
687.00,89.41
686.00,89.34
685.00,89.28
684.00,89.23
683.00,89.17
682.00,89.08
681.00,88.94
680.00,88.77
679.00,88.58
678.00,88.35
677.00,88.05
676.00,87.67
675.00,87.30
674.00,86.98
673.00,86.74
672.00,86.55
671.00,86.39
670.00,86.25
669.00,86.06
668.00,85.79
667.00,85.62
666.00,85.65
665.00,85.71
664.00,85.71
663.00,85.68
662.00,85.68
661.00,85.73
660.00,85.77
659.00,85.78
658.00,85.79
657.00,85.82
656.00,85.85
655.00,85.83
654.00,85.79
653.00,85.77
652.00,85.83
651.00,85.95
650.00,86.07
649.00,86.11
648.00,86.05
647.00,85.92
646.00,85.80
645.00,85.70
644.00,85.61
643.00,85.54
642.00,85.48
641.00,85.45
640.00,85.43
639.00,85.45
638.00,85.53
637.00,85.62
636.00,85.65
635.00,85.61
634.00,85.53
633.00,85.44
632.00,85.34
631.00,85.25
630.00,85.21
629.00,85.25
628.00,85.32
627.00,85.37
626.00,85.37
625.00,85.40
624.00,85.52
623.00,85.67
622.00,85.70
621.00,85.49
620.00,85.10
619.00,84.73
618.00,84.53
617.00,84.46
616.00,84.41
615.00,84.31
614.00,84.13
613.00,83.87
612.00,83.57
611.00,83.32
610.00,83.17
609.00,83.11
608.00,83.11
607.00,83.17
606.00,83.28
605.00,83.39
604.00,83.42
603.00,83.26
602.00,82.91
601.00,82.54
600.00,82.38
599.00,82.51
598.00,82.73
597.00,82.74
596.00,82.58
595.00,82.53
594.00,82.75
593.00,83.06
592.00,83.20
591.00,83.12
590.00,82.91
589.00,82.65
588.00,82.42
587.00,82.34
586.00,82.46
585.00,82.62
584.00,82.60
583.00,82.42
582.00,82.25
581.00,82.22
580.00,82.32
579.00,82.48
578.00,82.55
577.00,82.38
576.00,82.05
575.00,81.92
574.00,82.10
573.00,82.23
572.00,82.06
571.00,81.93
570.00,82.39
569.00,83.46
568.00,84.48
567.00,84.71
566.00,83.99
565.00,82.84
564.00,81.97
563.00,81.76
562.00,81.99
561.00,82.06
560.00,81.77
559.00,81.48
558.00,81.64
557.00,82.18
556.00,82.76
555.00,83.19
554.00,83.49
553.00,83.65
552.00,83.60
551.00,83.40
550.00,83.19
