Created as New Dataset,192 FMC American Viscose (Black)
cm-1,%T
4000.00,100.89
3999.00,100.91
3998.00,100.92
3997.00,100.91
3996.00,100.90
3995.00,100.89
3994.00,100.88
3993.00,100.87
3992.00,100.87
3991.00,100.86
3990.00,100.87
3989.00,100.88
3988.00,100.89
3987.00,100.90
3986.00,100.89
3985.00,100.87
3984.00,100.83
3983.00,100.79
3982.00,100.78
3981.00,100.79
3980.00,100.82
3979.00,100.85
3978.00,100.87
3977.00,100.87
3976.00,100.87
3975.00,100.87
3974.00,100.87
3973.00,100.88
3972.00,100.88
3971.00,100.88
3970.00,100.87
3969.00,100.86
3968.00,100.85
3967.00,100.84
3966.00,100.83
3965.00,100.82
3964.00,100.82
3963.00,100.82
3962.00,100.81
3961.00,100.82
3960.00,100.83
3959.00,100.85
3958.00,100.86
3957.00,100.86
3956.00,100.85
3955.00,100.84
3954.00,100.85
3953.00,100.86
3952.00,100.87
3951.00,100.88
3950.00,100.88
3949.00,100.88
3948.00,100.89
3947.00,100.88
3946.00,100.86
3945.00,100.84
3944.00,100.83
3943.00,100.82
3942.00,100.82
3941.00,100.82
3940.00,100.83
3939.00,100.84
3938.00,100.85
3937.00,100.86
3936.00,100.87
3935.00,100.87
3934.00,100.86
3933.00,100.84
3932.00,100.82
3931.00,100.82
3930.00,100.82
3929.00,100.83
3928.00,100.84
3927.00,100.85
3926.00,100.85
3925.00,100.84
3924.00,100.82
3923.00,100.78
3922.00,100.74
3921.00,100.72
3920.00,100.72
3919.00,100.72
3918.00,100.73
3917.00,100.74
3916.00,100.75
3915.00,100.77
3914.00,100.80
3913.00,100.83
3912.00,100.86
3911.00,100.88
3910.00,100.89
3909.00,100.88
3908.00,100.85
3907.00,100.82
3906.00,100.79
3905.00,100.76
3904.00,100.74
3903.00,100.72
3902.00,100.71
3901.00,100.72
3900.00,100.75
3899.00,100.77
3898.00,100.77
3897.00,100.77
3896.00,100.78
3895.00,100.79
3894.00,100.81
3893.00,100.84
3892.00,100.86
3891.00,100.86
3890.00,100.84
3889.00,100.81
3888.00,100.79
3887.00,100.80
3886.00,100.83
3885.00,100.85
3884.00,100.84
3883.00,100.81
3882.00,100.80
3881.00,100.80
3880.00,100.81
3879.00,100.81
3878.00,100.80
3877.00,100.79
3876.00,100.81
3875.00,100.83
3874.00,100.84
3873.00,100.81
3872.00,100.77
3871.00,100.75
3870.00,100.74
3869.00,100.74
3868.00,100.72
3867.00,100.72
3866.00,100.75
3865.00,100.80
3864.00,100.84
3863.00,100.84
3862.00,100.83
3861.00,100.82
3860.00,100.81
3859.00,100.80
3858.00,100.78
3857.00,100.75
3856.00,100.72
3855.00,100.72
3854.00,100.74
3853.00,100.75
3852.00,100.74
3851.00,100.74
3850.00,100.76
3849.00,100.79
3848.00,100.81
3847.00,100.83
3846.00,100.83
3845.00,100.83
3844.00,100.83
3843.00,100.82
3842.00,100.80
3841.00,100.77
3840.00,100.76
3839.00,100.76
3838.00,100.78
3837.00,100.80
3836.00,100.81
3835.00,100.79
3834.00,100.78
3833.00,100.78
3832.00,100.79
3831.00,100.80
3830.00,100.79
3829.00,100.77
3828.00,100.76
3827.00,100.77
3826.00,100.80
3825.00,100.82
3824.00,100.80
3823.00,100.78
3822.00,100.77
3821.00,100.78
3820.00,100.77
3819.00,100.76
3818.00,100.76
3817.00,100.78
3816.00,100.79
3815.00,100.79
3814.00,100.78
3813.00,100.78
3812.00,100.80
3811.00,100.82
3810.00,100.82
3809.00,100.80
3808.00,100.78
3807.00,100.76
3806.00,100.74
3805.00,100.71
3804.00,100.70
3803.00,100.72
3802.00,100.76
3801.00,100.77
3800.00,100.75
3799.00,100.73
3798.00,100.73
3797.00,100.75
3796.00,100.77
3795.00,100.77
3794.00,100.78
3793.00,100.79
3792.00,100.80
3791.00,100.80
3790.00,100.80
3789.00,100.78
3788.00,100.78
3787.00,100.78
3786.00,100.80
3785.00,100.82
3784.00,100.83
3783.00,100.82
3782.00,100.82
3781.00,100.81
3780.00,100.80
3779.00,100.79
3778.00,100.77
3777.00,100.77
3776.00,100.78
3775.00,100.80
3774.00,100.81
3773.00,100.80
3772.00,100.80
3771.00,100.80
3770.00,100.81
3769.00,100.78
3768.00,100.75
3767.00,100.73
3766.00,100.73
3765.00,100.76
3764.00,100.77
3763.00,100.77
3762.00,100.75
3761.00,100.74
3760.00,100.73
3759.00,100.74
3758.00,100.75
3757.00,100.76
3756.00,100.76
3755.00,100.74
3754.00,100.72
3753.00,100.71
3752.00,100.70
3751.00,100.70
3750.00,100.70
3749.00,100.69
3748.00,100.66
3747.00,100.62
3746.00,100.61
3745.00,100.64
3744.00,100.69
3743.00,100.72
3742.00,100.75
3741.00,100.77
3740.00,100.79
3739.00,100.80
3738.00,100.79
3737.00,100.77
3736.00,100.76
3735.00,100.74
3734.00,100.72
3733.00,100.72
3732.00,100.74
3731.00,100.76
3730.00,100.78
3729.00,100.79
3728.00,100.79
3727.00,100.79
3726.00,100.78
3725.00,100.76
3724.00,100.75
3723.00,100.76
3722.00,100.79
3721.00,100.81
3720.00,100.82
3719.00,100.82
3718.00,100.81
3717.00,100.79
3716.00,100.77
3715.00,100.74
3714.00,100.72
3713.00,100.70
3712.00,100.69
3711.00,100.68
3710.00,100.67
3709.00,100.68
3708.00,100.70
3707.00,100.72
3706.00,100.75
3705.00,100.77
3704.00,100.79
3703.00,100.80
3702.00,100.81
3701.00,100.79
3700.00,100.77
3699.00,100.76
3698.00,100.75
3697.00,100.77
3696.00,100.78
3695.00,100.79
3694.00,100.79
3693.00,100.79
3692.00,100.79
3691.00,100.79
3690.00,100.80
3689.00,100.81
3688.00,100.82
3687.00,100.82
3686.00,100.81
3685.00,100.80
3684.00,100.81
3683.00,100.82
3682.00,100.83
3681.00,100.84
3680.00,100.84
3679.00,100.83
3678.00,100.79
3677.00,100.76
3676.00,100.73
3675.00,100.72
3674.00,100.70
3673.00,100.67
3672.00,100.65
3671.00,100.64
3670.00,100.63
3669.00,100.64
3668.00,100.65
3667.00,100.68
3666.00,100.72
3665.00,100.75
3664.00,100.77
3663.00,100.77
3662.00,100.76
3661.00,100.75
3660.00,100.73
3659.00,100.71
3658.00,100.71
3657.00,100.71
3656.00,100.71
3655.00,100.68
3654.00,100.64
3653.00,100.60
3652.00,100.58
3651.00,100.59
3650.00,100.59
3649.00,100.57
3648.00,100.56
3647.00,100.56
3646.00,100.59
3645.00,100.61
3644.00,100.61
3643.00,100.60
3642.00,100.57
3641.00,100.54
3640.00,100.52
3639.00,100.51
3638.00,100.51
3637.00,100.52
3636.00,100.54
3635.00,100.55
3634.00,100.55
3633.00,100.53
3632.00,100.49
3631.00,100.45
3630.00,100.43
3629.00,100.42
3628.00,100.41
3627.00,100.39
3626.00,100.39
3625.00,100.41
3624.00,100.43
3623.00,100.44
3622.00,100.42
3621.00,100.39
3620.00,100.35
3619.00,100.31
3618.00,100.27
3617.00,100.23
3616.00,100.22
3615.00,100.22
3614.00,100.23
3613.00,100.25
3612.00,100.26
3611.00,100.26
3610.00,100.24
3609.00,100.21
3608.00,100.19
3607.00,100.16
3606.00,100.14
3605.00,100.13
3604.00,100.13
3603.00,100.13
3602.00,100.13
3601.00,100.10
3600.00,100.07
3599.00,100.03
3598.00,100.01
3597.00,99.99
3596.00,99.97
3595.00,99.95
3594.00,99.93
3593.00,99.91
3592.00,99.92
3591.00,99.93
3590.00,99.94
3589.00,99.93
3588.00,99.90
3587.00,99.87
3586.00,99.83
3585.00,99.81
3584.00,99.80
3583.00,99.78
3582.00,99.77
3581.00,99.76
3580.00,99.74
3579.00,99.72
3578.00,99.70
3577.00,99.66
3576.00,99.63
3575.00,99.60
3574.00,99.59
3573.00,99.60
3572.00,99.60
3571.00,99.58
3570.00,99.55
3569.00,99.51
3568.00,99.48
3567.00,99.44
3566.00,99.41
3565.00,99.37
3564.00,99.35
3563.00,99.34
3562.00,99.33
3561.00,99.32
3560.00,99.29
3559.00,99.27
3558.00,99.24
3557.00,99.22
3556.00,99.19
3555.00,99.16
3554.00,99.14
3553.00,99.11
3552.00,99.08
3551.00,99.04
3550.00,98.99
3549.00,98.94
3548.00,98.92
3547.00,98.91
3546.00,98.91
3545.00,98.91
3544.00,98.91
3543.00,98.90
3542.00,98.89
3541.00,98.87
3540.00,98.84
3539.00,98.81
3538.00,98.77
3537.00,98.75
3536.00,98.72
3535.00,98.69
3534.00,98.65
3533.00,98.61
3532.00,98.58
3531.00,98.57
3530.00,98.56
3529.00,98.54
3528.00,98.51
3527.00,98.46
3526.00,98.42
3525.00,98.38
3524.00,98.36
3523.00,98.35
3522.00,98.32
3521.00,98.28
3520.00,98.25
3519.00,98.23
3518.00,98.22
3517.00,98.22
3516.00,98.20
3515.00,98.15
3514.00,98.08
3513.00,98.01
3512.00,97.94
3511.00,97.88
3510.00,97.84
3509.00,97.80
3508.00,97.77
3507.00,97.74
3506.00,97.71
3505.00,97.68
3504.00,97.64
3503.00,97.60
3502.00,97.57
3501.00,97.54
3500.00,97.51
3499.00,97.47
3498.00,97.41
3497.00,97.35
3496.00,97.29
3495.00,97.24
3494.00,97.19
3493.00,97.15
3492.00,97.11
3491.00,97.09
3490.00,97.06
3489.00,97.03
3488.00,97.00
3487.00,96.96
3486.00,96.93
3485.00,96.90
3484.00,96.88
3483.00,96.88
3482.00,96.87
3481.00,96.84
3480.00,96.80
3479.00,96.76
3478.00,96.71
3477.00,96.69
3476.00,96.68
3475.00,96.67
3474.00,96.66
3473.00,96.63
3472.00,96.59
3471.00,96.54
3470.00,96.50
3469.00,96.47
3468.00,96.44
3467.00,96.42
3466.00,96.40
3465.00,96.37
3464.00,96.34
3463.00,96.30
3462.00,96.26
3461.00,96.22
3460.00,96.19
3459.00,96.15
3458.00,96.11
3457.00,96.07
3456.00,96.03
3455.00,95.99
3454.00,95.95
3453.00,95.90
3452.00,95.84
3451.00,95.78
3450.00,95.73
3449.00,95.69
3448.00,95.66
3447.00,95.63
3446.00,95.62
3445.00,95.62
3444.00,95.60
3443.00,95.57
3442.00,95.52
3441.00,95.46
3440.00,95.42
3439.00,95.39
3438.00,95.37
3437.00,95.36
3436.00,95.35
3435.00,95.34
3434.00,95.34
3433.00,95.34
3432.00,95.35
3431.00,95.34
3430.00,95.33
3429.00,95.30
3428.00,95.26
3427.00,95.24
3426.00,95.22
3425.00,95.22
3424.00,95.21
3423.00,95.18
3422.00,95.15
3421.00,95.11
3420.00,95.08
3419.00,95.07
3418.00,95.07
3417.00,95.06
3416.00,95.06
3415.00,95.05
3414.00,95.03
3413.00,95.02
3412.00,95.00
3411.00,94.97
3410.00,94.95
3409.00,94.94
3408.00,94.92
3407.00,94.91
3406.00,94.88
3405.00,94.85
3404.00,94.83
3403.00,94.82
3402.00,94.82
3401.00,94.81
3400.00,94.78
3399.00,94.75
3398.00,94.74
3397.00,94.74
3396.00,94.74
3395.00,94.74
3394.00,94.73
3393.00,94.72
3392.00,94.71
3391.00,94.68
3390.00,94.65
3389.00,94.62
3388.00,94.60
3387.00,94.60
3386.00,94.60
3385.00,94.60
3384.00,94.58
3383.00,94.55
3382.00,94.53
3381.00,94.52
3380.00,94.51
3379.00,94.51
3378.00,94.51
3377.00,94.51
3376.00,94.50
3375.00,94.48
3374.00,94.45
3373.00,94.42
3372.00,94.40
3371.00,94.40
3370.00,94.40
3369.00,94.41
3368.00,94.41
3367.00,94.41
3366.00,94.41
3365.00,94.39
3364.00,94.38
3363.00,94.37
3362.00,94.37
3361.00,94.35
3360.00,94.34
3359.00,94.32
3358.00,94.31
3357.00,94.31
3356.00,94.30
3355.00,94.29
3354.00,94.27
3353.00,94.25
3352.00,94.23
3351.00,94.22
3350.00,94.22
3349.00,94.23
3348.00,94.24
3347.00,94.24
3346.00,94.23
3345.00,94.21
3344.00,94.19
3343.00,94.18
3342.00,94.17
3341.00,94.15
3340.00,94.14
3339.00,94.13
3338.00,94.14
3337.00,94.15
3336.00,94.17
3335.00,94.17
3334.00,94.16
3333.00,94.15
3332.00,94.13
3331.00,94.12
3330.00,94.12
3329.00,94.13
3328.00,94.14
3327.00,94.15
3326.00,94.15
3325.00,94.15
3324.00,94.15
3323.00,94.15
3322.00,94.16
3321.00,94.16
3320.00,94.15
3319.00,94.16
3318.00,94.16
3317.00,94.18
3316.00,94.20
3315.00,94.20
3314.00,94.19
3313.00,94.15
3312.00,94.11
3311.00,94.08
3310.00,94.06
3309.00,94.07
3308.00,94.10
3307.00,94.12
3306.00,94.14
3305.00,94.15
3304.00,94.15
3303.00,94.15
3302.00,94.14
3301.00,94.14
3300.00,94.15
3299.00,94.15
3298.00,94.15
3297.00,94.14
3296.00,94.14
3295.00,94.13
3294.00,94.12
3293.00,94.11
3292.00,94.09
3291.00,94.09
3290.00,94.11
3289.00,94.14
3288.00,94.15
3287.00,94.15
3286.00,94.14
3285.00,94.13
3284.00,94.15
3283.00,94.18
3282.00,94.21
3281.00,94.23
3280.00,94.22
3279.00,94.20
3278.00,94.18
3277.00,94.17
3276.00,94.18
3275.00,94.20
3274.00,94.23
3273.00,94.25
3272.00,94.27
3271.00,94.27
3270.00,94.28
3269.00,94.28
3268.00,94.29
3267.00,94.29
3266.00,94.30
3265.00,94.29
3264.00,94.28
3263.00,94.27
3262.00,94.27
3261.00,94.29
3260.00,94.31
3259.00,94.31
3258.00,94.31
3257.00,94.31
3256.00,94.32
3255.00,94.33
3254.00,94.34
3253.00,94.34
3252.00,94.34
3251.00,94.35
3250.00,94.37
3249.00,94.40
3248.00,94.41
3247.00,94.41
3246.00,94.41
3245.00,94.41
3244.00,94.43
3243.00,94.45
3242.00,94.47
3241.00,94.49
3240.00,94.51
3239.00,94.51
3238.00,94.50
3237.00,94.48
3236.00,94.48
3235.00,94.50
3234.00,94.53
3233.00,94.56
3232.00,94.58
3231.00,94.57
3230.00,94.56
3229.00,94.55
3228.00,94.54
3227.00,94.54
3226.00,94.54
3225.00,94.56
3224.00,94.59
3223.00,94.62
3222.00,94.64
3221.00,94.65
3220.00,94.65
3219.00,94.67
3218.00,94.70
3217.00,94.73
3216.00,94.75
3215.00,94.75
3214.00,94.74
3213.00,94.72
3212.00,94.71
3211.00,94.72
3210.00,94.75
3209.00,94.79
3208.00,94.83
3207.00,94.87
3206.00,94.89
3205.00,94.89
3204.00,94.88
3203.00,94.87
3202.00,94.87
3201.00,94.86
3200.00,94.87
3199.00,94.89
3198.00,94.92
3197.00,94.94
3196.00,94.95
3195.00,94.95
3194.00,94.95
3193.00,94.96
3192.00,94.99
3191.00,95.01
3190.00,95.03
3189.00,95.03
3188.00,95.03
3187.00,95.04
3186.00,95.07
3185.00,95.10
3184.00,95.13
3183.00,95.15
3182.00,95.16
3181.00,95.17
3180.00,95.18
3179.00,95.19
3178.00,95.20
3177.00,95.21
3176.00,95.22
3175.00,95.22
3174.00,95.22
3173.00,95.23
3172.00,95.26
3171.00,95.30
3170.00,95.34
3169.00,95.36
3168.00,95.37
3167.00,95.36
3166.00,95.36
3165.00,95.36
3164.00,95.37
3163.00,95.38
3162.00,95.40
3161.00,95.41
3160.00,95.42
3159.00,95.42
3158.00,95.44
3157.00,95.46
3156.00,95.49
3155.00,95.51
3154.00,95.53
3153.00,95.56
3152.00,95.58
3151.00,95.60
3150.00,95.62
3149.00,95.62
3148.00,95.62
3147.00,95.61
3146.00,95.61
3145.00,95.61
3144.00,95.62
3143.00,95.65
3142.00,95.68
3141.00,95.71
3140.00,95.74
3139.00,95.75
3138.00,95.76
3137.00,95.78
3136.00,95.81
3135.00,95.85
3134.00,95.87
3133.00,95.88
3132.00,95.89
3131.00,95.91
3130.00,95.94
3129.00,95.96
3128.00,95.98
3127.00,95.99
3126.00,96.00
3125.00,96.01
3124.00,96.02
3123.00,96.03
3122.00,96.03
3121.00,96.05
3120.00,96.07
3119.00,96.08
3118.00,96.10
3117.00,96.11
3116.00,96.12
3115.00,96.15
3114.00,96.17
3113.00,96.19
3112.00,96.21
3111.00,96.23
3110.00,96.25
3109.00,96.28
3108.00,96.30
3107.00,96.31
3106.00,96.33
3105.00,96.36
3104.00,96.39
3103.00,96.42
3102.00,96.44
3101.00,96.45
3100.00,96.47
3099.00,96.49
3098.00,96.52
3097.00,96.54
3096.00,96.56
3095.00,96.57
3094.00,96.57
3093.00,96.56
3092.00,96.56
3091.00,96.58
3090.00,96.60
3089.00,96.63
3088.00,96.64
3087.00,96.66
3086.00,96.68
3085.00,96.71
3084.00,96.75
3083.00,96.78
3082.00,96.80
3081.00,96.80
3080.00,96.81
3079.00,96.82
3078.00,96.84
3077.00,96.85
3076.00,96.87
3075.00,96.88
3074.00,96.91
3073.00,96.93
3072.00,96.95
3071.00,96.97
3070.00,96.98
3069.00,96.98
3068.00,96.99
3067.00,97.01
3066.00,97.04
3065.00,97.06
3064.00,97.08
3063.00,97.09
3062.00,97.10
3061.00,97.12
3060.00,97.14
3059.00,97.16
3058.00,97.18
3057.00,97.19
3056.00,97.20
3055.00,97.21
3054.00,97.21
3053.00,97.22
3052.00,97.23
3051.00,97.24
3050.00,97.26
3049.00,97.29
3048.00,97.32
3047.00,97.35
3046.00,97.38
3045.00,97.39
3044.00,97.40
3043.00,97.40
3042.00,97.40
3041.00,97.42
3040.00,97.44
3039.00,97.46
3038.00,97.47
3037.00,97.47
3036.00,97.47
3035.00,97.48
3034.00,97.50
3033.00,97.52
3032.00,97.54
3031.00,97.56
3030.00,97.57
3029.00,97.58
3028.00,97.59
3027.00,97.60
3026.00,97.61
3025.00,97.62
3024.00,97.61
3023.00,97.61
3022.00,97.63
3021.00,97.65
3020.00,97.68
3019.00,97.69
3018.00,97.70
3017.00,97.70
3016.00,97.71
3015.00,97.71
3014.00,97.71
3013.00,97.71
3012.00,97.71
3011.00,97.73
3010.00,97.76
3009.00,97.79
3008.00,97.82
3007.00,97.83
3006.00,97.82
3005.00,97.81
3004.00,97.79
3003.00,97.79
3002.00,97.81
3001.00,97.83
3000.00,97.85
2999.00,97.86
2998.00,97.86
2997.00,97.86
2996.00,97.86
2995.00,97.87
2994.00,97.88
2993.00,97.88
2992.00,97.89
2991.00,97.89
2990.00,97.89
2989.00,97.89
2988.00,97.88
2987.00,97.88
2986.00,97.89
2985.00,97.90
2984.00,97.90
2983.00,97.89
2982.00,97.88
2981.00,97.87
2980.00,97.86
2979.00,97.86
2978.00,97.86
2977.00,97.86
2976.00,97.87
2975.00,97.87
2974.00,97.86
2973.00,97.84
2972.00,97.81
2971.00,97.79
2970.00,97.77
2969.00,97.77
2968.00,97.77
2967.00,97.76
2966.00,97.75
2965.00,97.73
2964.00,97.71
2963.00,97.69
2962.00,97.67
2961.00,97.64
2960.00,97.63
2959.00,97.62
2958.00,97.61
2957.00,97.60
2956.00,97.58
2955.00,97.56
2954.00,97.54
2953.00,97.51
2952.00,97.46
2951.00,97.41
2950.00,97.37
2949.00,97.35
2948.00,97.33
2947.00,97.33
2946.00,97.32
2945.00,97.31
2944.00,97.28
2943.00,97.25
2942.00,97.22
2941.00,97.19
2940.00,97.16
2939.00,97.12
2938.00,97.08
2937.00,97.04
2936.00,96.99
2935.00,96.96
2934.00,96.93
2933.00,96.92
2932.00,96.91
2931.00,96.89
2930.00,96.86
2929.00,96.82
2928.00,96.79
2927.00,96.76
2926.00,96.74
2925.00,96.72
2924.00,96.72
2923.00,96.72
2922.00,96.73
2921.00,96.73
2920.00,96.72
2919.00,96.70
2918.00,96.67
2917.00,96.63
2916.00,96.60
2915.00,96.58
2914.00,96.56
2913.00,96.53
2912.00,96.50
2911.00,96.48
2910.00,96.46
2909.00,96.45
2908.00,96.44
2907.00,96.40
2906.00,96.35
2905.00,96.29
2904.00,96.26
2903.00,96.24
2902.00,96.24
2901.00,96.23
2900.00,96.22
2899.00,96.19
2898.00,96.17
2897.00,96.16
2896.00,96.15
2895.00,96.15
2894.00,96.14
2893.00,96.13
2892.00,96.11
2891.00,96.10
2890.00,96.10
2889.00,96.09
2888.00,96.08
2887.00,96.07
2886.00,96.07
2885.00,96.08
2884.00,96.09
2883.00,96.12
2882.00,96.14
2881.00,96.15
2880.00,96.15
2879.00,96.15
2878.00,96.15
2877.00,96.16
2876.00,96.17
2875.00,96.18
2874.00,96.19
2873.00,96.20
2872.00,96.22
2871.00,96.23
2870.00,96.24
2869.00,96.25
2868.00,96.28
2867.00,96.31
2866.00,96.34
2865.00,96.37
2864.00,96.39
2863.00,96.40
2862.00,96.42
2861.00,96.43
2860.00,96.45
2859.00,96.47
2858.00,96.49
2857.00,96.52
2856.00,96.56
2855.00,96.60
2854.00,96.63
2853.00,96.65
2852.00,96.68
2851.00,96.71
2850.00,96.75
2849.00,96.79
2848.00,96.83
2847.00,96.86
2846.00,96.89
2845.00,96.92
2844.00,96.95
2843.00,96.97
2842.00,97.00
2841.00,97.01
2840.00,97.01
2839.00,97.01
2838.00,97.02
2837.00,97.03
2836.00,97.06
2835.00,97.09
2834.00,97.14
2833.00,97.18
2832.00,97.22
2831.00,97.25
2830.00,97.27
2829.00,97.27
2828.00,97.27
2827.00,97.27
2826.00,97.26
2825.00,97.26
2824.00,97.27
2823.00,97.27
2822.00,97.28
2821.00,97.30
2820.00,97.31
2819.00,97.33
2818.00,97.34
2817.00,97.35
2816.00,97.36
2815.00,97.37
2814.00,97.39
2813.00,97.40
2812.00,97.40
2811.00,97.40
2810.00,97.41
2809.00,97.42
2808.00,97.43
2807.00,97.45
2806.00,97.46
2805.00,97.47
2804.00,97.48
2803.00,97.49
2802.00,97.50
2801.00,97.51
2800.00,97.51
2799.00,97.51
2798.00,97.51
2797.00,97.52
2796.00,97.52
2795.00,97.53
2794.00,97.54
2793.00,97.53
2792.00,97.54
2791.00,97.54
2790.00,97.55
2789.00,97.56
2788.00,97.57
2787.00,97.58
2786.00,97.58
2785.00,97.59
2784.00,97.59
2783.00,97.61
2782.00,97.63
2781.00,97.64
2780.00,97.65
2779.00,97.65
2778.00,97.66
2777.00,97.67
2776.00,97.67
2775.00,97.67
2774.00,97.66
2773.00,97.65
2772.00,97.64
2771.00,97.63
2770.00,97.64
2769.00,97.65
2768.00,97.67
2767.00,97.69
2766.00,97.71
2765.00,97.71
2764.00,97.71
2763.00,97.72
2762.00,97.73
2761.00,97.74
2760.00,97.76
2759.00,97.77
2758.00,97.78
2757.00,97.78
2756.00,97.78
2755.00,97.76
2754.00,97.75
2753.00,97.74
2752.00,97.74
2751.00,97.74
2750.00,97.75
2749.00,97.76
2748.00,97.77
2747.00,97.78
2746.00,97.78
2745.00,97.78
2744.00,97.77
2743.00,97.76
2742.00,97.75
2741.00,97.75
2740.00,97.76
2739.00,97.77
2738.00,97.78
2737.00,97.78
2736.00,97.77
2735.00,97.76
2734.00,97.74
2733.00,97.73
2732.00,97.73
2731.00,97.74
2730.00,97.77
2729.00,97.79
2728.00,97.80
2727.00,97.80
2726.00,97.80
2725.00,97.79
2724.00,97.78
2723.00,97.79
2722.00,97.80
2721.00,97.81
2720.00,97.81
2719.00,97.82
2718.00,97.82
2717.00,97.81
2716.00,97.81
2715.00,97.81
2714.00,97.82
2713.00,97.84
2712.00,97.86
2711.00,97.87
2710.00,97.87
2709.00,97.86
2708.00,97.85
2707.00,97.84
2706.00,97.83
2705.00,97.83
2704.00,97.85
2703.00,97.87
2702.00,97.89
2701.00,97.90
2700.00,97.91
2699.00,97.91
2698.00,97.90
2697.00,97.88
2696.00,97.86
2695.00,97.85
2694.00,97.85
2693.00,97.85
2692.00,97.86
2691.00,97.86
2690.00,97.86
2689.00,97.86
2688.00,97.87
2687.00,97.88
2686.00,97.88
2685.00,97.89
2684.00,97.89
2683.00,97.90
2682.00,97.89
2681.00,97.89
2680.00,97.90
2679.00,97.90
2678.00,97.91
2677.00,97.91
2676.00,97.90
2675.00,97.89
2674.00,97.89
2673.00,97.89
2672.00,97.91
2671.00,97.93
2670.00,97.94
2669.00,97.95
2668.00,97.96
2667.00,97.97
2666.00,97.97
2665.00,97.97
2664.00,97.95
2663.00,97.94
2662.00,97.93
2661.00,97.92
2660.00,97.92
2659.00,97.93
2658.00,97.94
2657.00,97.95
2656.00,97.95
2655.00,97.94
2654.00,97.94
2653.00,97.93
2652.00,97.93
2651.00,97.92
2650.00,97.91
2649.00,97.91
2648.00,97.91
2647.00,97.92
2646.00,97.92
2645.00,97.90
2644.00,97.88
2643.00,97.86
2642.00,97.86
2641.00,97.86
2640.00,97.88
2639.00,97.89
2638.00,97.89
2637.00,97.87
2636.00,97.85
2635.00,97.84
2634.00,97.84
2633.00,97.85
2632.00,97.86
2631.00,97.86
2630.00,97.87
2629.00,97.88
2628.00,97.89
2627.00,97.90
2626.00,97.90
2625.00,97.89
2624.00,97.88
2623.00,97.88
2622.00,97.89
2621.00,97.90
2620.00,97.91
2619.00,97.91
2618.00,97.91
2617.00,97.89
2616.00,97.88
2615.00,97.85
2614.00,97.84
2613.00,97.83
2612.00,97.84
2611.00,97.87
2610.00,97.90
2609.00,97.91
2608.00,97.91
2607.00,97.90
2606.00,97.90
2605.00,97.91
2604.00,97.92
2603.00,97.91
2602.00,97.89
2601.00,97.89
2600.00,97.89
2599.00,97.90
2598.00,97.90
2597.00,97.89
2596.00,97.87
2595.00,97.86
2594.00,97.86
2593.00,97.87
2592.00,97.89
2591.00,97.90
2590.00,97.90
2589.00,97.90
2588.00,97.89
2587.00,97.88
2586.00,97.87
2585.00,97.86
2584.00,97.85
2583.00,97.84
2582.00,97.84
2581.00,97.84
2580.00,97.83
2579.00,97.83
2578.00,97.84
2577.00,97.85
2576.00,97.86
2575.00,97.87
2574.00,97.86
2573.00,97.85
2572.00,97.83
2571.00,97.84
2570.00,97.85
2569.00,97.86
2568.00,97.85
2567.00,97.84
2566.00,97.85
2565.00,97.87
2564.00,97.90
2563.00,97.92
2562.00,97.93
2561.00,97.94
2560.00,97.95
2559.00,97.95
2558.00,97.95
2557.00,97.95
2556.00,97.95
2555.00,97.93
2554.00,97.91
2553.00,97.88
2552.00,97.86
2551.00,97.85
2550.00,97.87
2549.00,97.89
2548.00,97.91
2547.00,97.91
2546.00,97.89
2545.00,97.86
2544.00,97.83
2543.00,97.82
2542.00,97.83
2541.00,97.85
2540.00,97.88
2539.00,97.90
2538.00,97.89
2537.00,97.87
2536.00,97.85
2535.00,97.85
2534.00,97.85
2533.00,97.85
2532.00,97.84
2531.00,97.83
2530.00,97.82
2529.00,97.82
2528.00,97.83
2527.00,97.85
2526.00,97.85
2525.00,97.84
2524.00,97.84
2523.00,97.84
2522.00,97.84
2521.00,97.86
2520.00,97.88
2519.00,97.89
2518.00,97.89
2517.00,97.88
2516.00,97.86
2515.00,97.85
2514.00,97.84
2513.00,97.85
2512.00,97.86
2511.00,97.86
2510.00,97.86
2509.00,97.86
2508.00,97.87
2507.00,97.88
2506.00,97.89
2505.00,97.89
2504.00,97.88
2503.00,97.88
2502.00,97.87
2501.00,97.86
2500.00,97.85
2499.00,97.85
2498.00,97.85
2497.00,97.84
2496.00,97.83
2495.00,97.82
2494.00,97.81
2493.00,97.82
2492.00,97.84
2491.00,97.85
2490.00,97.87
2489.00,97.89
2488.00,97.89
2487.00,97.89
2486.00,97.88
2485.00,97.87
2484.00,97.87
2483.00,97.88
2482.00,97.89
2481.00,97.90
2480.00,97.92
2479.00,97.92
2478.00,97.92
2477.00,97.90
2476.00,97.88
2475.00,97.87
2474.00,97.88
2473.00,97.89
2472.00,97.91
2471.00,97.91
2470.00,97.91
2469.00,97.90
2468.00,97.89
2467.00,97.89
2466.00,97.88
2465.00,97.88
2464.00,97.86
2463.00,97.85
2462.00,97.83
2461.00,97.82
2460.00,97.82
2459.00,97.83
2458.00,97.84
2457.00,97.84
2456.00,97.84
2455.00,97.84
2454.00,97.85
2453.00,97.86
2452.00,97.87
2451.00,97.88
2450.00,97.90
2449.00,97.91
2448.00,97.90
2447.00,97.89
2446.00,97.87
2445.00,97.87
2444.00,97.88
2443.00,97.91
2442.00,97.94
2441.00,97.96
2440.00,97.97
2439.00,97.97
2438.00,97.98
2437.00,97.98
2436.00,97.97
2435.00,97.96
2434.00,97.93
2433.00,97.92
2432.00,97.92
2431.00,97.94
2430.00,97.96
2429.00,97.97
2428.00,97.98
2427.00,97.98
2426.00,97.99
2425.00,97.98
2424.00,97.97
2423.00,97.96
2422.00,97.95
2421.00,97.95
2420.00,97.96
2419.00,97.98
2418.00,97.99
2417.00,97.99
2416.00,97.98
2415.00,97.98
2414.00,97.99
2413.00,97.99
2412.00,97.99
2411.00,97.97
2410.00,97.94
2409.00,97.93
2408.00,97.93
2407.00,97.95
2406.00,97.96
2405.00,97.97
2404.00,97.97
2403.00,97.96
2402.00,97.97
2401.00,97.98
2400.00,97.98
2399.00,97.99
2398.00,97.99
2397.00,98.01
2396.00,98.02
2395.00,98.03
2394.00,98.03
2393.00,98.02
2392.00,98.02
2391.00,98.04
2390.00,98.06
2389.00,98.08
2388.00,98.09
2387.00,98.09
2386.00,98.10
2385.00,98.11
2384.00,98.11
2383.00,98.11
2382.00,98.11
2381.00,98.11
2380.00,98.14
2379.00,98.18
2378.00,98.22
2377.00,98.23
2376.00,98.22
2375.00,98.21
2374.00,98.22
2373.00,98.24
2372.00,98.24
2371.00,98.20
2370.00,98.13
2369.00,98.04
2368.00,98.00
2367.00,98.03
2366.00,98.11
2365.00,98.17
2364.00,98.17
2363.00,98.15
2362.00,98.14
2361.00,98.18
2360.00,98.21
2359.00,98.23
2358.00,98.22
2357.00,98.21
2356.00,98.20
2355.00,98.21
2354.00,98.20
2353.00,98.19
2352.00,98.18
2351.00,98.18
2350.00,98.18
2349.00,98.16
2348.00,98.11
2347.00,98.06
2346.00,98.04
2345.00,98.05
2344.00,98.11
2343.00,98.17
2342.00,98.21
2341.00,98.23
2340.00,98.24
2339.00,98.22
2338.00,98.19
2337.00,98.16
2336.00,98.13
2335.00,98.13
2334.00,98.14
2333.00,98.16
2332.00,98.18
2331.00,98.21
2330.00,98.23
2329.00,98.23
2328.00,98.20
2327.00,98.15
2326.00,98.09
2325.00,98.04
2324.00,97.99
2323.00,97.97
2322.00,97.97
2321.00,97.99
2320.00,98.01
2319.00,98.00
2318.00,97.98
2317.00,97.97
2316.00,97.99
2315.00,98.01
2314.00,98.04
2313.00,98.06
2312.00,98.05
2311.00,98.01
2310.00,97.97
2309.00,97.95
2308.00,97.94
2307.00,97.94
2306.00,97.93
2305.00,97.91
2304.00,97.91
2303.00,97.91
2302.00,97.91
2301.00,97.90
2300.00,97.87
2299.00,97.83
2298.00,97.80
2297.00,97.78
2296.00,97.77
2295.00,97.76
2294.00,97.78
2293.00,97.81
2292.00,97.84
2291.00,97.86
2290.00,97.84
2289.00,97.80
2288.00,97.76
2287.00,97.72
2286.00,97.68
2285.00,97.67
2284.00,97.67
2283.00,97.69
2282.00,97.71
2281.00,97.71
2280.00,97.69
2279.00,97.67
2278.00,97.66
2277.00,97.65
2276.00,97.66
2275.00,97.67
2274.00,97.69
2273.00,97.70
2272.00,97.70
2271.00,97.68
2270.00,97.66
2269.00,97.65
2268.00,97.65
2267.00,97.66
2266.00,97.67
2265.00,97.68
2264.00,97.68
2263.00,97.69
2262.00,97.69
2261.00,97.68
2260.00,97.66
2259.00,97.61
2258.00,97.57
2257.00,97.55
2256.00,97.57
2255.00,97.60
2254.00,97.62
2253.00,97.62
2252.00,97.60
2251.00,97.58
2250.00,97.56
2249.00,97.55
2248.00,97.54
2247.00,97.54
2246.00,97.54
2245.00,97.52
2244.00,97.51
2243.00,97.51
2242.00,97.53
2241.00,97.54
2240.00,97.53
2239.00,97.51
2238.00,97.47
2237.00,97.43
2236.00,97.40
2235.00,97.38
2234.00,97.39
2233.00,97.42
2232.00,97.44
2231.00,97.46
2230.00,97.45
2229.00,97.44
2228.00,97.44
2227.00,97.44
2226.00,97.43
2225.00,97.42
2224.00,97.41
2223.00,97.42
2222.00,97.45
2221.00,97.47
2220.00,97.46
2219.00,97.42
2218.00,97.38
2217.00,97.35
2216.00,97.34
2215.00,97.34
2214.00,97.32
2213.00,97.28
2212.00,97.24
2211.00,97.22
2210.00,97.24
2209.00,97.30
2208.00,97.38
2207.00,97.46
2206.00,97.49
2205.00,97.47
2204.00,97.41
2203.00,97.37
2202.00,97.39
2201.00,97.43
2200.00,97.46
2199.00,97.45
2198.00,97.41
2197.00,97.35
2196.00,97.30
2195.00,97.29
2194.00,97.31
2193.00,97.34
2192.00,97.33
2191.00,97.29
2190.00,97.26
2189.00,97.23
2188.00,97.21
2187.00,97.17
2186.00,97.12
2185.00,97.08
2184.00,97.08
2183.00,97.11
2182.00,97.17
2181.00,97.24
2180.00,97.31
2179.00,97.34
2178.00,97.32
2177.00,97.27
2176.00,97.22
2175.00,97.18
2174.00,97.17
2173.00,97.19
2172.00,97.20
2171.00,97.19
2170.00,97.16
2169.00,97.12
2168.00,97.10
2167.00,97.08
2166.00,97.04
2165.00,96.99
2164.00,96.90
2163.00,96.80
2162.00,96.71
2161.00,96.71
2160.00,96.82
2159.00,97.03
2158.00,97.22
2157.00,97.31
2156.00,97.32
2155.00,97.30
2154.00,97.32
2153.00,97.36
2152.00,97.39
2151.00,97.40
2150.00,97.39
2149.00,97.38
2148.00,97.37
2147.00,97.38
2146.00,97.39
2145.00,97.41
2144.00,97.43
2143.00,97.44
2142.00,97.44
2141.00,97.42
2140.00,97.38
2139.00,97.35
2138.00,97.34
2137.00,97.35
2136.00,97.38
2135.00,97.42
2134.00,97.46
2133.00,97.51
2132.00,97.53
2131.00,97.54
2130.00,97.55
2129.00,97.55
2128.00,97.56
2127.00,97.56
2126.00,97.54
2125.00,97.52
2124.00,97.49
2123.00,97.47
2122.00,97.45
2121.00,97.45
2120.00,97.46
2119.00,97.48
2118.00,97.47
2117.00,97.43
2116.00,97.39
2115.00,97.37
2114.00,97.37
2113.00,97.38
2112.00,97.39
2111.00,97.39
2110.00,97.39
2109.00,97.40
2108.00,97.42
2107.00,97.44
2106.00,97.45
2105.00,97.43
2104.00,97.40
2103.00,97.39
2102.00,97.41
2101.00,97.44
2100.00,97.46
2099.00,97.47
2098.00,97.47
2097.00,97.45
2096.00,97.42
2095.00,97.38
2094.00,97.38
2093.00,97.40
2092.00,97.43
2091.00,97.44
2090.00,97.42
2089.00,97.40
2088.00,97.40
2087.00,97.43
2086.00,97.46
2085.00,97.47
2084.00,97.46
2083.00,97.44
2082.00,97.42
2081.00,97.37
2080.00,97.33
2079.00,97.32
2078.00,97.34
2077.00,97.35
2076.00,97.32
2075.00,97.26
2074.00,97.20
2073.00,97.18
2072.00,97.20
2071.00,97.24
2070.00,97.29
2069.00,97.32
2068.00,97.32
2067.00,97.30
2066.00,97.28
2065.00,97.29
2064.00,97.32
2063.00,97.37
2062.00,97.39
2061.00,97.38
2060.00,97.34
2059.00,97.30
2058.00,97.30
2057.00,97.31
2056.00,97.33
2055.00,97.35
2054.00,97.35
2053.00,97.34
2052.00,97.31
2051.00,97.27
2050.00,97.23
2049.00,97.20
2048.00,97.17
2047.00,97.14
2046.00,97.14
2045.00,97.18
2044.00,97.23
2043.00,97.27
2042.00,97.28
2041.00,97.27
2040.00,97.21
2039.00,97.13
2038.00,97.07
2037.00,97.04
2036.00,97.02
2035.00,96.98
2034.00,96.95
2033.00,96.94
2032.00,96.97
2031.00,97.02
2030.00,97.07
2029.00,97.13
2028.00,97.16
2027.00,97.18
2026.00,97.17
2025.00,97.14
2024.00,97.12
2023.00,97.10
2022.00,97.12
2021.00,97.18
2020.00,97.28
2019.00,97.36
2018.00,97.39
2017.00,97.34
2016.00,97.25
2015.00,97.19
2014.00,97.19
2013.00,97.23
2012.00,97.25
2011.00,97.22
2010.00,97.14
2009.00,97.09
2008.00,97.10
2007.00,97.16
2006.00,97.22
2005.00,97.24
2004.00,97.23
2003.00,97.21
2002.00,97.22
2001.00,97.25
2000.00,97.27
1999.00,97.25
1998.00,97.22
1997.00,97.22
1996.00,97.23
1995.00,97.25
1994.00,97.24
1993.00,97.20
1992.00,97.17
1991.00,97.16
1990.00,97.19
1989.00,97.22
1988.00,97.23
1987.00,97.20
1986.00,97.14
1985.00,97.08
1984.00,97.04
1983.00,97.04
1982.00,97.05
1981.00,97.05
1980.00,97.04
1979.00,97.01
1978.00,96.98
1977.00,96.98
1976.00,97.03
1975.00,97.11
1974.00,97.18
1973.00,97.22
1972.00,97.21
1971.00,97.16
1970.00,97.12
1969.00,97.12
1968.00,97.18
1967.00,97.26
1966.00,97.32
1965.00,97.34
1964.00,97.32
1963.00,97.28
1962.00,97.25
1961.00,97.22
1960.00,97.23
1959.00,97.27
1958.00,97.34
1957.00,97.42
1956.00,97.49
1955.00,97.52
1954.00,97.53
1953.00,97.52
1952.00,97.51
1951.00,97.50
1950.00,97.47
1949.00,97.44
1948.00,97.43
1947.00,97.43
1946.00,97.43
1945.00,97.43
1944.00,97.42
1943.00,97.41
1942.00,97.40
1941.00,97.40
1940.00,97.41
1939.00,97.44
1938.00,97.49
1937.00,97.53
1936.00,97.52
1935.00,97.47
1934.00,97.40
1933.00,97.35
1932.00,97.35
1931.00,97.37
1930.00,97.41
1929.00,97.44
1928.00,97.48
1927.00,97.50
1926.00,97.51
1925.00,97.51
1924.00,97.50
1923.00,97.48
1922.00,97.48
1921.00,97.48
1920.00,97.51
1919.00,97.53
1918.00,97.55
1917.00,97.55
1916.00,97.54
1915.00,97.52
1914.00,97.50
1913.00,97.51
1912.00,97.53
1911.00,97.55
1910.00,97.57
1909.00,97.59
1908.00,97.60
1907.00,97.60
1906.00,97.59
1905.00,97.57
1904.00,97.57
1903.00,97.56
1902.00,97.55
1901.00,97.55
1900.00,97.56
1899.00,97.59
1898.00,97.61
1897.00,97.61
1896.00,97.61
1895.00,97.62
1894.00,97.63
1893.00,97.63
1892.00,97.62
1891.00,97.62
1890.00,97.64
1889.00,97.66
1888.00,97.69
1887.00,97.69
1886.00,97.69
1885.00,97.68
1884.00,97.68
1883.00,97.68
1882.00,97.67
1881.00,97.64
1880.00,97.61
1879.00,97.60
1878.00,97.60
1877.00,97.61
1876.00,97.63
1875.00,97.64
1874.00,97.64
1873.00,97.63
1872.00,97.63
1871.00,97.65
1870.00,97.65
1869.00,97.65
1868.00,97.65
1867.00,97.66
1866.00,97.67
1865.00,97.67
1864.00,97.66
1863.00,97.64
1862.00,97.62
1861.00,97.63
1860.00,97.64
1859.00,97.65
1858.00,97.66
1857.00,97.67
1856.00,97.69
1855.00,97.70
1854.00,97.71
1853.00,97.71
1852.00,97.71
1851.00,97.72
1850.00,97.75
1849.00,97.79
1848.00,97.82
1847.00,97.83
1846.00,97.82
1845.00,97.80
1844.00,97.78
1843.00,97.77
1842.00,97.76
1841.00,97.75
1840.00,97.75
1839.00,97.74
1838.00,97.74
1837.00,97.74
1836.00,97.74
1835.00,97.74
1834.00,97.74
1833.00,97.72
1832.00,97.71
1831.00,97.71
1830.00,97.72
1829.00,97.74
1828.00,97.76
1827.00,97.77
1826.00,97.78
1825.00,97.78
1824.00,97.77
1823.00,97.76
1822.00,97.75
1821.00,97.75
1820.00,97.75
1819.00,97.76
1818.00,97.77
1817.00,97.77
1816.00,97.76
1815.00,97.75
1814.00,97.76
1813.00,97.77
1812.00,97.78
1811.00,97.79
1810.00,97.79
1809.00,97.79
1808.00,97.78
1807.00,97.78
1806.00,97.77
1805.00,97.77
1804.00,97.76
1803.00,97.75
1802.00,97.75
1801.00,97.76
1800.00,97.78
1799.00,97.79
1798.00,97.79
1797.00,97.77
1796.00,97.76
1795.00,97.75
1794.00,97.76
1793.00,97.76
1792.00,97.76
1791.00,97.75
1790.00,97.74
1789.00,97.73
1788.00,97.73
1787.00,97.74
1786.00,97.75
1785.00,97.76
1784.00,97.76
1783.00,97.76
1782.00,97.75
1781.00,97.75
1780.00,97.76
1779.00,97.77
1778.00,97.78
1777.00,97.79
1776.00,97.78
1775.00,97.76
1774.00,97.74
1773.00,97.75
1772.00,97.77
1771.00,97.78
1770.00,97.79
1769.00,97.78
1768.00,97.75
1767.00,97.73
1766.00,97.72
1765.00,97.72
1764.00,97.72
1763.00,97.72
1762.00,97.71
1761.00,97.71
1760.00,97.71
1759.00,97.71
1758.00,97.71
1757.00,97.71
1756.00,97.70
1755.00,97.69
1754.00,97.68
1753.00,97.67
1752.00,97.66
1751.00,97.65
1750.00,97.63
1749.00,97.61
1748.00,97.60
1747.00,97.59
1746.00,97.58
1745.00,97.58
1744.00,97.58
1743.00,97.59
1742.00,97.59
1741.00,97.61
1740.00,97.63
1739.00,97.64
1738.00,97.64
1737.00,97.63
1736.00,97.61
1735.00,97.62
1734.00,97.63
1733.00,97.65
1732.00,97.66
1731.00,97.67
1730.00,97.67
1729.00,97.66
1728.00,97.64
1727.00,97.63
1726.00,97.62
1725.00,97.61
1724.00,97.59
1723.00,97.59
1722.00,97.59
1721.00,97.59
1720.00,97.59
1719.00,97.58
1718.00,97.56
1717.00,97.54
1716.00,97.52
1715.00,97.51
1714.00,97.50
1713.00,97.49
1712.00,97.49
1711.00,97.50
1710.00,97.52
1709.00,97.52
1708.00,97.51
1707.00,97.49
1706.00,97.47
1705.00,97.45
1704.00,97.44
1703.00,97.44
1702.00,97.45
1701.00,97.48
1700.00,97.49
1699.00,97.47
1698.00,97.43
1697.00,97.40
1696.00,97.39
1695.00,97.38
1694.00,97.37
1693.00,97.36
1692.00,97.35
1691.00,97.36
1690.00,97.36
1689.00,97.34
1688.00,97.31
1687.00,97.28
1686.00,97.24
1685.00,97.22
1684.00,97.21
1683.00,97.20
1682.00,97.19
1681.00,97.16
1680.00,97.13
1679.00,97.10
1678.00,97.07
1677.00,97.04
1676.00,97.02
1675.00,97.01
1674.00,96.99
1673.00,96.96
1672.00,96.92
1671.00,96.88
1670.00,96.84
1669.00,96.83
1668.00,96.82
1667.00,96.81
1666.00,96.79
1665.00,96.75
1664.00,96.72
1663.00,96.69
1662.00,96.67
1661.00,96.65
1660.00,96.63
1659.00,96.61
1658.00,96.59
1657.00,96.56
1656.00,96.53
1655.00,96.49
1654.00,96.46
1653.00,96.43
1652.00,96.42
1651.00,96.41
1650.00,96.41
1649.00,96.40
1648.00,96.39
1647.00,96.39
1646.00,96.37
1645.00,96.35
1644.00,96.33
1643.00,96.31
1642.00,96.30
1641.00,96.30
1640.00,96.31
1639.00,96.31
1638.00,96.30
1637.00,96.27
1636.00,96.26
1635.00,96.26
1634.00,96.26
1633.00,96.26
1632.00,96.27
1631.00,96.29
1630.00,96.30
1629.00,96.31
1628.00,96.32
1627.00,96.33
1626.00,96.34
1625.00,96.35
1624.00,96.37
1623.00,96.39
1622.00,96.42
1621.00,96.44
1620.00,96.45
1619.00,96.45
1618.00,96.46
1617.00,96.47
1616.00,96.50
1615.00,96.53
1614.00,96.55
1613.00,96.56
1612.00,96.56
1611.00,96.55
1610.00,96.56
1609.00,96.58
1608.00,96.61
1607.00,96.64
1606.00,96.65
1605.00,96.65
1604.00,96.65
1603.00,96.65
1602.00,96.66
1601.00,96.67
1600.00,96.68
1599.00,96.69
1598.00,96.71
1597.00,96.74
1596.00,96.76
1595.00,96.78
1594.00,96.80
1593.00,96.80
1592.00,96.81
1591.00,96.82
1590.00,96.83
1589.00,96.85
1588.00,96.87
1587.00,96.88
1586.00,96.90
1585.00,96.91
1584.00,96.92
1583.00,96.93
1582.00,96.94
1581.00,96.96
1580.00,96.99
1579.00,97.01
1578.00,97.03
1577.00,97.04
1576.00,97.06
1575.00,97.08
1574.00,97.09
1573.00,97.09
1572.00,97.09
1571.00,97.09
1570.00,97.09
1569.00,97.10
1568.00,97.11
1567.00,97.11
1566.00,97.12
1565.00,97.13
1564.00,97.13
1563.00,97.12
1562.00,97.11
1561.00,97.10
1560.00,97.07
1559.00,97.06
1558.00,97.07
1557.00,97.08
1556.00,97.08
1555.00,97.08
1554.00,97.09
1553.00,97.09
1552.00,97.08
1551.00,97.06
1550.00,97.05
1549.00,97.06
1548.00,97.07
1547.00,97.08
1546.00,97.10
1545.00,97.12
1544.00,97.12
1543.00,97.11
1542.00,97.11
1541.00,97.12
1540.00,97.14
1539.00,97.15
1538.00,97.14
1537.00,97.14
1536.00,97.15
1535.00,97.16
1534.00,97.17
1533.00,97.19
1532.00,97.20
1531.00,97.21
1530.00,97.22
1529.00,97.23
1528.00,97.23
1527.00,97.23
1526.00,97.22
1525.00,97.22
1524.00,97.21
1523.00,97.20
1522.00,97.21
1521.00,97.25
1520.00,97.27
1519.00,97.27
1518.00,97.26
1517.00,97.26
1516.00,97.27
1515.00,97.30
1514.00,97.31
1513.00,97.32
1512.00,97.31
1511.00,97.31
1510.00,97.31
1509.00,97.31
1508.00,97.30
1507.00,97.31
1506.00,97.30
1505.00,97.29
1504.00,97.26
1503.00,97.24
1502.00,97.22
1501.00,97.21
1500.00,97.21
1499.00,97.20
1498.00,97.18
1497.00,97.16
1496.00,97.15
1495.00,97.14
1494.00,97.14
1493.00,97.13
1492.00,97.11
1491.00,97.10
1490.00,97.08
1489.00,97.04
1488.00,97.00
1487.00,96.96
1486.00,96.92
1485.00,96.89
1484.00,96.86
1483.00,96.82
1482.00,96.77
1481.00,96.73
1480.00,96.68
1479.00,96.63
1478.00,96.57
1477.00,96.51
1476.00,96.44
1475.00,96.39
1474.00,96.35
1473.00,96.32
1472.00,96.27
1471.00,96.21
1470.00,96.14
1469.00,96.08
1468.00,96.03
1467.00,95.99
1466.00,95.94
1465.00,95.88
1464.00,95.84
1463.00,95.81
1462.00,95.79
1461.00,95.76
1460.00,95.73
1459.00,95.70
1458.00,95.69
1457.00,95.67
1456.00,95.64
1455.00,95.60
1454.00,95.56
1453.00,95.53
1452.00,95.50
1451.00,95.47
1450.00,95.44
1449.00,95.40
1448.00,95.35
1447.00,95.30
1446.00,95.26
1445.00,95.22
1444.00,95.19
1443.00,95.15
1442.00,95.12
1441.00,95.09
1440.00,95.07
1439.00,95.06
1438.00,95.05
1437.00,95.03
1436.00,95.00
1435.00,94.97
1434.00,94.94
1433.00,94.93
1432.00,94.93
1431.00,94.93
1430.00,94.92
1429.00,94.89
1428.00,94.87
1427.00,94.85
1426.00,94.85
1425.00,94.85
1424.00,94.84
1423.00,94.82
1422.00,94.80
1421.00,94.78
1420.00,94.77
1419.00,94.77
1418.00,94.78
1417.00,94.78
1416.00,94.78
1415.00,94.78
1414.00,94.78
1413.00,94.78
1412.00,94.78
1411.00,94.78
1410.00,94.79
1409.00,94.81
1408.00,94.83
1407.00,94.86
1406.00,94.87
1405.00,94.87
1404.00,94.86
1403.00,94.85
1402.00,94.85
1401.00,94.85
1400.00,94.85
1399.00,94.85
1398.00,94.84
1397.00,94.83
1396.00,94.81
1395.00,94.81
1394.00,94.81
1393.00,94.80
1392.00,94.78
1391.00,94.76
1390.00,94.73
1389.00,94.69
1388.00,94.65
1387.00,94.61
1386.00,94.55
1385.00,94.49
1384.00,94.42
1383.00,94.33
1382.00,94.24
1381.00,94.14
1380.00,94.04
1379.00,93.94
1378.00,93.85
1377.00,93.77
1376.00,93.69
1375.00,93.62
1374.00,93.55
1373.00,93.48
1372.00,93.42
1371.00,93.38
1370.00,93.35
1369.00,93.32
1368.00,93.29
1367.00,93.27
1366.00,93.25
1365.00,93.25
1364.00,93.25
1363.00,93.27
1362.00,93.29
1361.00,93.33
1360.00,93.37
1359.00,93.42
1358.00,93.46
1357.00,93.51
1356.00,93.55
1355.00,93.59
1354.00,93.63
1353.00,93.67
1352.00,93.71
1351.00,93.74
1350.00,93.76
1349.00,93.76
1348.00,93.76
1347.00,93.76
1346.00,93.76
1345.00,93.75
1344.00,93.74
1343.00,93.73
1342.00,93.72
1341.00,93.70
1340.00,93.67
1339.00,93.64
1338.00,93.61
1337.00,93.58
1336.00,93.55
1335.00,93.53
1334.00,93.53
1333.00,93.54
1332.00,93.55
1331.00,93.55
1330.00,93.55
1329.00,93.55
1328.00,93.55
1327.00,93.54
1326.00,93.54
1325.00,93.53
1324.00,93.52
1323.00,93.49
1322.00,93.46
1321.00,93.43
1320.00,93.38
1319.00,93.33
1318.00,93.28
1317.00,93.23
1316.00,93.18
1315.00,93.14
1314.00,93.11
1313.00,93.11
1312.00,93.12
1311.00,93.14
1310.00,93.18
1309.00,93.23
1308.00,93.28
1307.00,93.35
1306.00,93.42
1305.00,93.50
1304.00,93.56
1303.00,93.61
1302.00,93.65
1301.00,93.70
1300.00,93.77
1299.00,93.83
1298.00,93.90
1297.00,93.96
1296.00,94.01
1295.00,94.05
1294.00,94.08
1293.00,94.13
1292.00,94.18
1291.00,94.25
1290.00,94.32
1289.00,94.39
1288.00,94.44
1287.00,94.49
1286.00,94.52
1285.00,94.54
1284.00,94.55
1283.00,94.55
1282.00,94.54
1281.00,94.53
1280.00,94.52
1279.00,94.50
1278.00,94.48
1277.00,94.47
1276.00,94.47
1275.00,94.48
1274.00,94.48
1273.00,94.48
1272.00,94.47
1271.00,94.45
1270.00,94.43
1269.00,94.41
1268.00,94.38
1267.00,94.35
1266.00,94.32
1265.00,94.31
1264.00,94.30
1263.00,94.30
1262.00,94.29
1261.00,94.27
1260.00,94.27
1259.00,94.29
1258.00,94.32
1257.00,94.36
1256.00,94.41
1255.00,94.46
1254.00,94.51
1253.00,94.55
1252.00,94.58
1251.00,94.63
1250.00,94.67
1249.00,94.71
1248.00,94.74
1247.00,94.75
1246.00,94.74
1245.00,94.74
1244.00,94.75
1243.00,94.77
1242.00,94.79
1241.00,94.80
1240.00,94.79
1239.00,94.77
1238.00,94.76
1237.00,94.75
1236.00,94.75
1235.00,94.75
1234.00,94.75
1233.00,94.76
1232.00,94.78
1231.00,94.80
1230.00,94.81
1229.00,94.81
1228.00,94.83
1227.00,94.86
1226.00,94.91
1225.00,94.98
1224.00,95.05
1223.00,95.11
1222.00,95.16
1221.00,95.22
1220.00,95.27
1219.00,95.33
1218.00,95.38
1217.00,95.45
1216.00,95.51
1215.00,95.57
1214.00,95.61
1213.00,95.64
1212.00,95.65
1211.00,95.64
1210.00,95.61
1209.00,95.56
1208.00,95.50
1207.00,95.43
1206.00,95.36
1205.00,95.30
1204.00,95.26
1203.00,95.22
1202.00,95.16
1201.00,95.09
1200.00,95.04
1199.00,95.02
1198.00,95.03
1197.00,95.07
1196.00,95.13
1195.00,95.20
1194.00,95.28
1193.00,95.36
1192.00,95.46
1191.00,95.57
1190.00,95.68
1189.00,95.77
1188.00,95.84
1187.00,95.89
1186.00,95.93
1185.00,95.95
1184.00,95.98
1183.00,95.99
1182.00,95.97
1181.00,95.93
1180.00,95.87
1179.00,95.80
1178.00,95.72
1177.00,95.63
1176.00,95.53
1175.00,95.41
1174.00,95.27
1173.00,95.13
1172.00,94.98
1171.00,94.82
1170.00,94.64
1169.00,94.44
1168.00,94.21
1167.00,93.96
1166.00,93.68
1165.00,93.40
1164.00,93.13
1163.00,92.88
1162.00,92.65
1161.00,92.43
1160.00,92.24
1159.00,92.09
1158.00,91.96
1157.00,91.84
1156.00,91.75
1155.00,91.72
1154.00,91.75
1153.00,91.82
1152.00,91.92
1151.00,92.03
1150.00,92.17
1149.00,92.32
1148.00,92.47
1147.00,92.62
1146.00,92.75
1145.00,92.85
1144.00,92.92
1143.00,93.00
1142.00,93.08
1141.00,93.15
1140.00,93.20
1139.00,93.20
1138.00,93.17
1137.00,93.11
1136.00,93.04
1135.00,92.95
1134.00,92.84
1133.00,92.70
1132.00,92.54
1131.00,92.38
1130.00,92.22
1129.00,92.06
1128.00,91.89
1127.00,91.72
1126.00,91.54
1125.00,91.37
1124.00,91.22
1123.00,91.05
1122.00,90.85
1121.00,90.65
1120.00,90.45
1119.00,90.28
1118.00,90.12
1117.00,89.96
1116.00,89.78
1115.00,89.59
1114.00,89.42
1113.00,89.28
1112.00,89.16
1111.00,89.09
1110.00,89.03
1109.00,88.96
1108.00,88.88
1107.00,88.81
1106.00,88.73
1105.00,88.64
1104.00,88.52
1103.00,88.38
1102.00,88.24
1101.00,88.09
1100.00,87.94
1099.00,87.77
1098.00,87.61
1097.00,87.46
1096.00,87.32
1095.00,87.21
1094.00,87.11
1093.00,87.01
1092.00,86.91
1091.00,86.82
1090.00,86.74
1089.00,86.67
1088.00,86.58
1087.00,86.49
1086.00,86.39
1085.00,86.28
1084.00,86.16
1083.00,86.03
1082.00,85.89
1081.00,85.73
1080.00,85.57
1079.00,85.40
1078.00,85.23
1077.00,85.05
1076.00,84.85
1075.00,84.66
1074.00,84.48
1073.00,84.32
1072.00,84.16
1071.00,83.98
1070.00,83.78
1069.00,83.55
1068.00,83.31
1067.00,83.10
1066.00,82.91
1065.00,82.73
1064.00,82.55
1063.00,82.36
1062.00,82.18
1061.00,82.01
1060.00,81.84
1059.00,81.68
1058.00,81.56
1057.00,81.47
1056.00,81.39
1055.00,81.31
1054.00,81.23
1053.00,81.14
1052.00,81.05
1051.00,80.98
1050.00,80.92
1049.00,80.88
1048.00,80.83
1047.00,80.78
1046.00,80.72
1045.00,80.66
1044.00,80.60
1043.00,80.55
1042.00,80.52
1041.00,80.51
1040.00,80.51
1039.00,80.51
1038.00,80.47
1037.00,80.37
1036.00,80.23
1035.00,80.07
1034.00,79.92
1033.00,79.77
1032.00,79.62
1031.00,79.46
1030.00,79.29
1029.00,79.12
1028.00,78.95
1027.00,78.80
1026.00,78.65
1025.00,78.51
1024.00,78.38
1023.00,78.26
1022.00,78.14
1021.00,78.03
1020.00,77.94
1019.00,77.87
1018.00,77.82
1017.00,77.79
1016.00,77.79
1015.00,77.82
1014.00,77.89
1013.00,77.98
1012.00,78.08
1011.00,78.20
1010.00,78.33
1009.00,78.46
1008.00,78.57
1007.00,78.67
1006.00,78.77
1005.00,78.85
1004.00,78.93
1003.00,78.98
1002.00,79.01
1001.00,78.97
1000.00,78.89
999.00,78.77
998.00,78.66
997.00,78.56
996.00,78.49
995.00,78.45
994.00,78.44
993.00,78.45
992.00,78.48
991.00,78.55
990.00,78.65
989.00,78.78
988.00,78.96
987.00,79.18
986.00,79.43
985.00,79.68
984.00,79.93
983.00,80.20
982.00,80.49
981.00,80.79
980.00,81.08
979.00,81.37
978.00,81.67
977.00,81.95
976.00,82.21
975.00,82.45
974.00,82.66
973.00,82.85
972.00,83.03
971.00,83.21
970.00,83.39
969.00,83.54
968.00,83.67
967.00,83.78
966.00,83.89
965.00,84.00
964.00,84.11
963.00,84.23
962.00,84.35
961.00,84.49
960.00,84.63
959.00,84.78
958.00,84.93
957.00,85.08
956.00,85.23
955.00,85.39
954.00,85.54
953.00,85.69
952.00,85.83
951.00,85.96
950.00,86.10
949.00,86.23
948.00,86.35
947.00,86.47
946.00,86.58
945.00,86.70
944.00,86.83
943.00,86.95
942.00,87.06
941.00,87.16
940.00,87.26
939.00,87.36
938.00,87.45
937.00,87.53
936.00,87.58
935.00,87.63
934.00,87.70
933.00,87.77
932.00,87.85
931.00,87.93
930.00,87.99
929.00,88.05
928.00,88.12
927.00,88.20
926.00,88.28
925.00,88.36
924.00,88.42
923.00,88.47
922.00,88.53
921.00,88.60
920.00,88.67
919.00,88.74
918.00,88.81
917.00,88.86
916.00,88.90
915.00,88.92
914.00,88.93
913.00,88.91
912.00,88.88
911.00,88.85
910.00,88.82
909.00,88.77
908.00,88.70
907.00,88.62
906.00,88.52
905.00,88.42
904.00,88.32
903.00,88.20
902.00,88.09
901.00,87.96
900.00,87.83
899.00,87.70
898.00,87.59
897.00,87.49
896.00,87.42
895.00,87.37
894.00,87.35
893.00,87.35
892.00,87.38
891.00,87.42
890.00,87.49
889.00,87.60
888.00,87.73
887.00,87.86
886.00,87.99
885.00,88.10
884.00,88.22
883.00,88.35
882.00,88.48
881.00,88.61
880.00,88.72
879.00,88.85
878.00,89.00
877.00,89.14
876.00,89.25
875.00,89.32
874.00,89.37
873.00,89.43
872.00,89.50
871.00,89.57
870.00,89.64
869.00,89.70
868.00,89.75
867.00,89.80
866.00,89.86
865.00,89.92
864.00,89.97
863.00,90.01
862.00,90.04
861.00,90.08
860.00,90.10
859.00,90.12
858.00,90.13
857.00,90.15
856.00,90.19
855.00,90.23
854.00,90.25
853.00,90.25
852.00,90.24
851.00,90.24
850.00,90.26
849.00,90.30
848.00,90.35
847.00,90.40
846.00,90.43
845.00,90.46
844.00,90.49
843.00,90.50
842.00,90.49
841.00,90.50
840.00,90.51
839.00,90.52
838.00,90.51
837.00,90.47
836.00,90.44
835.00,90.43
834.00,90.44
833.00,90.46
832.00,90.48
831.00,90.51
830.00,90.55
829.00,90.58
828.00,90.58
827.00,90.54
826.00,90.47
825.00,90.41
824.00,90.37
823.00,90.36
822.00,90.37
821.00,90.38
820.00,90.40
819.00,90.42
818.00,90.44
817.00,90.44
816.00,90.42
815.00,90.39
814.00,90.36
813.00,90.35
812.00,90.38
811.00,90.41
810.00,90.42
809.00,90.40
808.00,90.39
807.00,90.39
806.00,90.40
805.00,90.39
804.00,90.36
803.00,90.32
802.00,90.29
801.00,90.28
800.00,90.28
799.00,90.31
798.00,90.34
797.00,90.36
796.00,90.35
795.00,90.34
794.00,90.32
793.00,90.30
792.00,90.28
791.00,90.27
790.00,90.26
789.00,90.24
788.00,90.23
787.00,90.22
786.00,90.22
785.00,90.22
784.00,90.21
783.00,90.20
782.00,90.20
781.00,90.20
780.00,90.19
779.00,90.18
778.00,90.15
777.00,90.11
776.00,90.06
775.00,90.01
774.00,89.99
773.00,90.00
772.00,90.02
771.00,90.05
770.00,90.06
769.00,90.04
768.00,90.00
767.00,89.96
766.00,89.92
765.00,89.88
764.00,89.83
763.00,89.79
762.00,89.75
761.00,89.71
760.00,89.67
759.00,89.65
758.00,89.64
757.00,89.64
756.00,89.62
755.00,89.58
754.00,89.56
753.00,89.54
752.00,89.52
751.00,89.49
750.00,89.44
749.00,89.38
748.00,89.33
747.00,89.28
746.00,89.26
745.00,89.26
744.00,89.25
743.00,89.22
742.00,89.17
741.00,89.12
740.00,89.09
739.00,89.09
738.00,89.09
737.00,89.03
736.00,88.91
735.00,88.82
734.00,88.82
733.00,88.90
732.00,88.99
731.00,89.02
730.00,88.98
729.00,88.90
728.00,88.82
727.00,88.75
726.00,88.68
725.00,88.63
724.00,88.59
723.00,88.55
722.00,88.51
721.00,88.47
720.00,88.45
719.00,88.42
718.00,88.37
717.00,88.30
716.00,88.26
715.00,88.24
714.00,88.23
713.00,88.21
712.00,88.18
711.00,88.17
710.00,88.16
709.00,88.16
708.00,88.16
707.00,88.15
706.00,88.13
705.00,88.11
704.00,88.09
703.00,88.09
702.00,88.10
701.00,88.08
700.00,88.01
699.00,87.92
698.00,87.85
697.00,87.83
696.00,87.85
695.00,87.89
694.00,87.92
693.00,87.92
692.00,87.90
691.00,87.84
690.00,87.77
689.00,87.73
688.00,87.74
687.00,87.76
686.00,87.76
685.00,87.72
684.00,87.65
683.00,87.57
682.00,87.48
681.00,87.35
680.00,87.18
679.00,87.00
678.00,86.83
677.00,86.64
676.00,86.41
675.00,86.12
674.00,85.79
673.00,85.44
672.00,85.10
671.00,84.82
670.00,84.61
669.00,84.48
668.00,84.44
667.00,84.43
666.00,84.40
665.00,84.35
664.00,84.32
663.00,84.32
662.00,84.32
661.00,84.28
660.00,84.18
659.00,84.09
658.00,84.04
657.00,84.06
656.00,84.13
655.00,84.22
654.00,84.30
653.00,84.32
652.00,84.28
651.00,84.23
650.00,84.22
649.00,84.27
648.00,84.37
647.00,84.45
646.00,84.48
645.00,84.44
644.00,84.34
643.00,84.19
642.00,84.02
641.00,83.87
640.00,83.79
639.00,83.78
638.00,83.82
637.00,83.89
636.00,83.99
635.00,84.16
634.00,84.31
633.00,84.35
632.00,84.22
631.00,83.91
630.00,83.54
629.00,83.24
628.00,83.08
627.00,83.03
626.00,83.02
625.00,83.02
624.00,83.08
623.00,83.24
622.00,83.38
621.00,83.32
620.00,83.07
619.00,82.79
618.00,82.63
617.00,82.59
616.00,82.55
615.00,82.41
614.00,82.15
613.00,81.88
612.00,81.72
611.00,81.69
610.00,81.72
609.00,81.74
608.00,81.80
607.00,81.95
606.00,82.11
605.00,82.13
604.00,82.01
603.00,81.89
602.00,81.82
601.00,81.70
600.00,81.43
599.00,81.03
598.00,80.69
597.00,80.59
596.00,80.73
595.00,81.01
594.00,81.22
593.00,81.20
592.00,80.94
591.00,80.65
590.00,80.53
589.00,80.68
588.00,80.99
587.00,81.19
586.00,81.07
585.00,80.71
584.00,80.52
583.00,80.83
582.00,81.43
581.00,81.80
580.00,81.66
579.00,81.21
578.00,80.68
577.00,80.14
576.00,79.69
575.00,79.61
574.00,80.03
573.00,80.59
572.00,80.81
571.00,80.48
570.00,79.71
569.00,78.88
568.00,78.40
567.00,78.49
566.00,79.01
565.00,79.59
564.00,80.03
563.00,80.33
562.00,80.48
561.00,80.42
560.00,80.17
559.00,79.92
558.00,79.83
557.00,79.92
556.00,80.17
555.00,80.53
554.00,80.81
553.00,80.76
552.00,80.32
551.00,79.90
550.00,79.73
