Created as New Dataset,195 FMC American Viscose (Blue)
cm-1,%T
4000.00,98.63
3999.00,98.64
3998.00,98.65
3997.00,98.64
3996.00,98.64
3995.00,98.63
3994.00,98.63
3993.00,98.64
3992.00,98.64
3991.00,98.64
3990.00,98.64
3989.00,98.63
3988.00,98.62
3987.00,98.61
3986.00,98.62
3985.00,98.62
3984.00,98.62
3983.00,98.62
3982.00,98.62
3981.00,98.62
3980.00,98.63
3979.00,98.64
3978.00,98.63
3977.00,98.61
3976.00,98.59
3975.00,98.57
3974.00,98.58
3973.00,98.60
3972.00,98.63
3971.00,98.64
3970.00,98.63
3969.00,98.62
3968.00,98.60
3967.00,98.59
3966.00,98.58
3965.00,98.58
3964.00,98.58
3963.00,98.58
3962.00,98.59
3961.00,98.61
3960.00,98.65
3959.00,98.68
3958.00,98.69
3957.00,98.68
3956.00,98.67
3955.00,98.66
3954.00,98.65
3953.00,98.65
3952.00,98.65
3951.00,98.64
3950.00,98.64
3949.00,98.63
3948.00,98.63
3947.00,98.63
3946.00,98.62
3945.00,98.62
3944.00,98.63
3943.00,98.65
3942.00,98.66
3941.00,98.66
3940.00,98.66
3939.00,98.66
3938.00,98.66
3937.00,98.66
3936.00,98.63
3935.00,98.60
3934.00,98.57
3933.00,98.56
3932.00,98.56
3931.00,98.58
3930.00,98.59
3929.00,98.59
3928.00,98.59
3927.00,98.59
3926.00,98.61
3925.00,98.63
3924.00,98.65
3923.00,98.66
3922.00,98.65
3921.00,98.65
3920.00,98.65
3919.00,98.65
3918.00,98.65
3917.00,98.65
3916.00,98.65
3915.00,98.65
3914.00,98.65
3913.00,98.66
3912.00,98.68
3911.00,98.70
3910.00,98.71
3909.00,98.70
3908.00,98.67
3907.00,98.65
3906.00,98.64
3905.00,98.63
3904.00,98.61
3903.00,98.60
3902.00,98.60
3901.00,98.61
3900.00,98.65
3899.00,98.67
3898.00,98.68
3897.00,98.68
3896.00,98.67
3895.00,98.67
3894.00,98.66
3893.00,98.67
3892.00,98.67
3891.00,98.67
3890.00,98.66
3889.00,98.65
3888.00,98.65
3887.00,98.65
3886.00,98.64
3885.00,98.62
3884.00,98.60
3883.00,98.59
3882.00,98.59
3881.00,98.62
3880.00,98.63
3879.00,98.62
3878.00,98.60
3877.00,98.58
3876.00,98.57
3875.00,98.58
3874.00,98.59
3873.00,98.59
3872.00,98.60
3871.00,98.60
3870.00,98.61
3869.00,98.60
3868.00,98.59
3867.00,98.58
3866.00,98.58
3865.00,98.59
3864.00,98.61
3863.00,98.61
3862.00,98.61
3861.00,98.61
3860.00,98.60
3859.00,98.59
3858.00,98.57
3857.00,98.56
3856.00,98.56
3855.00,98.56
3854.00,98.58
3853.00,98.59
3852.00,98.59
3851.00,98.60
3850.00,98.62
3849.00,98.63
3848.00,98.64
3847.00,98.64
3846.00,98.63
3845.00,98.61
3844.00,98.58
3843.00,98.55
3842.00,98.54
3841.00,98.53
3840.00,98.54
3839.00,98.55
3838.00,98.55
3837.00,98.54
3836.00,98.53
3835.00,98.54
3834.00,98.56
3833.00,98.59
3832.00,98.61
3831.00,98.61
3830.00,98.59
3829.00,98.56
3828.00,98.53
3827.00,98.52
3826.00,98.51
3825.00,98.50
3824.00,98.50
3823.00,98.51
3822.00,98.55
3821.00,98.57
3820.00,98.55
3819.00,98.51
3818.00,98.50
3817.00,98.53
3816.00,98.59
3815.00,98.65
3814.00,98.67
3813.00,98.68
3812.00,98.67
3811.00,98.64
3810.00,98.61
3809.00,98.58
3808.00,98.57
3807.00,98.57
3806.00,98.57
3805.00,98.55
3804.00,98.55
3803.00,98.56
3802.00,98.59
3801.00,98.60
3800.00,98.60
3799.00,98.61
3798.00,98.63
3797.00,98.67
3796.00,98.68
3795.00,98.68
3794.00,98.66
3793.00,98.65
3792.00,98.64
3791.00,98.64
3790.00,98.64
3789.00,98.64
3788.00,98.65
3787.00,98.66
3786.00,98.67
3785.00,98.67
3784.00,98.66
3783.00,98.65
3782.00,98.64
3781.00,98.62
3780.00,98.61
3779.00,98.59
3778.00,98.59
3777.00,98.59
3776.00,98.61
3775.00,98.61
3774.00,98.61
3773.00,98.60
3772.00,98.59
3771.00,98.58
3770.00,98.58
3769.00,98.56
3768.00,98.54
3767.00,98.53
3766.00,98.54
3765.00,98.55
3764.00,98.56
3763.00,98.56
3762.00,98.56
3761.00,98.55
3760.00,98.54
3759.00,98.53
3758.00,98.53
3757.00,98.53
3756.00,98.53
3755.00,98.53
3754.00,98.52
3753.00,98.52
3752.00,98.52
3751.00,98.52
3750.00,98.51
3749.00,98.50
3748.00,98.48
3747.00,98.45
3746.00,98.44
3745.00,98.44
3744.00,98.45
3743.00,98.46
3742.00,98.48
3741.00,98.51
3740.00,98.54
3739.00,98.58
3738.00,98.60
3737.00,98.60
3736.00,98.57
3735.00,98.52
3734.00,98.47
3733.00,98.45
3732.00,98.46
3731.00,98.50
3730.00,98.53
3729.00,98.56
3728.00,98.58
3727.00,98.58
3726.00,98.56
3725.00,98.53
3724.00,98.51
3723.00,98.50
3722.00,98.50
3721.00,98.50
3720.00,98.51
3719.00,98.52
3718.00,98.52
3717.00,98.52
3716.00,98.52
3715.00,98.52
3714.00,98.53
3713.00,98.53
3712.00,98.53
3711.00,98.52
3710.00,98.50
3709.00,98.49
3708.00,98.49
3707.00,98.49
3706.00,98.49
3705.00,98.49
3704.00,98.48
3703.00,98.48
3702.00,98.49
3701.00,98.50
3700.00,98.49
3699.00,98.48
3698.00,98.48
3697.00,98.48
3696.00,98.48
3695.00,98.46
3694.00,98.43
3693.00,98.40
3692.00,98.36
3691.00,98.35
3690.00,98.37
3689.00,98.41
3688.00,98.43
3687.00,98.43
3686.00,98.43
3685.00,98.44
3684.00,98.47
3683.00,98.50
3682.00,98.52
3681.00,98.51
3680.00,98.49
3679.00,98.46
3678.00,98.43
3677.00,98.42
3676.00,98.42
3675.00,98.40
3674.00,98.36
3673.00,98.32
3672.00,98.29
3671.00,98.29
3670.00,98.31
3669.00,98.33
3668.00,98.36
3667.00,98.38
3666.00,98.39
3665.00,98.38
3664.00,98.37
3663.00,98.36
3662.00,98.37
3661.00,98.37
3660.00,98.36
3659.00,98.34
3658.00,98.32
3657.00,98.29
3656.00,98.26
3655.00,98.25
3654.00,98.24
3653.00,98.23
3652.00,98.21
3651.00,98.18
3650.00,98.15
3649.00,98.13
3648.00,98.11
3647.00,98.09
3646.00,98.09
3645.00,98.09
3644.00,98.10
3643.00,98.11
3642.00,98.11
3641.00,98.10
3640.00,98.09
3639.00,98.10
3638.00,98.11
3637.00,98.10
3636.00,98.08
3635.00,98.06
3634.00,98.03
3633.00,98.00
3632.00,97.97
3631.00,97.93
3630.00,97.90
3629.00,97.88
3628.00,97.86
3627.00,97.85
3626.00,97.85
3625.00,97.85
3624.00,97.85
3623.00,97.84
3622.00,97.82
3621.00,97.80
3620.00,97.78
3619.00,97.75
3618.00,97.72
3617.00,97.67
3616.00,97.63
3615.00,97.59
3614.00,97.58
3613.00,97.57
3612.00,97.57
3611.00,97.57
3610.00,97.56
3609.00,97.55
3608.00,97.52
3607.00,97.50
3606.00,97.48
3605.00,97.49
3604.00,97.50
3603.00,97.50
3602.00,97.49
3601.00,97.46
3600.00,97.44
3599.00,97.41
3598.00,97.37
3597.00,97.32
3596.00,97.27
3595.00,97.22
3594.00,97.18
3593.00,97.17
3592.00,97.16
3591.00,97.14
3590.00,97.11
3589.00,97.08
3588.00,97.05
3587.00,97.02
3586.00,97.00
3585.00,96.98
3584.00,96.97
3583.00,96.96
3582.00,96.94
3581.00,96.91
3580.00,96.87
3579.00,96.83
3578.00,96.79
3577.00,96.75
3576.00,96.72
3575.00,96.69
3574.00,96.65
3573.00,96.60
3572.00,96.56
3571.00,96.52
3570.00,96.51
3569.00,96.50
3568.00,96.48
3567.00,96.44
3566.00,96.39
3565.00,96.36
3564.00,96.35
3563.00,96.35
3562.00,96.33
3561.00,96.30
3560.00,96.26
3559.00,96.24
3558.00,96.21
3557.00,96.18
3556.00,96.14
3555.00,96.10
3554.00,96.06
3553.00,96.03
3552.00,95.99
3551.00,95.97
3550.00,95.95
3549.00,95.94
3548.00,95.93
3547.00,95.90
3546.00,95.86
3545.00,95.81
3544.00,95.76
3543.00,95.71
3542.00,95.68
3541.00,95.64
3540.00,95.60
3539.00,95.54
3538.00,95.48
3537.00,95.42
3536.00,95.39
3535.00,95.37
3534.00,95.35
3533.00,95.33
3532.00,95.30
3531.00,95.28
3530.00,95.25
3529.00,95.23
3528.00,95.18
3527.00,95.12
3526.00,95.06
3525.00,95.02
3524.00,95.01
3523.00,94.99
3522.00,94.96
3521.00,94.91
3520.00,94.86
3519.00,94.82
3518.00,94.78
3517.00,94.74
3516.00,94.68
3515.00,94.62
3514.00,94.57
3513.00,94.53
3512.00,94.50
3511.00,94.48
3510.00,94.43
3509.00,94.37
3508.00,94.30
3507.00,94.23
3506.00,94.17
3505.00,94.12
3504.00,94.07
3503.00,94.03
3502.00,93.98
3501.00,93.92
3500.00,93.85
3499.00,93.77
3498.00,93.72
3497.00,93.68
3496.00,93.66
3495.00,93.63
3494.00,93.59
3493.00,93.55
3492.00,93.50
3491.00,93.45
3490.00,93.41
3489.00,93.35
3488.00,93.30
3487.00,93.26
3486.00,93.21
3485.00,93.17
3484.00,93.12
3483.00,93.07
3482.00,93.03
3481.00,93.00
3480.00,92.97
3479.00,92.96
3478.00,92.94
3477.00,92.92
3476.00,92.89
3475.00,92.86
3474.00,92.82
3473.00,92.78
3472.00,92.73
3471.00,92.67
3470.00,92.61
3469.00,92.56
3468.00,92.52
3467.00,92.48
3466.00,92.45
3465.00,92.41
3464.00,92.38
3463.00,92.36
3462.00,92.34
3461.00,92.32
3460.00,92.28
3459.00,92.22
3458.00,92.15
3457.00,92.08
3456.00,92.02
3455.00,91.99
3454.00,91.96
3453.00,91.94
3452.00,91.91
3451.00,91.86
3450.00,91.79
3449.00,91.72
3448.00,91.64
3447.00,91.57
3446.00,91.51
3445.00,91.46
3444.00,91.41
3443.00,91.38
3442.00,91.37
3441.00,91.36
3440.00,91.35
3439.00,91.34
3438.00,91.32
3437.00,91.29
3436.00,91.26
3435.00,91.23
3434.00,91.22
3433.00,91.20
3432.00,91.18
3431.00,91.16
3430.00,91.14
3429.00,91.11
3428.00,91.09
3427.00,91.08
3426.00,91.07
3425.00,91.06
3424.00,91.06
3423.00,91.05
3422.00,91.03
3421.00,91.02
3420.00,90.99
3419.00,90.95
3418.00,90.91
3417.00,90.87
3416.00,90.85
3415.00,90.85
3414.00,90.85
3413.00,90.84
3412.00,90.80
3411.00,90.77
3410.00,90.74
3409.00,90.72
3408.00,90.70
3407.00,90.68
3406.00,90.66
3405.00,90.65
3404.00,90.64
3403.00,90.63
3402.00,90.62
3401.00,90.60
3400.00,90.57
3399.00,90.55
3398.00,90.53
3397.00,90.51
3396.00,90.49
3395.00,90.47
3394.00,90.44
3393.00,90.40
3392.00,90.38
3391.00,90.36
3390.00,90.36
3389.00,90.36
3388.00,90.36
3387.00,90.34
3386.00,90.32
3385.00,90.30
3384.00,90.29
3383.00,90.27
3382.00,90.24
3381.00,90.21
3380.00,90.19
3379.00,90.16
3378.00,90.15
3377.00,90.15
3376.00,90.16
3375.00,90.16
3374.00,90.16
3373.00,90.15
3372.00,90.14
3371.00,90.12
3370.00,90.11
3369.00,90.11
3368.00,90.12
3367.00,90.14
3366.00,90.14
3365.00,90.12
3364.00,90.09
3363.00,90.05
3362.00,90.01
3361.00,89.99
3360.00,89.97
3359.00,89.96
3358.00,89.96
3357.00,89.97
3356.00,89.96
3355.00,89.95
3354.00,89.92
3353.00,89.90
3352.00,89.88
3351.00,89.88
3350.00,89.88
3349.00,89.89
3348.00,89.89
3347.00,89.89
3346.00,89.89
3345.00,89.89
3344.00,89.90
3343.00,89.91
3342.00,89.92
3341.00,89.92
3340.00,89.90
3339.00,89.88
3338.00,89.87
3337.00,89.87
3336.00,89.89
3335.00,89.89
3334.00,89.89
3333.00,89.88
3332.00,89.87
3331.00,89.88
3330.00,89.88
3329.00,89.89
3328.00,89.89
3327.00,89.90
3326.00,89.90
3325.00,89.90
3324.00,89.90
3323.00,89.90
3322.00,89.92
3321.00,89.94
3320.00,89.96
3319.00,89.96
3318.00,89.94
3317.00,89.90
3316.00,89.88
3315.00,89.88
3314.00,89.90
3313.00,89.92
3312.00,89.93
3311.00,89.94
3310.00,89.93
3309.00,89.94
3308.00,89.94
3307.00,89.96
3306.00,89.97
3305.00,89.98
3304.00,89.97
3303.00,89.97
3302.00,89.96
3301.00,89.96
3300.00,89.97
3299.00,89.99
3298.00,90.02
3297.00,90.03
3296.00,90.04
3295.00,90.04
3294.00,90.04
3293.00,90.04
3292.00,90.05
3291.00,90.05
3290.00,90.04
3289.00,90.03
3288.00,90.04
3287.00,90.05
3286.00,90.07
3285.00,90.09
3284.00,90.10
3283.00,90.10
3282.00,90.09
3281.00,90.09
3280.00,90.10
3279.00,90.13
3278.00,90.17
3277.00,90.20
3276.00,90.20
3275.00,90.18
3274.00,90.15
3273.00,90.15
3272.00,90.17
3271.00,90.21
3270.00,90.24
3269.00,90.25
3268.00,90.23
3267.00,90.21
3266.00,90.21
3265.00,90.24
3264.00,90.27
3263.00,90.29
3262.00,90.31
3261.00,90.31
3260.00,90.32
3259.00,90.33
3258.00,90.35
3257.00,90.37
3256.00,90.38
3255.00,90.39
3254.00,90.39
3253.00,90.40
3252.00,90.42
3251.00,90.44
3250.00,90.46
3249.00,90.47
3248.00,90.48
3247.00,90.48
3246.00,90.49
3245.00,90.51
3244.00,90.54
3243.00,90.57
3242.00,90.59
3241.00,90.61
3240.00,90.61
3239.00,90.62
3238.00,90.64
3237.00,90.66
3236.00,90.68
3235.00,90.70
3234.00,90.73
3233.00,90.76
3232.00,90.78
3231.00,90.78
3230.00,90.78
3229.00,90.79
3228.00,90.81
3227.00,90.83
3226.00,90.86
3225.00,90.88
3224.00,90.90
3223.00,90.92
3222.00,90.94
3221.00,90.95
3220.00,90.96
3219.00,90.98
3218.00,91.01
3217.00,91.05
3216.00,91.08
3215.00,91.11
3214.00,91.13
3213.00,91.15
3212.00,91.16
3211.00,91.17
3210.00,91.20
3209.00,91.22
3208.00,91.25
3207.00,91.27
3206.00,91.29
3205.00,91.31
3204.00,91.33
3203.00,91.34
3202.00,91.34
3201.00,91.35
3200.00,91.36
3199.00,91.38
3198.00,91.40
3197.00,91.41
3196.00,91.42
3195.00,91.43
3194.00,91.46
3193.00,91.49
3192.00,91.52
3191.00,91.55
3190.00,91.57
3189.00,91.59
3188.00,91.62
3187.00,91.65
3186.00,91.69
3185.00,91.72
3184.00,91.73
3183.00,91.72
3182.00,91.71
3181.00,91.71
3180.00,91.74
3179.00,91.78
3178.00,91.82
3177.00,91.87
3176.00,91.91
3175.00,91.94
3174.00,91.96
3173.00,91.97
3172.00,91.99
3171.00,92.02
3170.00,92.04
3169.00,92.06
3168.00,92.08
3167.00,92.12
3166.00,92.16
3165.00,92.20
3164.00,92.23
3163.00,92.24
3162.00,92.26
3161.00,92.29
3160.00,92.32
3159.00,92.35
3158.00,92.37
3157.00,92.38
3156.00,92.39
3155.00,92.39
3154.00,92.41
3153.00,92.44
3152.00,92.48
3151.00,92.52
3150.00,92.56
3149.00,92.59
3148.00,92.61
3147.00,92.62
3146.00,92.63
3145.00,92.64
3144.00,92.67
3143.00,92.70
3142.00,92.75
3141.00,92.80
3140.00,92.84
3139.00,92.86
3138.00,92.87
3137.00,92.88
3136.00,92.89
3135.00,92.90
3134.00,92.93
3133.00,92.96
3132.00,93.00
3131.00,93.06
3130.00,93.11
3129.00,93.15
3128.00,93.18
3127.00,93.21
3126.00,93.23
3125.00,93.27
3124.00,93.30
3123.00,93.34
3122.00,93.37
3121.00,93.41
3120.00,93.44
3119.00,93.46
3118.00,93.49
3117.00,93.51
3116.00,93.52
3115.00,93.55
3114.00,93.58
3113.00,93.61
3112.00,93.65
3111.00,93.69
3110.00,93.72
3109.00,93.76
3108.00,93.80
3107.00,93.83
3106.00,93.85
3105.00,93.88
3104.00,93.91
3103.00,93.93
3102.00,93.94
3101.00,93.95
3100.00,93.97
3099.00,94.00
3098.00,94.04
3097.00,94.10
3096.00,94.14
3095.00,94.18
3094.00,94.20
3093.00,94.22
3092.00,94.25
3091.00,94.28
3090.00,94.30
3089.00,94.33
3088.00,94.35
3087.00,94.37
3086.00,94.40
3085.00,94.44
3084.00,94.48
3083.00,94.51
3082.00,94.54
3081.00,94.55
3080.00,94.57
3079.00,94.59
3078.00,94.62
3077.00,94.64
3076.00,94.65
3075.00,94.67
3074.00,94.69
3073.00,94.73
3072.00,94.78
3071.00,94.82
3070.00,94.85
3069.00,94.86
3068.00,94.87
3067.00,94.89
3066.00,94.91
3065.00,94.94
3064.00,94.98
3063.00,95.02
3062.00,95.05
3061.00,95.06
3060.00,95.06
3059.00,95.07
3058.00,95.08
3057.00,95.11
3056.00,95.15
3055.00,95.18
3054.00,95.21
3053.00,95.24
3052.00,95.26
3051.00,95.28
3050.00,95.30
3049.00,95.31
3048.00,95.33
3047.00,95.34
3046.00,95.35
3045.00,95.38
3044.00,95.41
3043.00,95.45
3042.00,95.49
3041.00,95.51
3040.00,95.53
3039.00,95.53
3038.00,95.53
3037.00,95.54
3036.00,95.56
3035.00,95.59
3034.00,95.60
3033.00,95.62
3032.00,95.63
3031.00,95.65
3030.00,95.68
3029.00,95.70
3028.00,95.72
3027.00,95.74
3026.00,95.76
3025.00,95.78
3024.00,95.80
3023.00,95.82
3022.00,95.84
3021.00,95.85
3020.00,95.84
3019.00,95.83
3018.00,95.82
3017.00,95.83
3016.00,95.85
3015.00,95.87
3014.00,95.89
3013.00,95.92
3012.00,95.95
3011.00,95.97
3010.00,95.97
3009.00,95.98
3008.00,95.99
3007.00,96.01
3006.00,96.02
3005.00,96.02
3004.00,96.02
3003.00,96.02
3002.00,96.04
3001.00,96.06
3000.00,96.08
2999.00,96.09
2998.00,96.10
2997.00,96.10
2996.00,96.10
2995.00,96.10
2994.00,96.11
2993.00,96.11
2992.00,96.12
2991.00,96.13
2990.00,96.13
2989.00,96.11
2988.00,96.09
2987.00,96.07
2986.00,96.06
2985.00,96.05
2984.00,96.05
2983.00,96.05
2982.00,96.05
2981.00,96.03
2980.00,96.02
2979.00,96.01
2978.00,96.00
2977.00,96.00
2976.00,95.99
2975.00,95.98
2974.00,95.96
2973.00,95.95
2972.00,95.94
2971.00,95.94
2970.00,95.94
2969.00,95.93
2968.00,95.91
2967.00,95.89
2966.00,95.87
2965.00,95.86
2964.00,95.85
2963.00,95.83
2962.00,95.79
2961.00,95.76
2960.00,95.72
2959.00,95.69
2958.00,95.66
2957.00,95.62
2956.00,95.58
2955.00,95.54
2954.00,95.51
2953.00,95.49
2952.00,95.47
2951.00,95.44
2950.00,95.40
2949.00,95.36
2948.00,95.32
2947.00,95.30
2946.00,95.27
2945.00,95.24
2944.00,95.20
2943.00,95.16
2942.00,95.11
2941.00,95.06
2940.00,95.02
2939.00,94.96
2938.00,94.90
2937.00,94.84
2936.00,94.78
2935.00,94.72
2934.00,94.67
2933.00,94.64
2932.00,94.60
2931.00,94.57
2930.00,94.54
2929.00,94.51
2928.00,94.48
2927.00,94.45
2926.00,94.43
2925.00,94.41
2924.00,94.39
2923.00,94.36
2922.00,94.34
2921.00,94.31
2920.00,94.28
2919.00,94.24
2918.00,94.20
2917.00,94.16
2916.00,94.13
2915.00,94.10
2914.00,94.08
2913.00,94.06
2912.00,94.03
2911.00,94.00
2910.00,93.98
2909.00,93.97
2908.00,93.96
2907.00,93.94
2906.00,93.90
2905.00,93.86
2904.00,93.82
2903.00,93.79
2902.00,93.77
2901.00,93.75
2900.00,93.73
2899.00,93.73
2898.00,93.73
2897.00,93.73
2896.00,93.72
2895.00,93.71
2894.00,93.69
2893.00,93.67
2892.00,93.64
2891.00,93.62
2890.00,93.61
2889.00,93.62
2888.00,93.63
2887.00,93.64
2886.00,93.66
2885.00,93.68
2884.00,93.70
2883.00,93.73
2882.00,93.75
2881.00,93.76
2880.00,93.77
2879.00,93.78
2878.00,93.80
2877.00,93.83
2876.00,93.85
2875.00,93.87
2874.00,93.89
2873.00,93.92
2872.00,93.96
2871.00,94.00
2870.00,94.04
2869.00,94.08
2868.00,94.11
2867.00,94.16
2866.00,94.20
2865.00,94.25
2864.00,94.29
2863.00,94.32
2862.00,94.35
2861.00,94.39
2860.00,94.43
2859.00,94.49
2858.00,94.55
2857.00,94.60
2856.00,94.63
2855.00,94.66
2854.00,94.68
2853.00,94.72
2852.00,94.76
2851.00,94.80
2850.00,94.85
2849.00,94.90
2848.00,94.95
2847.00,95.01
2846.00,95.07
2845.00,95.13
2844.00,95.18
2843.00,95.21
2842.00,95.25
2841.00,95.28
2840.00,95.32
2839.00,95.35
2838.00,95.37
2837.00,95.38
2836.00,95.40
2835.00,95.42
2834.00,95.46
2833.00,95.50
2832.00,95.53
2831.00,95.55
2830.00,95.58
2829.00,95.60
2828.00,95.62
2827.00,95.63
2826.00,95.65
2825.00,95.67
2824.00,95.69
2823.00,95.72
2822.00,95.74
2821.00,95.75
2820.00,95.77
2819.00,95.78
2818.00,95.80
2817.00,95.82
2816.00,95.83
2815.00,95.84
2814.00,95.84
2813.00,95.84
2812.00,95.85
2811.00,95.86
2810.00,95.89
2809.00,95.90
2808.00,95.92
2807.00,95.93
2806.00,95.94
2805.00,95.95
2804.00,95.97
2803.00,95.99
2802.00,96.00
2801.00,96.02
2800.00,96.05
2799.00,96.07
2798.00,96.09
2797.00,96.10
2796.00,96.11
2795.00,96.11
2794.00,96.12
2793.00,96.14
2792.00,96.16
2791.00,96.18
2790.00,96.19
2789.00,96.20
2788.00,96.21
2787.00,96.22
2786.00,96.23
2785.00,96.24
2784.00,96.25
2783.00,96.26
2782.00,96.25
2781.00,96.25
2780.00,96.25
2779.00,96.26
2778.00,96.27
2777.00,96.29
2776.00,96.32
2775.00,96.34
2774.00,96.36
2773.00,96.37
2772.00,96.38
2771.00,96.38
2770.00,96.38
2769.00,96.38
2768.00,96.38
2767.00,96.39
2766.00,96.39
2765.00,96.39
2764.00,96.40
2763.00,96.41
2762.00,96.42
2761.00,96.43
2760.00,96.43
2759.00,96.44
2758.00,96.45
2757.00,96.46
2756.00,96.46
2755.00,96.46
2754.00,96.44
2753.00,96.43
2752.00,96.43
2751.00,96.44
2750.00,96.45
2749.00,96.46
2748.00,96.45
2747.00,96.45
2746.00,96.46
2745.00,96.46
2744.00,96.45
2743.00,96.45
2742.00,96.46
2741.00,96.48
2740.00,96.49
2739.00,96.50
2738.00,96.50
2737.00,96.50
2736.00,96.50
2735.00,96.51
2734.00,96.51
2733.00,96.52
2732.00,96.52
2731.00,96.52
2730.00,96.53
2729.00,96.53
2728.00,96.54
2727.00,96.54
2726.00,96.54
2725.00,96.54
2724.00,96.54
2723.00,96.54
2722.00,96.54
2721.00,96.55
2720.00,96.55
2719.00,96.55
2718.00,96.56
2717.00,96.57
2716.00,96.58
2715.00,96.58
2714.00,96.59
2713.00,96.59
2712.00,96.59
2711.00,96.60
2710.00,96.61
2709.00,96.62
2708.00,96.63
2707.00,96.64
2706.00,96.65
2705.00,96.66
2704.00,96.67
2703.00,96.68
2702.00,96.68
2701.00,96.68
2700.00,96.69
2699.00,96.71
2698.00,96.72
2697.00,96.73
2696.00,96.74
2695.00,96.75
2694.00,96.75
2693.00,96.75
2692.00,96.75
2691.00,96.75
2690.00,96.75
2689.00,96.75
2688.00,96.76
2687.00,96.76
2686.00,96.76
2685.00,96.77
2684.00,96.77
2683.00,96.77
2682.00,96.77
2681.00,96.76
2680.00,96.76
2679.00,96.75
2678.00,96.76
2677.00,96.78
2676.00,96.79
2675.00,96.80
2674.00,96.80
2673.00,96.80
2672.00,96.81
2671.00,96.82
2670.00,96.83
2669.00,96.84
2668.00,96.85
2667.00,96.87
2666.00,96.88
2665.00,96.88
2664.00,96.88
2663.00,96.88
2662.00,96.88
2661.00,96.87
2660.00,96.87
2659.00,96.87
2658.00,96.87
2657.00,96.86
2656.00,96.84
2655.00,96.82
2654.00,96.81
2653.00,96.80
2652.00,96.80
2651.00,96.80
2650.00,96.82
2649.00,96.83
2648.00,96.84
2647.00,96.84
2646.00,96.83
2645.00,96.82
2644.00,96.81
2643.00,96.82
2642.00,96.82
2641.00,96.82
2640.00,96.82
2639.00,96.83
2638.00,96.83
2637.00,96.83
2636.00,96.83
2635.00,96.84
2634.00,96.85
2633.00,96.86
2632.00,96.86
2631.00,96.86
2630.00,96.85
2629.00,96.86
2628.00,96.87
2627.00,96.87
2626.00,96.86
2625.00,96.84
2624.00,96.84
2623.00,96.85
2622.00,96.86
2621.00,96.87
2620.00,96.86
2619.00,96.85
2618.00,96.83
2617.00,96.82
2616.00,96.82
2615.00,96.83
2614.00,96.85
2613.00,96.87
2612.00,96.87
2611.00,96.86
2610.00,96.84
2609.00,96.83
2608.00,96.84
2607.00,96.86
2606.00,96.87
2605.00,96.88
2604.00,96.87
2603.00,96.86
2602.00,96.84
2601.00,96.82
2600.00,96.82
2599.00,96.82
2598.00,96.82
2597.00,96.83
2596.00,96.84
2595.00,96.84
2594.00,96.82
2593.00,96.79
2592.00,96.77
2591.00,96.77
2590.00,96.79
2589.00,96.81
2588.00,96.83
2587.00,96.84
2586.00,96.85
2585.00,96.85
2584.00,96.86
2583.00,96.88
2582.00,96.89
2581.00,96.89
2580.00,96.87
2579.00,96.85
2578.00,96.84
2577.00,96.84
2576.00,96.85
2575.00,96.85
2574.00,96.84
2573.00,96.83
2572.00,96.83
2571.00,96.82
2570.00,96.81
2569.00,96.80
2568.00,96.79
2567.00,96.80
2566.00,96.82
2565.00,96.85
2564.00,96.87
2563.00,96.87
2562.00,96.87
2561.00,96.85
2560.00,96.84
2559.00,96.82
2558.00,96.82
2557.00,96.83
2556.00,96.83
2555.00,96.82
2554.00,96.81
2553.00,96.82
2552.00,96.83
2551.00,96.85
2550.00,96.86
2549.00,96.86
2548.00,96.85
2547.00,96.84
2546.00,96.84
2545.00,96.85
2544.00,96.86
2543.00,96.86
2542.00,96.86
2541.00,96.85
2540.00,96.85
2539.00,96.85
2538.00,96.86
2537.00,96.86
2536.00,96.85
2535.00,96.85
2534.00,96.86
2533.00,96.86
2532.00,96.87
2531.00,96.87
2530.00,96.86
2529.00,96.86
2528.00,96.86
2527.00,96.86
2526.00,96.86
2525.00,96.86
2524.00,96.85
2523.00,96.82
2522.00,96.80
2521.00,96.79
2520.00,96.78
2519.00,96.78
2518.00,96.78
2517.00,96.78
2516.00,96.78
2515.00,96.80
2514.00,96.83
2513.00,96.86
2512.00,96.88
2511.00,96.90
2510.00,96.90
2509.00,96.90
2508.00,96.90
2507.00,96.91
2506.00,96.92
2505.00,96.94
2504.00,96.95
2503.00,96.96
2502.00,96.95
2501.00,96.94
2500.00,96.92
2499.00,96.90
2498.00,96.90
2497.00,96.91
2496.00,96.93
2495.00,96.94
2494.00,96.95
2493.00,96.94
2492.00,96.93
2491.00,96.92
2490.00,96.91
2489.00,96.90
2488.00,96.90
2487.00,96.91
2486.00,96.94
2485.00,96.97
2484.00,96.98
2483.00,96.98
2482.00,96.98
2481.00,96.98
2480.00,96.98
2479.00,96.98
2478.00,96.98
2477.00,96.97
2476.00,96.97
2475.00,96.96
2474.00,96.95
2473.00,96.96
2472.00,96.98
2471.00,97.01
2470.00,97.03
2469.00,97.03
2468.00,97.01
2467.00,96.98
2466.00,96.96
2465.00,96.96
2464.00,96.97
2463.00,96.97
2462.00,96.96
2461.00,96.95
2460.00,96.94
2459.00,96.93
2458.00,96.94
2457.00,96.95
2456.00,96.96
2455.00,96.98
2454.00,97.00
2453.00,97.00
2452.00,97.00
2451.00,96.97
2450.00,96.95
2449.00,96.95
2448.00,96.97
2447.00,97.00
2446.00,97.01
2445.00,97.02
2444.00,97.02
2443.00,97.01
2442.00,97.01
2441.00,97.02
2440.00,97.04
2439.00,97.06
2438.00,97.08
2437.00,97.09
2436.00,97.10
2435.00,97.11
2434.00,97.12
2433.00,97.12
2432.00,97.12
2431.00,97.11
2430.00,97.10
2429.00,97.11
2428.00,97.13
2427.00,97.15
2426.00,97.17
2425.00,97.16
2424.00,97.15
2423.00,97.14
2422.00,97.14
2421.00,97.14
2420.00,97.14
2419.00,97.15
2418.00,97.15
2417.00,97.16
2416.00,97.17
2415.00,97.17
2414.00,97.17
2413.00,97.17
2412.00,97.17
2411.00,97.19
2410.00,97.20
2409.00,97.22
2408.00,97.23
2407.00,97.25
2406.00,97.26
2405.00,97.25
2404.00,97.23
2403.00,97.21
2402.00,97.20
2401.00,97.22
2400.00,97.25
2399.00,97.28
2398.00,97.30
2397.00,97.32
2396.00,97.33
2395.00,97.34
2394.00,97.35
2393.00,97.34
2392.00,97.32
2391.00,97.31
2390.00,97.30
2389.00,97.30
2388.00,97.31
2387.00,97.34
2386.00,97.39
2385.00,97.43
2384.00,97.46
2383.00,97.47
2382.00,97.47
2381.00,97.47
2380.00,97.47
2379.00,97.48
2378.00,97.49
2377.00,97.51
2376.00,97.52
2375.00,97.53
2374.00,97.52
2373.00,97.52
2372.00,97.54
2371.00,97.56
2370.00,97.57
2369.00,97.56
2368.00,97.54
2367.00,97.55
2366.00,97.57
2365.00,97.59
2364.00,97.62
2363.00,97.66
2362.00,97.69
2361.00,97.70
2360.00,97.67
2359.00,97.59
2358.00,97.50
2357.00,97.44
2356.00,97.45
2355.00,97.54
2354.00,97.64
2353.00,97.69
2352.00,97.66
2351.00,97.61
2350.00,97.57
2349.00,97.58
2348.00,97.65
2347.00,97.75
2346.00,97.82
2345.00,97.82
2344.00,97.75
2343.00,97.67
2342.00,97.62
2341.00,97.61
2340.00,97.61
2339.00,97.61
2338.00,97.60
2337.00,97.59
2336.00,97.60
2335.00,97.61
2334.00,97.62
2333.00,97.62
2332.00,97.62
2331.00,97.64
2330.00,97.66
2329.00,97.67
2328.00,97.65
2327.00,97.62
2326.00,97.57
2325.00,97.49
2324.00,97.41
2323.00,97.34
2322.00,97.29
2321.00,97.27
2320.00,97.29
2319.00,97.33
2318.00,97.38
2317.00,97.40
2316.00,97.40
2315.00,97.40
2314.00,97.40
2313.00,97.40
2312.00,97.39
2311.00,97.36
2310.00,97.33
2309.00,97.29
2308.00,97.26
2307.00,97.25
2306.00,97.26
2305.00,97.29
2304.00,97.32
2303.00,97.33
2302.00,97.31
2301.00,97.28
2300.00,97.25
2299.00,97.23
2298.00,97.23
2297.00,97.23
2296.00,97.23
2295.00,97.23
2294.00,97.21
2293.00,97.19
2292.00,97.16
2291.00,97.14
2290.00,97.12
2289.00,97.08
2288.00,97.04
2287.00,97.00
2286.00,96.97
2285.00,96.95
2284.00,96.94
2283.00,96.92
2282.00,96.90
2281.00,96.90
2280.00,96.92
2279.00,96.93
2278.00,96.92
2277.00,96.89
2276.00,96.86
2275.00,96.83
2274.00,96.83
2273.00,96.83
2272.00,96.83
2271.00,96.80
2270.00,96.75
2269.00,96.72
2268.00,96.73
2267.00,96.75
2266.00,96.76
2265.00,96.74
2264.00,96.72
2263.00,96.72
2262.00,96.72
2261.00,96.72
2260.00,96.71
2259.00,96.68
2258.00,96.66
2257.00,96.65
2256.00,96.66
2255.00,96.68
2254.00,96.69
2253.00,96.68
2252.00,96.68
2251.00,96.67
2250.00,96.67
2249.00,96.66
2248.00,96.64
2247.00,96.63
2246.00,96.63
2245.00,96.63
2244.00,96.64
2243.00,96.63
2242.00,96.62
2241.00,96.62
2240.00,96.64
2239.00,96.66
2238.00,96.68
2237.00,96.68
2236.00,96.65
2235.00,96.61
2234.00,96.57
2233.00,96.53
2232.00,96.51
2231.00,96.49
2230.00,96.47
2229.00,96.44
2228.00,96.42
2227.00,96.41
2226.00,96.39
2225.00,96.38
2224.00,96.36
2223.00,96.35
2222.00,96.37
2221.00,96.38
2220.00,96.39
2219.00,96.37
2218.00,96.35
2217.00,96.33
2216.00,96.35
2215.00,96.38
2214.00,96.39
2213.00,96.36
2212.00,96.31
2211.00,96.27
2210.00,96.25
2209.00,96.26
2208.00,96.27
2207.00,96.27
2206.00,96.26
2205.00,96.25
2204.00,96.24
2203.00,96.21
2202.00,96.18
2201.00,96.16
2200.00,96.16
2199.00,96.17
2198.00,96.16
2197.00,96.13
2196.00,96.12
2195.00,96.14
2194.00,96.16
2193.00,96.14
2192.00,96.09
2191.00,96.04
2190.00,96.00
2189.00,95.97
2188.00,95.94
2187.00,95.91
2186.00,95.88
2185.00,95.86
2184.00,95.88
2183.00,95.94
2182.00,96.02
2181.00,96.06
2180.00,96.05
2179.00,96.01
2178.00,95.99
2177.00,96.00
2176.00,96.04
2175.00,96.08
2174.00,96.12
2173.00,96.12
2172.00,96.09
2171.00,96.01
2170.00,95.91
2169.00,95.83
2168.00,95.78
2167.00,95.77
2166.00,95.75
2165.00,95.73
2164.00,95.69
2163.00,95.65
2162.00,95.60
2161.00,95.58
2160.00,95.59
2159.00,95.65
2158.00,95.74
2157.00,95.83
2156.00,95.91
2155.00,95.98
2154.00,96.04
2153.00,96.08
2152.00,96.11
2151.00,96.13
2150.00,96.15
2149.00,96.18
2148.00,96.21
2147.00,96.24
2146.00,96.28
2145.00,96.32
2144.00,96.36
2143.00,96.39
2142.00,96.40
2141.00,96.40
2140.00,96.38
2139.00,96.38
2138.00,96.39
2137.00,96.43
2136.00,96.49
2135.00,96.54
2134.00,96.58
2133.00,96.60
2132.00,96.63
2131.00,96.67
2130.00,96.72
2129.00,96.76
2128.00,96.75
2127.00,96.72
2126.00,96.66
2125.00,96.62
2124.00,96.59
2123.00,96.60
2122.00,96.63
2121.00,96.66
2120.00,96.67
2119.00,96.66
2118.00,96.65
2117.00,96.64
2116.00,96.65
2115.00,96.65
2114.00,96.65
2113.00,96.64
2112.00,96.63
2111.00,96.63
2110.00,96.65
2109.00,96.67
2108.00,96.69
2107.00,96.69
2106.00,96.68
2105.00,96.65
2104.00,96.61
2103.00,96.57
2102.00,96.56
2101.00,96.58
2100.00,96.61
2099.00,96.63
2098.00,96.63
2097.00,96.62
2096.00,96.60
2095.00,96.60
2094.00,96.60
2093.00,96.60
2092.00,96.61
2091.00,96.63
2090.00,96.65
2089.00,96.64
2088.00,96.61
2087.00,96.57
2086.00,96.53
2085.00,96.51
2084.00,96.52
2083.00,96.56
2082.00,96.60
2081.00,96.62
2080.00,96.61
2079.00,96.59
2078.00,96.56
2077.00,96.58
2076.00,96.62
2075.00,96.66
2074.00,96.67
2073.00,96.64
2072.00,96.59
2071.00,96.55
2070.00,96.53
2069.00,96.51
2068.00,96.50
2067.00,96.49
2066.00,96.51
2065.00,96.56
2064.00,96.62
2063.00,96.67
2062.00,96.69
2061.00,96.68
2060.00,96.63
2059.00,96.56
2058.00,96.48
2057.00,96.40
2056.00,96.36
2055.00,96.35
2054.00,96.36
2053.00,96.34
2052.00,96.28
2051.00,96.22
2050.00,96.19
2049.00,96.18
2048.00,96.17
2047.00,96.14
2046.00,96.08
2045.00,96.04
2044.00,96.02
2043.00,96.03
2042.00,96.04
2041.00,96.04
2040.00,96.03
2039.00,96.00
2038.00,95.97
2037.00,95.97
2036.00,96.00
2035.00,96.04
2034.00,96.04
2033.00,96.03
2032.00,96.01
2031.00,96.01
2030.00,96.00
2029.00,95.98
2028.00,95.94
2027.00,95.93
2026.00,95.95
2025.00,96.01
2024.00,96.07
2023.00,96.13
2022.00,96.17
2021.00,96.19
2020.00,96.20
2019.00,96.21
2018.00,96.19
2017.00,96.15
2016.00,96.12
2015.00,96.13
2014.00,96.19
2013.00,96.25
2012.00,96.29
2011.00,96.29
2010.00,96.28
2009.00,96.27
2008.00,96.29
2007.00,96.33
2006.00,96.37
2005.00,96.37
2004.00,96.33
2003.00,96.30
2002.00,96.31
2001.00,96.34
2000.00,96.38
1999.00,96.39
1998.00,96.39
1997.00,96.38
1996.00,96.39
1995.00,96.41
1994.00,96.43
1993.00,96.44
1992.00,96.41
1991.00,96.35
1990.00,96.31
1989.00,96.31
1988.00,96.32
1987.00,96.30
1986.00,96.26
1985.00,96.21
1984.00,96.18
1983.00,96.15
1982.00,96.09
1981.00,96.02
1980.00,95.98
1979.00,96.00
1978.00,96.07
1977.00,96.17
1976.00,96.26
1975.00,96.33
1974.00,96.38
1973.00,96.40
1972.00,96.39
1971.00,96.36
1970.00,96.33
1969.00,96.31
1968.00,96.31
1967.00,96.32
1966.00,96.34
1965.00,96.35
1964.00,96.37
1963.00,96.42
1962.00,96.48
1961.00,96.54
1960.00,96.59
1959.00,96.63
1958.00,96.66
1957.00,96.71
1956.00,96.77
1955.00,96.81
1954.00,96.81
1953.00,96.78
1952.00,96.76
1951.00,96.78
1950.00,96.82
1949.00,96.85
1948.00,96.86
1947.00,96.85
1946.00,96.84
1945.00,96.86
1944.00,96.88
1943.00,96.88
1942.00,96.87
1941.00,96.86
1940.00,96.87
1939.00,96.89
1938.00,96.91
1937.00,96.92
1936.00,96.93
1935.00,96.94
1934.00,96.97
1933.00,97.00
1932.00,97.02
1931.00,97.03
1930.00,97.02
1929.00,97.02
1928.00,97.03
1927.00,97.04
1926.00,97.05
1925.00,97.08
1924.00,97.10
1923.00,97.12
1922.00,97.11
1921.00,97.08
1920.00,97.06
1919.00,97.07
1918.00,97.09
1917.00,97.13
1916.00,97.16
1915.00,97.18
1914.00,97.19
1913.00,97.19
1912.00,97.19
1911.00,97.19
1910.00,97.19
1909.00,97.20
1908.00,97.20
1907.00,97.19
1906.00,97.17
1905.00,97.17
1904.00,97.17
1903.00,97.20
1902.00,97.22
1901.00,97.22
1900.00,97.21
1899.00,97.20
1898.00,97.19
1897.00,97.20
1896.00,97.21
1895.00,97.22
1894.00,97.24
1893.00,97.26
1892.00,97.29
1891.00,97.31
1890.00,97.33
1889.00,97.34
1888.00,97.36
1887.00,97.38
1886.00,97.39
1885.00,97.39
1884.00,97.39
1883.00,97.38
1882.00,97.36
1881.00,97.33
1880.00,97.30
1879.00,97.29
1878.00,97.29
1877.00,97.30
1876.00,97.33
1875.00,97.36
1874.00,97.39
1873.00,97.41
1872.00,97.42
1871.00,97.42
1870.00,97.42
1869.00,97.40
1868.00,97.39
1867.00,97.40
1866.00,97.41
1865.00,97.43
1864.00,97.43
1863.00,97.42
1862.00,97.41
1861.00,97.41
1860.00,97.41
1859.00,97.43
1858.00,97.45
1857.00,97.46
1856.00,97.46
1855.00,97.44
1854.00,97.44
1853.00,97.46
1852.00,97.48
1851.00,97.49
1850.00,97.49
1849.00,97.49
1848.00,97.50
1847.00,97.52
1846.00,97.53
1845.00,97.52
1844.00,97.52
1843.00,97.53
1842.00,97.54
1841.00,97.54
1840.00,97.54
1839.00,97.54
1838.00,97.55
1837.00,97.57
1836.00,97.58
1835.00,97.57
1834.00,97.56
1833.00,97.55
1832.00,97.54
1831.00,97.54
1830.00,97.54
1829.00,97.53
1828.00,97.52
1827.00,97.51
1826.00,97.52
1825.00,97.53
1824.00,97.52
1823.00,97.51
1822.00,97.50
1821.00,97.51
1820.00,97.53
1819.00,97.56
1818.00,97.58
1817.00,97.59
1816.00,97.58
1815.00,97.57
1814.00,97.58
1813.00,97.58
1812.00,97.58
1811.00,97.58
1810.00,97.57
1809.00,97.58
1808.00,97.58
1807.00,97.59
1806.00,97.60
1805.00,97.61
1804.00,97.63
1803.00,97.64
1802.00,97.64
1801.00,97.63
1800.00,97.63
1799.00,97.63
1798.00,97.64
1797.00,97.65
1796.00,97.64
1795.00,97.63
1794.00,97.61
1793.00,97.60
1792.00,97.62
1791.00,97.63
1790.00,97.64
1789.00,97.62
1788.00,97.61
1787.00,97.60
1786.00,97.61
1785.00,97.61
1784.00,97.61
1783.00,97.61
1782.00,97.60
1781.00,97.58
1780.00,97.58
1779.00,97.58
1778.00,97.60
1777.00,97.62
1776.00,97.62
1775.00,97.62
1774.00,97.63
1773.00,97.64
1772.00,97.65
1771.00,97.64
1770.00,97.62
1769.00,97.62
1768.00,97.61
1767.00,97.61
1766.00,97.61
1765.00,97.60
1764.00,97.60
1763.00,97.59
1762.00,97.60
1761.00,97.62
1760.00,97.63
1759.00,97.64
1758.00,97.64
1757.00,97.64
1756.00,97.63
1755.00,97.63
1754.00,97.63
1753.00,97.63
1752.00,97.63
1751.00,97.62
1750.00,97.59
1749.00,97.56
1748.00,97.54
1747.00,97.56
1746.00,97.58
1745.00,97.59
1744.00,97.58
1743.00,97.55
1742.00,97.53
1741.00,97.52
1740.00,97.54
1739.00,97.55
1738.00,97.56
1737.00,97.56
1736.00,97.56
1735.00,97.56
1734.00,97.57
1733.00,97.55
1732.00,97.53
1731.00,97.52
1730.00,97.51
1729.00,97.52
1728.00,97.52
1727.00,97.53
1726.00,97.53
1725.00,97.52
1724.00,97.51
1723.00,97.49
1722.00,97.48
1721.00,97.47
1720.00,97.46
1719.00,97.48
1718.00,97.50
1717.00,97.49
1716.00,97.46
1715.00,97.44
1714.00,97.43
1713.00,97.43
1712.00,97.42
1711.00,97.41
1710.00,97.40
1709.00,97.37
1708.00,97.34
1707.00,97.30
1706.00,97.29
1705.00,97.28
1704.00,97.28
1703.00,97.27
1702.00,97.24
1701.00,97.22
1700.00,97.21
1699.00,97.21
1698.00,97.20
1697.00,97.18
1696.00,97.16
1695.00,97.14
1694.00,97.12
1693.00,97.08
1692.00,97.06
1691.00,97.05
1690.00,97.05
1689.00,97.04
1688.00,97.02
1687.00,97.00
1686.00,96.97
1685.00,96.94
1684.00,96.89
1683.00,96.85
1682.00,96.80
1681.00,96.75
1680.00,96.70
1679.00,96.65
1678.00,96.60
1677.00,96.55
1676.00,96.48
1675.00,96.42
1674.00,96.37
1673.00,96.33
1672.00,96.29
1671.00,96.23
1670.00,96.18
1669.00,96.13
1668.00,96.08
1667.00,96.04
1666.00,96.01
1665.00,95.98
1664.00,95.95
1663.00,95.94
1662.00,95.93
1661.00,95.92
1660.00,95.90
1659.00,95.87
1658.00,95.86
1657.00,95.85
1656.00,95.85
1655.00,95.82
1654.00,95.77
1653.00,95.70
1652.00,95.67
1651.00,95.65
1650.00,95.64
1649.00,95.64
1648.00,95.64
1647.00,95.63
1646.00,95.62
1645.00,95.60
1644.00,95.58
1643.00,95.57
1642.00,95.57
1641.00,95.56
1640.00,95.55
1639.00,95.54
1638.00,95.54
1637.00,95.53
1636.00,95.54
1635.00,95.58
1634.00,95.63
1633.00,95.67
1632.00,95.68
1631.00,95.68
1630.00,95.69
1629.00,95.71
1628.00,95.74
1627.00,95.78
1626.00,95.80
1625.00,95.82
1624.00,95.83
1623.00,95.85
1622.00,95.90
1621.00,95.95
1620.00,95.99
1619.00,96.01
1618.00,96.02
1617.00,96.04
1616.00,96.06
1615.00,96.08
1614.00,96.10
1613.00,96.13
1612.00,96.16
1611.00,96.19
1610.00,96.22
1609.00,96.26
1608.00,96.28
1607.00,96.31
1606.00,96.35
1605.00,96.39
1604.00,96.42
1603.00,96.45
1602.00,96.46
1601.00,96.48
1600.00,96.50
1599.00,96.52
1598.00,96.53
1597.00,96.55
1596.00,96.57
1595.00,96.59
1594.00,96.61
1593.00,96.62
1592.00,96.62
1591.00,96.63
1590.00,96.64
1589.00,96.66
1588.00,96.69
1587.00,96.72
1586.00,96.74
1585.00,96.76
1584.00,96.77
1583.00,96.78
1582.00,96.80
1581.00,96.82
1580.00,96.84
1579.00,96.87
1578.00,96.90
1577.00,96.93
1576.00,96.96
1575.00,96.96
1574.00,96.96
1573.00,96.96
1572.00,96.95
1571.00,96.95
1570.00,96.97
1569.00,97.00
1568.00,97.03
1567.00,97.06
1566.00,97.07
1565.00,97.09
1564.00,97.11
1563.00,97.13
1562.00,97.15
1561.00,97.13
1560.00,97.11
1559.00,97.10
1558.00,97.12
1557.00,97.16
1556.00,97.19
1555.00,97.20
1554.00,97.22
1553.00,97.24
1552.00,97.25
1551.00,97.25
1550.00,97.25
1549.00,97.25
1548.00,97.25
1547.00,97.26
1546.00,97.28
1545.00,97.29
1544.00,97.30
1543.00,97.30
1542.00,97.30
1541.00,97.29
1540.00,97.27
1539.00,97.26
1538.00,97.27
1537.00,97.28
1536.00,97.28
1535.00,97.27
1534.00,97.27
1533.00,97.28
1532.00,97.29
1531.00,97.30
1530.00,97.30
1529.00,97.30
1528.00,97.30
1527.00,97.31
1526.00,97.32
1525.00,97.32
1524.00,97.32
1523.00,97.31
1522.00,97.29
1521.00,97.28
1520.00,97.28
1519.00,97.29
1518.00,97.30
1517.00,97.31
1516.00,97.31
1515.00,97.29
1514.00,97.27
1513.00,97.24
1512.00,97.20
1511.00,97.16
1510.00,97.12
1509.00,97.10
1508.00,97.08
1507.00,97.08
1506.00,97.08
1505.00,97.07
1504.00,97.05
1503.00,97.02
1502.00,96.99
1501.00,96.95
1500.00,96.90
1499.00,96.86
1498.00,96.83
1497.00,96.80
1496.00,96.76
1495.00,96.72
1494.00,96.68
1493.00,96.65
1492.00,96.63
1491.00,96.61
1490.00,96.58
1489.00,96.54
1488.00,96.49
1487.00,96.45
1486.00,96.40
1485.00,96.34
1484.00,96.28
1483.00,96.22
1482.00,96.16
1481.00,96.09
1480.00,96.03
1479.00,95.97
1478.00,95.91
1477.00,95.84
1476.00,95.76
1475.00,95.69
1474.00,95.61
1473.00,95.50
1472.00,95.37
1471.00,95.27
1470.00,95.21
1469.00,95.17
1468.00,95.14
1467.00,95.08
1466.00,95.01
1465.00,94.93
1464.00,94.87
1463.00,94.84
1462.00,94.82
1461.00,94.81
1460.00,94.81
1459.00,94.80
1458.00,94.77
1457.00,94.71
1456.00,94.63
1455.00,94.56
1454.00,94.49
1453.00,94.43
1452.00,94.37
1451.00,94.33
1450.00,94.29
1449.00,94.26
1448.00,94.23
1447.00,94.18
1446.00,94.14
1445.00,94.10
1444.00,94.05
1443.00,94.01
1442.00,93.97
1441.00,93.95
1440.00,93.94
1439.00,93.93
1438.00,93.91
1437.00,93.87
1436.00,93.83
1435.00,93.80
1434.00,93.78
1433.00,93.76
1432.00,93.74
1431.00,93.72
1430.00,93.71
1429.00,93.70
1428.00,93.68
1427.00,93.65
1426.00,93.62
1425.00,93.59
1424.00,93.55
1423.00,93.53
1422.00,93.52
1421.00,93.51
1420.00,93.52
1419.00,93.52
1418.00,93.52
1417.00,93.53
1416.00,93.55
1415.00,93.58
1414.00,93.60
1413.00,93.61
1412.00,93.62
1411.00,93.63
1410.00,93.64
1409.00,93.65
1408.00,93.68
1407.00,93.70
1406.00,93.72
1405.00,93.73
1404.00,93.72
1403.00,93.71
1402.00,93.72
1401.00,93.74
1400.00,93.75
1399.00,93.74
1398.00,93.73
1397.00,93.71
1396.00,93.69
1395.00,93.67
1394.00,93.65
1393.00,93.63
1392.00,93.59
1391.00,93.55
1390.00,93.51
1389.00,93.47
1388.00,93.41
1387.00,93.32
1386.00,93.22
1385.00,93.10
1384.00,92.98
1383.00,92.86
1382.00,92.73
1381.00,92.60
1380.00,92.48
1379.00,92.35
1378.00,92.22
1377.00,92.11
1376.00,92.02
1375.00,91.94
1374.00,91.86
1373.00,91.80
1372.00,91.74
1371.00,91.69
1370.00,91.64
1369.00,91.61
1368.00,91.59
1367.00,91.59
1366.00,91.60
1365.00,91.62
1364.00,91.66
1363.00,91.70
1362.00,91.76
1361.00,91.81
1360.00,91.86
1359.00,91.92
1358.00,91.98
1357.00,92.04
1356.00,92.11
1355.00,92.16
1354.00,92.22
1353.00,92.28
1352.00,92.33
1351.00,92.36
1350.00,92.38
1349.00,92.38
1348.00,92.38
1347.00,92.38
1346.00,92.37
1345.00,92.35
1344.00,92.32
1343.00,92.30
1342.00,92.29
1341.00,92.27
1340.00,92.23
1339.00,92.16
1338.00,92.08
1337.00,92.01
1336.00,91.97
1335.00,91.95
1334.00,91.95
1333.00,91.97
1332.00,92.00
1331.00,92.03
1330.00,92.06
1329.00,92.09
1328.00,92.12
1327.00,92.13
1326.00,92.14
1325.00,92.14
1324.00,92.12
1323.00,92.09
1322.00,92.05
1321.00,91.99
1320.00,91.92
1319.00,91.84
1318.00,91.78
1317.00,91.73
1316.00,91.69
1315.00,91.67
1314.00,91.67
1313.00,91.68
1312.00,91.71
1311.00,91.77
1310.00,91.86
1309.00,91.95
1308.00,92.05
1307.00,92.14
1306.00,92.22
1305.00,92.30
1304.00,92.38
1303.00,92.47
1302.00,92.55
1301.00,92.63
1300.00,92.71
1299.00,92.79
1298.00,92.88
1297.00,92.97
1296.00,93.05
1295.00,93.12
1294.00,93.19
1293.00,93.25
1292.00,93.32
1291.00,93.40
1290.00,93.46
1289.00,93.51
1288.00,93.55
1287.00,93.58
1286.00,93.61
1285.00,93.63
1284.00,93.63
1283.00,93.61
1282.00,93.56
1281.00,93.51
1280.00,93.46
1279.00,93.42
1278.00,93.39
1277.00,93.37
1276.00,93.36
1275.00,93.37
1274.00,93.38
1273.00,93.39
1272.00,93.37
1271.00,93.33
1270.00,93.30
1269.00,93.27
1268.00,93.24
1267.00,93.23
1266.00,93.21
1265.00,93.19
1264.00,93.17
1263.00,93.17
1262.00,93.18
1261.00,93.20
1260.00,93.22
1259.00,93.25
1258.00,93.29
1257.00,93.34
1256.00,93.41
1255.00,93.47
1254.00,93.54
1253.00,93.61
1252.00,93.68
1251.00,93.73
1250.00,93.77
1249.00,93.80
1248.00,93.84
1247.00,93.87
1246.00,93.90
1245.00,93.91
1244.00,93.93
1243.00,93.94
1242.00,93.96
1241.00,93.96
1240.00,93.96
1239.00,93.94
1238.00,93.92
1237.00,93.90
1236.00,93.89
1235.00,93.90
1234.00,93.91
1233.00,93.92
1232.00,93.93
1231.00,93.95
1230.00,93.98
1229.00,94.02
1228.00,94.07
1227.00,94.12
1226.00,94.17
1225.00,94.24
1224.00,94.32
1223.00,94.43
1222.00,94.53
1221.00,94.63
1220.00,94.72
1219.00,94.79
1218.00,94.86
1217.00,94.92
1216.00,94.98
1215.00,95.01
1214.00,95.03
1213.00,95.04
1212.00,95.02
1211.00,94.97
1210.00,94.90
1209.00,94.82
1208.00,94.73
1207.00,94.65
1206.00,94.56
1205.00,94.47
1204.00,94.37
1203.00,94.28
1202.00,94.20
1201.00,94.15
1200.00,94.14
1199.00,94.17
1198.00,94.22
1197.00,94.28
1196.00,94.35
1195.00,94.45
1194.00,94.57
1193.00,94.69
1192.00,94.82
1191.00,94.96
1190.00,95.09
1189.00,95.20
1188.00,95.29
1187.00,95.35
1186.00,95.38
1185.00,95.39
1184.00,95.37
1183.00,95.33
1182.00,95.26
1181.00,95.18
1180.00,95.08
1179.00,94.96
1178.00,94.82
1177.00,94.66
1176.00,94.47
1175.00,94.26
1174.00,94.03
1173.00,93.79
1172.00,93.54
1171.00,93.25
1170.00,92.94
1169.00,92.59
1168.00,92.22
1167.00,91.86
1166.00,91.51
1165.00,91.18
1164.00,90.85
1163.00,90.52
1162.00,90.20
1161.00,89.90
1160.00,89.63
1159.00,89.42
1158.00,89.29
1157.00,89.25
1156.00,89.26
1155.00,89.30
1154.00,89.36
1153.00,89.44
1152.00,89.54
1151.00,89.69
1150.00,89.87
1149.00,90.06
1148.00,90.25
1147.00,90.43
1146.00,90.58
1145.00,90.71
1144.00,90.80
1143.00,90.87
1142.00,90.90
1141.00,90.89
1140.00,90.85
1139.00,90.80
1138.00,90.73
1137.00,90.62
1136.00,90.49
1135.00,90.34
1134.00,90.15
1133.00,89.95
1132.00,89.73
1131.00,89.52
1130.00,89.31
1129.00,89.07
1128.00,88.82
1127.00,88.54
1126.00,88.26
1125.00,87.98
1124.00,87.68
1123.00,87.39
1122.00,87.10
1121.00,86.84
1120.00,86.60
1119.00,86.38
1118.00,86.19
1117.00,86.01
1116.00,85.85
1115.00,85.70
1114.00,85.54
1113.00,85.37
1112.00,85.21
1111.00,85.09
1110.00,85.00
1109.00,84.92
1108.00,84.83
1107.00,84.73
1106.00,84.63
1105.00,84.51
1104.00,84.37
1103.00,84.18
1102.00,83.95
1101.00,83.70
1100.00,83.43
1099.00,83.19
1098.00,82.98
1097.00,82.78
1096.00,82.59
1095.00,82.41
1094.00,82.25
1093.00,82.10
1092.00,81.94
1091.00,81.80
1090.00,81.67
1089.00,81.55
1088.00,81.42
1087.00,81.29
1086.00,81.14
1085.00,80.99
1084.00,80.84
1083.00,80.69
1082.00,80.53
1081.00,80.35
1080.00,80.16
1079.00,79.96
1078.00,79.75
1077.00,79.50
1076.00,79.21
1075.00,78.89
1074.00,78.59
1073.00,78.34
1072.00,78.14
1071.00,77.97
1070.00,77.80
1069.00,77.59
1068.00,77.35
1067.00,77.11
1066.00,76.88
1065.00,76.66
1064.00,76.43
1063.00,76.20
1062.00,75.99
1061.00,75.78
1060.00,75.59
1059.00,75.41
1058.00,75.23
1057.00,75.06
1056.00,74.92
1055.00,74.82
1054.00,74.73
1053.00,74.63
1052.00,74.51
1051.00,74.40
1050.00,74.32
1049.00,74.27
1048.00,74.21
1047.00,74.15
1046.00,74.08
1045.00,74.00
1044.00,73.93
1043.00,73.88
1042.00,73.83
1041.00,73.78
1040.00,73.71
1039.00,73.64
1038.00,73.55
1037.00,73.44
1036.00,73.32
1035.00,73.16
1034.00,72.99
1033.00,72.79
1032.00,72.58
1031.00,72.37
1030.00,72.16
1029.00,71.94
1028.00,71.72
1027.00,71.51
1026.00,71.31
1025.00,71.12
1024.00,70.96
1023.00,70.84
1022.00,70.74
1021.00,70.63
1020.00,70.52
1019.00,70.46
1018.00,70.44
1017.00,70.47
1016.00,70.53
1015.00,70.62
1014.00,70.75
1013.00,70.92
1012.00,71.10
1011.00,71.29
1010.00,71.49
1009.00,71.68
1008.00,71.87
1007.00,72.06
1006.00,72.22
1005.00,72.34
1004.00,72.41
1003.00,72.44
1002.00,72.42
1001.00,72.37
1000.00,72.30
999.00,72.24
998.00,72.20
997.00,72.17
996.00,72.13
995.00,72.12
994.00,72.15
993.00,72.23
992.00,72.36
991.00,72.55
990.00,72.79
989.00,73.06
988.00,73.39
987.00,73.76
986.00,74.18
985.00,74.62
984.00,75.09
983.00,75.58
982.00,76.06
981.00,76.54
980.00,77.01
979.00,77.48
978.00,77.92
977.00,78.35
976.00,78.75
975.00,79.11
974.00,79.44
973.00,79.73
972.00,80.00
971.00,80.25
970.00,80.49
969.00,80.71
968.00,80.92
967.00,81.13
966.00,81.34
965.00,81.54
964.00,81.71
963.00,81.87
962.00,82.04
961.00,82.23
960.00,82.45
959.00,82.70
958.00,82.98
957.00,83.26
956.00,83.52
955.00,83.76
954.00,83.99
953.00,84.21
952.00,84.43
951.00,84.64
950.00,84.85
949.00,85.06
948.00,85.26
947.00,85.44
946.00,85.63
945.00,85.80
944.00,85.97
943.00,86.13
942.00,86.29
941.00,86.42
940.00,86.55
939.00,86.68
938.00,86.81
937.00,86.92
936.00,87.02
935.00,87.09
934.00,87.16
933.00,87.23
932.00,87.31
931.00,87.41
930.00,87.51
929.00,87.60
928.00,87.68
927.00,87.75
926.00,87.81
925.00,87.88
924.00,87.97
923.00,88.07
922.00,88.16
921.00,88.25
920.00,88.34
919.00,88.43
918.00,88.49
917.00,88.52
916.00,88.52
915.00,88.51
914.00,88.48
913.00,88.44
912.00,88.38
911.00,88.29
910.00,88.18
909.00,88.06
908.00,87.92
907.00,87.78
906.00,87.62
905.00,87.44
904.00,87.23
903.00,87.00
902.00,86.78
901.00,86.60
900.00,86.45
899.00,86.31
898.00,86.18
897.00,86.04
896.00,85.93
895.00,85.85
894.00,85.83
893.00,85.86
892.00,85.94
891.00,86.08
890.00,86.26
889.00,86.46
888.00,86.67
887.00,86.88
886.00,87.11
885.00,87.37
884.00,87.63
883.00,87.88
882.00,88.12
881.00,88.32
880.00,88.52
879.00,88.71
878.00,88.88
877.00,89.02
876.00,89.13
875.00,89.23
874.00,89.32
873.00,89.44
872.00,89.57
871.00,89.71
870.00,89.84
869.00,89.93
868.00,89.97
867.00,90.00
866.00,90.02
865.00,90.04
864.00,90.07
863.00,90.13
862.00,90.21
861.00,90.29
860.00,90.35
859.00,90.37
858.00,90.37
857.00,90.36
856.00,90.36
855.00,90.39
854.00,90.43
853.00,90.46
852.00,90.48
851.00,90.50
850.00,90.52
849.00,90.55
848.00,90.57
847.00,90.59
846.00,90.60
845.00,90.60
844.00,90.59
843.00,90.59
842.00,90.60
841.00,90.63
840.00,90.66
839.00,90.68
838.00,90.68
837.00,90.65
836.00,90.59
835.00,90.51
834.00,90.45
833.00,90.42
832.00,90.42
831.00,90.44
830.00,90.46
829.00,90.48
828.00,90.49
827.00,90.49
826.00,90.48
825.00,90.47
824.00,90.45
823.00,90.43
822.00,90.39
821.00,90.34
820.00,90.27
819.00,90.20
818.00,90.14
817.00,90.10
816.00,90.08
815.00,90.05
814.00,90.02
813.00,90.00
812.00,90.00
811.00,90.02
810.00,90.04
809.00,90.03
808.00,90.01
807.00,89.98
806.00,89.95
805.00,89.93
804.00,89.91
803.00,89.88
802.00,89.86
801.00,89.86
800.00,89.88
799.00,89.90
798.00,89.89
797.00,89.86
796.00,89.82
795.00,89.80
794.00,89.77
793.00,89.74
792.00,89.70
791.00,89.70
790.00,89.70
789.00,89.70
788.00,89.68
787.00,89.65
786.00,89.63
785.00,89.59
784.00,89.54
783.00,89.48
782.00,89.42
781.00,89.37
780.00,89.33
779.00,89.31
778.00,89.28
777.00,89.23
776.00,89.18
775.00,89.14
774.00,89.10
773.00,89.06
772.00,89.00
771.00,88.95
770.00,88.94
769.00,88.96
768.00,88.97
767.00,88.94
766.00,88.86
765.00,88.76
764.00,88.67
763.00,88.63
762.00,88.61
761.00,88.61
760.00,88.60
759.00,88.58
758.00,88.53
757.00,88.43
756.00,88.30
755.00,88.18
754.00,88.13
753.00,88.12
752.00,88.13
751.00,88.11
750.00,88.08
749.00,88.05
748.00,88.02
747.00,88.00
746.00,87.98
745.00,87.97
744.00,87.97
743.00,87.96
742.00,87.93
741.00,87.85
740.00,87.75
739.00,87.65
738.00,87.61
737.00,87.61
736.00,87.63
735.00,87.62
734.00,87.57
733.00,87.49
732.00,87.41
731.00,87.34
730.00,87.28
729.00,87.22
728.00,87.15
727.00,87.06
726.00,86.92
725.00,86.75
724.00,86.54
723.00,86.28
722.00,86.01
721.00,85.76
720.00,85.62
719.00,85.63
718.00,85.74
717.00,85.87
716.00,85.96
715.00,86.00
714.00,86.00
713.00,85.98
712.00,85.92
711.00,85.86
710.00,85.80
709.00,85.77
708.00,85.77
707.00,85.78
706.00,85.76
705.00,85.72
704.00,85.69
703.00,85.70
702.00,85.74
701.00,85.79
700.00,85.82
699.00,85.82
698.00,85.80
697.00,85.76
696.00,85.71
695.00,85.67
694.00,85.64
693.00,85.61
692.00,85.61
691.00,85.61
690.00,85.60
689.00,85.55
688.00,85.47
687.00,85.40
686.00,85.35
685.00,85.32
684.00,85.26
683.00,85.17
682.00,85.03
681.00,84.85
680.00,84.62
679.00,84.33
678.00,84.01
677.00,83.66
676.00,83.30
675.00,82.95
674.00,82.59
673.00,82.21
672.00,81.83
671.00,81.46
670.00,81.10
669.00,80.69
668.00,80.28
667.00,80.09
666.00,80.17
665.00,80.34
664.00,80.47
663.00,80.56
662.00,80.58
661.00,80.57
660.00,80.56
659.00,80.59
658.00,80.63
657.00,80.61
656.00,80.55
655.00,80.52
654.00,80.58
653.00,80.70
652.00,80.79
651.00,80.82
650.00,80.81
649.00,80.76
648.00,80.69
647.00,80.59
646.00,80.47
645.00,80.38
644.00,80.37
643.00,80.46
642.00,80.57
641.00,80.57
640.00,80.45
639.00,80.27
638.00,80.15
637.00,80.17
636.00,80.28
635.00,80.40
634.00,80.44
633.00,80.34
632.00,80.14
631.00,79.94
630.00,79.84
629.00,79.88
628.00,80.02
627.00,80.10
626.00,80.01
625.00,79.79
624.00,79.59
623.00,79.47
622.00,79.35
621.00,79.07
620.00,78.69
619.00,78.42
618.00,78.39
617.00,78.57
616.00,78.77
615.00,78.85
614.00,78.74
613.00,78.50
612.00,78.21
611.00,77.97
610.00,77.77
609.00,77.56
608.00,77.41
607.00,77.33
606.00,77.27
605.00,77.17
604.00,77.12
603.00,77.24
602.00,77.48
601.00,77.67
600.00,77.68
599.00,77.54
598.00,77.32
597.00,77.07
596.00,76.84
595.00,76.65
594.00,76.50
593.00,76.37
592.00,76.31
591.00,76.38
590.00,76.52
589.00,76.57
588.00,76.51
587.00,76.49
586.00,76.57
585.00,76.67
584.00,76.64
583.00,76.45
582.00,76.17
581.00,75.98
580.00,76.15
579.00,76.78
578.00,77.53
577.00,77.91
576.00,77.74
575.00,77.30
574.00,76.81
573.00,76.34
572.00,75.97
571.00,75.96
570.00,76.34
569.00,76.77
568.00,76.95
567.00,76.88
566.00,76.70
565.00,76.44
564.00,76.14
563.00,75.96
562.00,75.90
561.00,75.73
560.00,75.30
559.00,74.83
558.00,74.56
557.00,74.49
556.00,74.43
555.00,74.30
554.00,74.14
553.00,74.04
552.00,74.17
551.00,74.70
550.00,75.49
