Created as New Dataset,193 FMC American Viscose
cm-1,%T
4000.00,96.04
3999.00,96.03
3998.00,96.02
3997.00,96.02
3996.00,96.02
3995.00,96.02
3994.00,96.03
3993.00,96.04
3992.00,96.04
3991.00,96.05
3990.00,96.05
3989.00,96.06
3988.00,96.08
3987.00,96.09
3986.00,96.10
3985.00,96.10
3984.00,96.09
3983.00,96.08
3982.00,96.08
3981.00,96.10
3980.00,96.11
3979.00,96.12
3978.00,96.11
3977.00,96.10
3976.00,96.09
3975.00,96.08
3974.00,96.07
3973.00,96.06
3972.00,96.06
3971.00,96.06
3970.00,96.06
3969.00,96.07
3968.00,96.07
3967.00,96.07
3966.00,96.05
3965.00,96.05
3964.00,96.05
3963.00,96.06
3962.00,96.07
3961.00,96.07
3960.00,96.07
3959.00,96.07
3958.00,96.09
3957.00,96.11
3956.00,96.13
3955.00,96.14
3954.00,96.14
3953.00,96.13
3952.00,96.12
3951.00,96.11
3950.00,96.10
3949.00,96.10
3948.00,96.11
3947.00,96.11
3946.00,96.11
3945.00,96.10
3944.00,96.09
3943.00,96.08
3942.00,96.07
3941.00,96.05
3940.00,96.04
3939.00,96.04
3938.00,96.04
3937.00,96.05
3936.00,96.05
3935.00,96.05
3934.00,96.04
3933.00,96.04
3932.00,96.05
3931.00,96.05
3930.00,96.05
3929.00,96.04
3928.00,96.04
3927.00,96.04
3926.00,96.04
3925.00,96.05
3924.00,96.06
3923.00,96.09
3922.00,96.11
3921.00,96.13
3920.00,96.13
3919.00,96.12
3918.00,96.12
3917.00,96.12
3916.00,96.12
3915.00,96.10
3914.00,96.09
3913.00,96.09
3912.00,96.09
3911.00,96.11
3910.00,96.12
3909.00,96.12
3908.00,96.12
3907.00,96.13
3906.00,96.14
3905.00,96.14
3904.00,96.14
3903.00,96.13
3902.00,96.12
3901.00,96.12
3900.00,96.11
3899.00,96.11
3898.00,96.10
3897.00,96.09
3896.00,96.09
3895.00,96.09
3894.00,96.11
3893.00,96.13
3892.00,96.16
3891.00,96.16
3890.00,96.15
3889.00,96.14
3888.00,96.14
3887.00,96.15
3886.00,96.15
3885.00,96.14
3884.00,96.12
3883.00,96.09
3882.00,96.08
3881.00,96.08
3880.00,96.09
3879.00,96.10
3878.00,96.12
3877.00,96.14
3876.00,96.16
3875.00,96.16
3874.00,96.14
3873.00,96.13
3872.00,96.12
3871.00,96.13
3870.00,96.15
3869.00,96.15
3868.00,96.14
3867.00,96.15
3866.00,96.15
3865.00,96.15
3864.00,96.14
3863.00,96.13
3862.00,96.12
3861.00,96.11
3860.00,96.10
3859.00,96.07
3858.00,96.04
3857.00,96.01
3856.00,96.00
3855.00,96.02
3854.00,96.06
3853.00,96.08
3852.00,96.09
3851.00,96.10
3850.00,96.11
3849.00,96.11
3848.00,96.11
3847.00,96.10
3846.00,96.09
3845.00,96.09
3844.00,96.08
3843.00,96.06
3842.00,96.04
3841.00,96.02
3840.00,96.02
3839.00,96.02
3838.00,96.02
3837.00,96.02
3836.00,96.02
3835.00,96.03
3834.00,96.03
3833.00,96.04
3832.00,96.04
3831.00,96.04
3830.00,96.05
3829.00,96.06
3828.00,96.08
3827.00,96.09
3826.00,96.08
3825.00,96.06
3824.00,96.04
3823.00,96.03
3822.00,96.02
3821.00,96.01
3820.00,95.99
3819.00,96.00
3818.00,96.03
3817.00,96.07
3816.00,96.09
3815.00,96.10
3814.00,96.10
3813.00,96.12
3812.00,96.14
3811.00,96.16
3810.00,96.16
3809.00,96.15
3808.00,96.13
3807.00,96.10
3806.00,96.06
3805.00,96.02
3804.00,96.00
3803.00,96.00
3802.00,96.01
3801.00,96.01
3800.00,96.02
3799.00,96.03
3798.00,96.04
3797.00,96.06
3796.00,96.07
3795.00,96.09
3794.00,96.10
3793.00,96.13
3792.00,96.14
3791.00,96.15
3790.00,96.15
3789.00,96.15
3788.00,96.14
3787.00,96.13
3786.00,96.12
3785.00,96.10
3784.00,96.07
3783.00,96.05
3782.00,96.03
3781.00,96.04
3780.00,96.05
3779.00,96.08
3778.00,96.09
3777.00,96.10
3776.00,96.09
3775.00,96.07
3774.00,96.04
3773.00,96.01
3772.00,95.99
3771.00,95.99
3770.00,96.00
3769.00,96.02
3768.00,96.03
3767.00,96.04
3766.00,96.03
3765.00,96.00
3764.00,95.98
3763.00,95.98
3762.00,96.00
3761.00,96.01
3760.00,96.01
3759.00,95.99
3758.00,95.97
3757.00,95.96
3756.00,95.95
3755.00,95.93
3754.00,95.91
3753.00,95.89
3752.00,95.90
3751.00,95.92
3750.00,95.94
3749.00,95.94
3748.00,95.94
3747.00,95.96
3746.00,95.98
3745.00,96.00
3744.00,96.00
3743.00,95.99
3742.00,95.99
3741.00,96.00
3740.00,96.00
3739.00,95.98
3738.00,95.97
3737.00,95.97
3736.00,95.96
3735.00,95.96
3734.00,95.95
3733.00,95.96
3732.00,95.97
3731.00,95.99
3730.00,96.00
3729.00,96.03
3728.00,96.05
3727.00,96.05
3726.00,96.04
3725.00,96.02
3724.00,96.01
3723.00,96.01
3722.00,96.02
3721.00,96.02
3720.00,96.01
3719.00,95.99
3718.00,95.96
3717.00,95.93
3716.00,95.91
3715.00,95.92
3714.00,95.94
3713.00,95.96
3712.00,95.97
3711.00,95.97
3710.00,95.97
3709.00,95.97
3708.00,95.96
3707.00,95.94
3706.00,95.92
3705.00,95.91
3704.00,95.91
3703.00,95.92
3702.00,95.92
3701.00,95.92
3700.00,95.93
3699.00,95.93
3698.00,95.94
3697.00,95.95
3696.00,95.95
3695.00,95.95
3694.00,95.95
3693.00,95.93
3692.00,95.91
3691.00,95.89
3690.00,95.89
3689.00,95.91
3688.00,95.92
3687.00,95.92
3686.00,95.92
3685.00,95.92
3684.00,95.92
3683.00,95.91
3682.00,95.90
3681.00,95.88
3680.00,95.86
3679.00,95.84
3678.00,95.82
3677.00,95.81
3676.00,95.79
3675.00,95.78
3674.00,95.77
3673.00,95.79
3672.00,95.81
3671.00,95.82
3670.00,95.81
3669.00,95.79
3668.00,95.76
3667.00,95.75
3666.00,95.74
3665.00,95.73
3664.00,95.71
3663.00,95.69
3662.00,95.68
3661.00,95.67
3660.00,95.66
3659.00,95.65
3658.00,95.65
3657.00,95.64
3656.00,95.63
3655.00,95.60
3654.00,95.59
3653.00,95.60
3652.00,95.59
3651.00,95.57
3650.00,95.52
3649.00,95.48
3648.00,95.46
3647.00,95.46
3646.00,95.46
3645.00,95.45
3644.00,95.44
3643.00,95.42
3642.00,95.41
3641.00,95.40
3640.00,95.40
3639.00,95.41
3638.00,95.42
3637.00,95.43
3636.00,95.43
3635.00,95.42
3634.00,95.41
3633.00,95.40
3632.00,95.38
3631.00,95.37
3630.00,95.34
3629.00,95.30
3628.00,95.25
3627.00,95.21
3626.00,95.19
3625.00,95.16
3624.00,95.14
3623.00,95.13
3622.00,95.13
3621.00,95.12
3620.00,95.10
3619.00,95.07
3618.00,95.05
3617.00,95.03
3616.00,95.03
3615.00,95.01
3614.00,94.99
3613.00,94.95
3612.00,94.90
3611.00,94.84
3610.00,94.79
3609.00,94.75
3608.00,94.73
3607.00,94.71
3606.00,94.69
3605.00,94.67
3604.00,94.65
3603.00,94.63
3602.00,94.61
3601.00,94.59
3600.00,94.58
3599.00,94.56
3598.00,94.54
3597.00,94.51
3596.00,94.48
3595.00,94.45
3594.00,94.43
3593.00,94.40
3592.00,94.36
3591.00,94.33
3590.00,94.30
3589.00,94.26
3588.00,94.20
3587.00,94.15
3586.00,94.10
3585.00,94.07
3584.00,94.06
3583.00,94.06
3582.00,94.05
3581.00,94.01
3580.00,93.97
3579.00,93.92
3578.00,93.87
3577.00,93.83
3576.00,93.81
3575.00,93.78
3574.00,93.75
3573.00,93.71
3572.00,93.66
3571.00,93.62
3570.00,93.60
3569.00,93.59
3568.00,93.58
3567.00,93.55
3566.00,93.51
3565.00,93.46
3564.00,93.42
3563.00,93.39
3562.00,93.36
3561.00,93.32
3560.00,93.27
3559.00,93.22
3558.00,93.17
3557.00,93.13
3556.00,93.11
3555.00,93.08
3554.00,93.04
3553.00,92.98
3552.00,92.93
3551.00,92.88
3550.00,92.85
3549.00,92.83
3548.00,92.80
3547.00,92.76
3546.00,92.71
3545.00,92.65
3544.00,92.59
3543.00,92.54
3542.00,92.51
3541.00,92.48
3540.00,92.44
3539.00,92.40
3538.00,92.36
3537.00,92.32
3536.00,92.30
3535.00,92.29
3534.00,92.27
3533.00,92.24
3532.00,92.19
3531.00,92.13
3530.00,92.06
3529.00,92.00
3528.00,91.93
3527.00,91.87
3526.00,91.82
3525.00,91.78
3524.00,91.73
3523.00,91.69
3522.00,91.65
3521.00,91.62
3520.00,91.58
3519.00,91.54
3518.00,91.50
3517.00,91.46
3516.00,91.41
3515.00,91.34
3514.00,91.26
3513.00,91.18
3512.00,91.11
3511.00,91.04
3510.00,90.97
3509.00,90.90
3508.00,90.85
3507.00,90.81
3506.00,90.77
3505.00,90.73
3504.00,90.68
3503.00,90.62
3502.00,90.55
3501.00,90.48
3500.00,90.39
3499.00,90.30
3498.00,90.22
3497.00,90.15
3496.00,90.10
3495.00,90.05
3494.00,90.00
3493.00,89.93
3492.00,89.85
3491.00,89.77
3490.00,89.70
3489.00,89.66
3488.00,89.63
3487.00,89.60
3486.00,89.56
3485.00,89.52
3484.00,89.47
3483.00,89.43
3482.00,89.39
3481.00,89.34
3480.00,89.30
3479.00,89.26
3478.00,89.23
3477.00,89.20
3476.00,89.18
3475.00,89.15
3474.00,89.11
3473.00,89.06
3472.00,89.01
3471.00,88.96
3470.00,88.91
3469.00,88.87
3468.00,88.83
3467.00,88.78
3466.00,88.72
3465.00,88.66
3464.00,88.60
3463.00,88.55
3462.00,88.51
3461.00,88.47
3460.00,88.44
3459.00,88.40
3458.00,88.36
3457.00,88.31
3456.00,88.25
3455.00,88.18
3454.00,88.10
3453.00,88.02
3452.00,87.94
3451.00,87.87
3450.00,87.82
3449.00,87.77
3448.00,87.74
3447.00,87.69
3446.00,87.64
3445.00,87.57
3444.00,87.51
3443.00,87.46
3442.00,87.43
3441.00,87.41
3440.00,87.39
3439.00,87.35
3438.00,87.31
3437.00,87.27
3436.00,87.24
3435.00,87.20
3434.00,87.16
3433.00,87.12
3432.00,87.09
3431.00,87.08
3430.00,87.06
3429.00,87.04
3428.00,87.01
3427.00,86.98
3426.00,86.95
3425.00,86.94
3424.00,86.94
3423.00,86.93
3422.00,86.91
3421.00,86.89
3420.00,86.87
3419.00,86.84
3418.00,86.80
3417.00,86.75
3416.00,86.71
3415.00,86.69
3414.00,86.68
3413.00,86.68
3412.00,86.67
3411.00,86.67
3410.00,86.65
3409.00,86.61
3408.00,86.58
3407.00,86.54
3406.00,86.50
3405.00,86.47
3404.00,86.44
3403.00,86.40
3402.00,86.37
3401.00,86.34
3400.00,86.32
3399.00,86.30
3398.00,86.28
3397.00,86.25
3396.00,86.22
3395.00,86.19
3394.00,86.18
3393.00,86.18
3392.00,86.18
3391.00,86.17
3390.00,86.15
3389.00,86.12
3388.00,86.10
3387.00,86.09
3386.00,86.09
3385.00,86.08
3384.00,86.05
3383.00,86.02
3382.00,86.00
3381.00,85.98
3380.00,85.98
3379.00,85.97
3378.00,85.95
3377.00,85.92
3376.00,85.88
3375.00,85.85
3374.00,85.83
3373.00,85.82
3372.00,85.80
3371.00,85.78
3370.00,85.76
3369.00,85.76
3368.00,85.76
3367.00,85.76
3366.00,85.75
3365.00,85.74
3364.00,85.74
3363.00,85.73
3362.00,85.71
3361.00,85.70
3360.00,85.67
3359.00,85.65
3358.00,85.63
3357.00,85.62
3356.00,85.62
3355.00,85.62
3354.00,85.62
3353.00,85.61
3352.00,85.60
3351.00,85.59
3350.00,85.58
3349.00,85.59
3348.00,85.60
3347.00,85.60
3346.00,85.59
3345.00,85.58
3344.00,85.57
3343.00,85.56
3342.00,85.57
3341.00,85.56
3340.00,85.56
3339.00,85.56
3338.00,85.57
3337.00,85.57
3336.00,85.55
3335.00,85.53
3334.00,85.51
3333.00,85.50
3332.00,85.51
3331.00,85.52
3330.00,85.54
3329.00,85.56
3328.00,85.57
3327.00,85.57
3326.00,85.57
3325.00,85.56
3324.00,85.54
3323.00,85.54
3322.00,85.55
3321.00,85.56
3320.00,85.58
3319.00,85.59
3318.00,85.61
3317.00,85.63
3316.00,85.65
3315.00,85.66
3314.00,85.65
3313.00,85.65
3312.00,85.63
3311.00,85.62
3310.00,85.61
3309.00,85.60
3308.00,85.61
3307.00,85.63
3306.00,85.64
3305.00,85.65
3304.00,85.65
3303.00,85.65
3302.00,85.64
3301.00,85.63
3300.00,85.63
3299.00,85.65
3298.00,85.67
3297.00,85.69
3296.00,85.69
3295.00,85.70
3294.00,85.71
3293.00,85.73
3292.00,85.75
3291.00,85.76
3290.00,85.77
3289.00,85.76
3288.00,85.76
3287.00,85.77
3286.00,85.79
3285.00,85.82
3284.00,85.84
3283.00,85.87
3282.00,85.90
3281.00,85.92
3280.00,85.92
3279.00,85.91
3278.00,85.91
3277.00,85.92
3276.00,85.94
3275.00,85.97
3274.00,85.98
3273.00,85.98
3272.00,85.98
3271.00,85.99
3270.00,86.00
3269.00,86.02
3268.00,86.03
3267.00,86.04
3266.00,86.07
3265.00,86.10
3264.00,86.12
3263.00,86.14
3262.00,86.17
3261.00,86.20
3260.00,86.23
3259.00,86.25
3258.00,86.27
3257.00,86.28
3256.00,86.30
3255.00,86.32
3254.00,86.34
3253.00,86.36
3252.00,86.38
3251.00,86.38
3250.00,86.38
3249.00,86.38
3248.00,86.39
3247.00,86.42
3246.00,86.45
3245.00,86.48
3244.00,86.51
3243.00,86.53
3242.00,86.54
3241.00,86.55
3240.00,86.56
3239.00,86.56
3238.00,86.57
3237.00,86.59
3236.00,86.62
3235.00,86.63
3234.00,86.64
3233.00,86.66
3232.00,86.68
3231.00,86.72
3230.00,86.76
3229.00,86.79
3228.00,86.81
3227.00,86.84
3226.00,86.88
3225.00,86.92
3224.00,86.95
3223.00,86.97
3222.00,86.98
3221.00,86.99
3220.00,87.01
3219.00,87.03
3218.00,87.05
3217.00,87.07
3216.00,87.09
3215.00,87.11
3214.00,87.14
3213.00,87.17
3212.00,87.20
3211.00,87.23
3210.00,87.26
3209.00,87.30
3208.00,87.33
3207.00,87.36
3206.00,87.39
3205.00,87.42
3204.00,87.45
3203.00,87.47
3202.00,87.49
3201.00,87.51
3200.00,87.53
3199.00,87.56
3198.00,87.59
3197.00,87.62
3196.00,87.66
3195.00,87.69
3194.00,87.72
3193.00,87.76
3192.00,87.78
3191.00,87.81
3190.00,87.83
3189.00,87.86
3188.00,87.90
3187.00,87.93
3186.00,87.95
3185.00,87.96
3184.00,87.97
3183.00,88.00
3182.00,88.05
3181.00,88.10
3180.00,88.15
3179.00,88.18
3178.00,88.18
3177.00,88.19
3176.00,88.20
3175.00,88.22
3174.00,88.25
3173.00,88.28
3172.00,88.30
3171.00,88.32
3170.00,88.35
3169.00,88.38
3168.00,88.40
3167.00,88.43
3166.00,88.46
3165.00,88.50
3164.00,88.54
3163.00,88.58
3162.00,88.62
3161.00,88.66
3160.00,88.70
3159.00,88.73
3158.00,88.76
3157.00,88.79
3156.00,88.83
3155.00,88.87
3154.00,88.91
3153.00,88.94
3152.00,88.97
3151.00,88.99
3150.00,89.00
3149.00,89.02
3148.00,89.05
3147.00,89.09
3146.00,89.13
3145.00,89.17
3144.00,89.21
3143.00,89.24
3142.00,89.27
3141.00,89.31
3140.00,89.35
3139.00,89.39
3138.00,89.43
3137.00,89.45
3136.00,89.48
3135.00,89.50
3134.00,89.55
3133.00,89.61
3132.00,89.66
3131.00,89.70
3130.00,89.74
3129.00,89.77
3128.00,89.80
3127.00,89.83
3126.00,89.86
3125.00,89.89
3124.00,89.92
3123.00,89.94
3122.00,89.97
3121.00,90.00
3120.00,90.03
3119.00,90.08
3118.00,90.13
3117.00,90.18
3116.00,90.23
3115.00,90.27
3114.00,90.31
3113.00,90.35
3112.00,90.38
3111.00,90.40
3110.00,90.43
3109.00,90.46
3108.00,90.50
3107.00,90.53
3106.00,90.57
3105.00,90.60
3104.00,90.64
3103.00,90.69
3102.00,90.74
3101.00,90.79
3100.00,90.82
3099.00,90.86
3098.00,90.89
3097.00,90.92
3096.00,90.96
3095.00,91.01
3094.00,91.05
3093.00,91.09
3092.00,91.12
3091.00,91.14
3090.00,91.15
3089.00,91.17
3088.00,91.19
3087.00,91.23
3086.00,91.27
3085.00,91.33
3084.00,91.37
3083.00,91.39
3082.00,91.40
3081.00,91.41
3080.00,91.43
3079.00,91.47
3078.00,91.52
3077.00,91.56
3076.00,91.59
3075.00,91.61
3074.00,91.64
3073.00,91.67
3072.00,91.71
3071.00,91.76
3070.00,91.79
3069.00,91.83
3068.00,91.85
3067.00,91.86
3066.00,91.87
3065.00,91.89
3064.00,91.91
3063.00,91.93
3062.00,91.96
3061.00,91.98
3060.00,92.02
3059.00,92.05
3058.00,92.07
3057.00,92.10
3056.00,92.13
3055.00,92.17
3054.00,92.20
3053.00,92.23
3052.00,92.26
3051.00,92.29
3050.00,92.33
3049.00,92.36
3048.00,92.38
3047.00,92.40
3046.00,92.40
3045.00,92.41
3044.00,92.42
3043.00,92.45
3042.00,92.49
3041.00,92.53
3040.00,92.57
3039.00,92.60
3038.00,92.61
3037.00,92.61
3036.00,92.61
3035.00,92.61
3034.00,92.63
3033.00,92.66
3032.00,92.70
3031.00,92.74
3030.00,92.78
3029.00,92.81
3028.00,92.84
3027.00,92.86
3026.00,92.87
3025.00,92.88
3024.00,92.90
3023.00,92.92
3022.00,92.95
3021.00,92.97
3020.00,93.00
3019.00,93.03
3018.00,93.06
3017.00,93.08
3016.00,93.09
3015.00,93.10
3014.00,93.10
3013.00,93.11
3012.00,93.11
3011.00,93.11
3010.00,93.11
3009.00,93.13
3008.00,93.14
3007.00,93.16
3006.00,93.17
3005.00,93.18
3004.00,93.20
3003.00,93.22
3002.00,93.23
3001.00,93.24
3000.00,93.25
2999.00,93.25
2998.00,93.26
2997.00,93.26
2996.00,93.27
2995.00,93.27
2994.00,93.27
2993.00,93.28
2992.00,93.29
2991.00,93.30
2990.00,93.31
2989.00,93.31
2988.00,93.30
2987.00,93.29
2986.00,93.28
2985.00,93.28
2984.00,93.27
2983.00,93.27
2982.00,93.26
2981.00,93.24
2980.00,93.23
2979.00,93.21
2978.00,93.20
2977.00,93.18
2976.00,93.16
2975.00,93.14
2974.00,93.12
2973.00,93.11
2972.00,93.10
2971.00,93.10
2970.00,93.09
2969.00,93.08
2968.00,93.07
2967.00,93.04
2966.00,93.02
2965.00,92.99
2964.00,92.96
2963.00,92.93
2962.00,92.90
2961.00,92.88
2960.00,92.86
2959.00,92.83
2958.00,92.79
2957.00,92.74
2956.00,92.70
2955.00,92.66
2954.00,92.63
2953.00,92.59
2952.00,92.55
2951.00,92.51
2950.00,92.47
2949.00,92.43
2948.00,92.40
2947.00,92.34
2946.00,92.27
2945.00,92.19
2944.00,92.11
2943.00,92.06
2942.00,92.01
2941.00,91.96
2940.00,91.92
2939.00,91.87
2938.00,91.83
2937.00,91.78
2936.00,91.74
2935.00,91.69
2934.00,91.64
2933.00,91.59
2932.00,91.54
2931.00,91.50
2930.00,91.47
2929.00,91.44
2928.00,91.41
2927.00,91.37
2926.00,91.33
2925.00,91.30
2924.00,91.29
2923.00,91.28
2922.00,91.25
2921.00,91.22
2920.00,91.18
2919.00,91.15
2918.00,91.13
2917.00,91.10
2916.00,91.07
2915.00,91.02
2914.00,90.96
2913.00,90.91
2912.00,90.87
2911.00,90.83
2910.00,90.79
2909.00,90.74
2908.00,90.70
2907.00,90.67
2906.00,90.65
2905.00,90.64
2904.00,90.63
2903.00,90.61
2902.00,90.58
2901.00,90.55
2900.00,90.53
2899.00,90.51
2898.00,90.48
2897.00,90.46
2896.00,90.45
2895.00,90.43
2894.00,90.42
2893.00,90.41
2892.00,90.41
2891.00,90.41
2890.00,90.43
2889.00,90.45
2888.00,90.47
2887.00,90.49
2886.00,90.50
2885.00,90.52
2884.00,90.53
2883.00,90.55
2882.00,90.56
2881.00,90.57
2880.00,90.58
2879.00,90.59
2878.00,90.61
2877.00,90.62
2876.00,90.63
2875.00,90.65
2874.00,90.68
2873.00,90.71
2872.00,90.76
2871.00,90.81
2870.00,90.88
2869.00,90.95
2868.00,91.01
2867.00,91.07
2866.00,91.11
2865.00,91.15
2864.00,91.18
2863.00,91.22
2862.00,91.26
2861.00,91.32
2860.00,91.39
2859.00,91.46
2858.00,91.51
2857.00,91.57
2856.00,91.62
2855.00,91.67
2854.00,91.72
2853.00,91.77
2852.00,91.82
2851.00,91.88
2850.00,91.95
2849.00,92.01
2848.00,92.07
2847.00,92.13
2846.00,92.17
2845.00,92.21
2844.00,92.24
2843.00,92.27
2842.00,92.32
2841.00,92.38
2840.00,92.44
2839.00,92.50
2838.00,92.54
2837.00,92.57
2836.00,92.59
2835.00,92.60
2834.00,92.61
2833.00,92.63
2832.00,92.66
2831.00,92.69
2830.00,92.72
2829.00,92.75
2828.00,92.78
2827.00,92.81
2826.00,92.84
2825.00,92.87
2824.00,92.89
2823.00,92.91
2822.00,92.94
2821.00,92.97
2820.00,93.00
2819.00,93.02
2818.00,93.04
2817.00,93.04
2816.00,93.04
2815.00,93.04
2814.00,93.03
2813.00,93.05
2812.00,93.08
2811.00,93.11
2810.00,93.14
2809.00,93.16
2808.00,93.18
2807.00,93.20
2806.00,93.21
2805.00,93.22
2804.00,93.23
2803.00,93.24
2802.00,93.26
2801.00,93.28
2800.00,93.30
2799.00,93.32
2798.00,93.33
2797.00,93.33
2796.00,93.34
2795.00,93.36
2794.00,93.39
2793.00,93.41
2792.00,93.43
2791.00,93.45
2790.00,93.47
2789.00,93.49
2788.00,93.50
2787.00,93.50
2786.00,93.49
2785.00,93.50
2784.00,93.51
2783.00,93.53
2782.00,93.56
2781.00,93.57
2780.00,93.58
2779.00,93.58
2778.00,93.59
2777.00,93.59
2776.00,93.61
2775.00,93.62
2774.00,93.65
2773.00,93.67
2772.00,93.69
2771.00,93.70
2770.00,93.71
2769.00,93.73
2768.00,93.74
2767.00,93.75
2766.00,93.76
2765.00,93.75
2764.00,93.74
2763.00,93.74
2762.00,93.74
2761.00,93.75
2760.00,93.75
2759.00,93.76
2758.00,93.77
2757.00,93.78
2756.00,93.80
2755.00,93.81
2754.00,93.82
2753.00,93.82
2752.00,93.83
2751.00,93.82
2750.00,93.82
2749.00,93.80
2748.00,93.80
2747.00,93.80
2746.00,93.82
2745.00,93.84
2744.00,93.85
2743.00,93.87
2742.00,93.87
2741.00,93.86
2740.00,93.85
2739.00,93.84
2738.00,93.84
2737.00,93.85
2736.00,93.86
2735.00,93.87
2734.00,93.87
2733.00,93.86
2732.00,93.84
2731.00,93.84
2730.00,93.85
2729.00,93.87
2728.00,93.89
2727.00,93.91
2726.00,93.92
2725.00,93.94
2724.00,93.94
2723.00,93.95
2722.00,93.96
2721.00,93.96
2720.00,93.96
2719.00,93.96
2718.00,93.97
2717.00,93.97
2716.00,93.98
2715.00,93.98
2714.00,93.99
2713.00,94.01
2712.00,94.04
2711.00,94.06
2710.00,94.07
2709.00,94.06
2708.00,94.05
2707.00,94.05
2706.00,94.06
2705.00,94.08
2704.00,94.10
2703.00,94.12
2702.00,94.12
2701.00,94.11
2700.00,94.10
2699.00,94.09
2698.00,94.09
2697.00,94.11
2696.00,94.12
2695.00,94.13
2694.00,94.15
2693.00,94.16
2692.00,94.16
2691.00,94.16
2690.00,94.15
2689.00,94.14
2688.00,94.14
2687.00,94.14
2686.00,94.15
2685.00,94.17
2684.00,94.18
2683.00,94.19
2682.00,94.21
2681.00,94.22
2680.00,94.24
2679.00,94.24
2678.00,94.25
2677.00,94.25
2676.00,94.25
2675.00,94.26
2674.00,94.26
2673.00,94.26
2672.00,94.26
2671.00,94.27
2670.00,94.28
2669.00,94.29
2668.00,94.29
2667.00,94.29
2666.00,94.29
2665.00,94.30
2664.00,94.30
2663.00,94.30
2662.00,94.29
2661.00,94.28
2660.00,94.27
2659.00,94.26
2658.00,94.26
2657.00,94.27
2656.00,94.28
2655.00,94.28
2654.00,94.28
2653.00,94.27
2652.00,94.27
2651.00,94.28
2650.00,94.28
2649.00,94.28
2648.00,94.27
2647.00,94.25
2646.00,94.23
2645.00,94.22
2644.00,94.22
2643.00,94.23
2642.00,94.23
2641.00,94.24
2640.00,94.25
2639.00,94.26
2638.00,94.26
2637.00,94.24
2636.00,94.23
2635.00,94.21
2634.00,94.21
2633.00,94.21
2632.00,94.21
2631.00,94.22
2630.00,94.23
2629.00,94.24
2628.00,94.23
2627.00,94.22
2626.00,94.20
2625.00,94.20
2624.00,94.21
2623.00,94.21
2622.00,94.22
2621.00,94.22
2620.00,94.22
2619.00,94.22
2618.00,94.21
2617.00,94.20
2616.00,94.20
2615.00,94.21
2614.00,94.22
2613.00,94.21
2612.00,94.18
2611.00,94.16
2610.00,94.16
2609.00,94.19
2608.00,94.22
2607.00,94.23
2606.00,94.22
2605.00,94.19
2604.00,94.17
2603.00,94.15
2602.00,94.16
2601.00,94.18
2600.00,94.20
2599.00,94.21
2598.00,94.20
2597.00,94.18
2596.00,94.17
2595.00,94.16
2594.00,94.15
2593.00,94.15
2592.00,94.14
2591.00,94.14
2590.00,94.13
2589.00,94.14
2588.00,94.16
2587.00,94.17
2586.00,94.16
2585.00,94.15
2584.00,94.12
2583.00,94.11
2582.00,94.10
2581.00,94.11
2580.00,94.12
2579.00,94.13
2578.00,94.13
2577.00,94.14
2576.00,94.14
2575.00,94.13
2574.00,94.13
2573.00,94.13
2572.00,94.13
2571.00,94.12
2570.00,94.10
2569.00,94.10
2568.00,94.11
2567.00,94.15
2566.00,94.18
2565.00,94.19
2564.00,94.20
2563.00,94.20
2562.00,94.21
2561.00,94.22
2560.00,94.21
2559.00,94.20
2558.00,94.18
2557.00,94.16
2556.00,94.15
2555.00,94.14
2554.00,94.12
2553.00,94.11
2552.00,94.10
2551.00,94.11
2550.00,94.14
2549.00,94.16
2548.00,94.18
2547.00,94.19
2546.00,94.18
2545.00,94.15
2544.00,94.13
2543.00,94.13
2542.00,94.15
2541.00,94.17
2540.00,94.19
2539.00,94.20
2538.00,94.20
2537.00,94.18
2536.00,94.15
2535.00,94.13
2534.00,94.12
2533.00,94.12
2532.00,94.13
2531.00,94.15
2530.00,94.16
2529.00,94.17
2528.00,94.17
2527.00,94.18
2526.00,94.18
2525.00,94.18
2524.00,94.18
2523.00,94.18
2522.00,94.18
2521.00,94.17
2520.00,94.18
2519.00,94.19
2518.00,94.20
2517.00,94.22
2516.00,94.22
2515.00,94.21
2514.00,94.21
2513.00,94.21
2512.00,94.21
2511.00,94.20
2510.00,94.19
2509.00,94.19
2508.00,94.21
2507.00,94.23
2506.00,94.26
2505.00,94.28
2504.00,94.28
2503.00,94.28
2502.00,94.28
2501.00,94.28
2500.00,94.29
2499.00,94.30
2498.00,94.31
2497.00,94.31
2496.00,94.31
2495.00,94.30
2494.00,94.30
2493.00,94.29
2492.00,94.28
2491.00,94.26
2490.00,94.24
2489.00,94.24
2488.00,94.26
2487.00,94.29
2486.00,94.31
2485.00,94.32
2484.00,94.32
2483.00,94.32
2482.00,94.31
2481.00,94.30
2480.00,94.31
2479.00,94.32
2478.00,94.34
2477.00,94.35
2476.00,94.34
2475.00,94.33
2474.00,94.33
2473.00,94.34
2472.00,94.35
2471.00,94.36
2470.00,94.36
2469.00,94.34
2468.00,94.32
2467.00,94.31
2466.00,94.31
2465.00,94.33
2464.00,94.35
2463.00,94.37
2462.00,94.39
2461.00,94.39
2460.00,94.39
2459.00,94.39
2458.00,94.38
2457.00,94.38
2456.00,94.38
2455.00,94.38
2454.00,94.39
2453.00,94.40
2452.00,94.40
2451.00,94.39
2450.00,94.39
2449.00,94.38
2448.00,94.39
2447.00,94.39
2446.00,94.40
2445.00,94.42
2444.00,94.44
2443.00,94.46
2442.00,94.49
2441.00,94.50
2440.00,94.50
2439.00,94.49
2438.00,94.50
2437.00,94.51
2436.00,94.53
2435.00,94.54
2434.00,94.53
2433.00,94.52
2432.00,94.51
2431.00,94.50
2430.00,94.51
2429.00,94.53
2428.00,94.55
2427.00,94.58
2426.00,94.59
2425.00,94.61
2424.00,94.62
2423.00,94.63
2422.00,94.62
2421.00,94.60
2420.00,94.59
2419.00,94.60
2418.00,94.62
2417.00,94.65
2416.00,94.68
2415.00,94.70
2414.00,94.71
2413.00,94.71
2412.00,94.69
2411.00,94.66
2410.00,94.64
2409.00,94.64
2408.00,94.66
2407.00,94.67
2406.00,94.68
2405.00,94.68
2404.00,94.69
2403.00,94.70
2402.00,94.71
2401.00,94.71
2400.00,94.71
2399.00,94.71
2398.00,94.72
2397.00,94.74
2396.00,94.76
2395.00,94.79
2394.00,94.81
2393.00,94.82
2392.00,94.82
2391.00,94.83
2390.00,94.85
2389.00,94.85
2388.00,94.85
2387.00,94.85
2386.00,94.86
2385.00,94.88
2384.00,94.91
2383.00,94.93
2382.00,94.94
2381.00,94.95
2380.00,94.96
2379.00,94.96
2378.00,94.97
2377.00,94.99
2376.00,95.02
2375.00,95.04
2374.00,95.06
2373.00,95.06
2372.00,95.06
2371.00,95.04
2370.00,95.02
2369.00,95.00
2368.00,95.00
2367.00,95.05
2366.00,95.12
2365.00,95.19
2364.00,95.21
2363.00,95.18
2362.00,95.11
2361.00,95.04
2360.00,94.99
2359.00,94.98
2358.00,95.01
2357.00,95.06
2356.00,95.10
2355.00,95.14
2354.00,95.17
2353.00,95.21
2352.00,95.25
2351.00,95.27
2350.00,95.28
2349.00,95.27
2348.00,95.26
2347.00,95.26
2346.00,95.27
2345.00,95.27
2344.00,95.27
2343.00,95.26
2342.00,95.27
2341.00,95.30
2340.00,95.30
2339.00,95.26
2338.00,95.20
2337.00,95.16
2336.00,95.16
2335.00,95.17
2334.00,95.16
2333.00,95.15
2332.00,95.13
2331.00,95.12
2330.00,95.09
2329.00,95.07
2328.00,95.06
2327.00,95.07
2326.00,95.08
2325.00,95.07
2324.00,95.05
2323.00,95.04
2322.00,95.02
2321.00,95.00
2320.00,94.98
2319.00,94.96
2318.00,94.95
2317.00,94.94
2316.00,94.93
2315.00,94.92
2314.00,94.90
2313.00,94.88
2312.00,94.86
2311.00,94.84
2310.00,94.82
2309.00,94.80
2308.00,94.80
2307.00,94.80
2306.00,94.79
2305.00,94.78
2304.00,94.76
2303.00,94.74
2302.00,94.73
2301.00,94.73
2300.00,94.73
2299.00,94.72
2298.00,94.69
2297.00,94.65
2296.00,94.61
2295.00,94.60
2294.00,94.59
2293.00,94.57
2292.00,94.55
2291.00,94.51
2290.00,94.47
2289.00,94.44
2288.00,94.42
2287.00,94.41
2286.00,94.39
2285.00,94.38
2284.00,94.36
2283.00,94.35
2282.00,94.35
2281.00,94.35
2280.00,94.35
2279.00,94.35
2278.00,94.33
2277.00,94.30
2276.00,94.26
2275.00,94.22
2274.00,94.19
2273.00,94.18
2272.00,94.18
2271.00,94.18
2270.00,94.17
2269.00,94.16
2268.00,94.14
2267.00,94.14
2266.00,94.13
2265.00,94.13
2264.00,94.11
2263.00,94.10
2262.00,94.09
2261.00,94.06
2260.00,94.03
2259.00,94.01
2258.00,94.01
2257.00,94.03
2256.00,94.07
2255.00,94.09
2254.00,94.08
2253.00,94.04
2252.00,93.99
2251.00,93.96
2250.00,93.96
2249.00,93.96
2248.00,93.94
2247.00,93.90
2246.00,93.88
2245.00,93.87
2244.00,93.87
2243.00,93.86
2242.00,93.83
2241.00,93.80
2240.00,93.79
2239.00,93.78
2238.00,93.76
2237.00,93.75
2236.00,93.76
2235.00,93.78
2234.00,93.81
2233.00,93.83
2232.00,93.82
2231.00,93.78
2230.00,93.74
2229.00,93.71
2228.00,93.69
2227.00,93.66
2226.00,93.63
2225.00,93.60
2224.00,93.58
2223.00,93.58
2222.00,93.56
2221.00,93.54
2220.00,93.51
2219.00,93.50
2218.00,93.50
2217.00,93.50
2216.00,93.47
2215.00,93.43
2214.00,93.40
2213.00,93.41
2212.00,93.44
2211.00,93.46
2210.00,93.45
2209.00,93.41
2208.00,93.38
2207.00,93.39
2206.00,93.45
2205.00,93.53
2204.00,93.58
2203.00,93.58
2202.00,93.53
2201.00,93.45
2200.00,93.36
2199.00,93.28
2198.00,93.24
2197.00,93.25
2196.00,93.26
2195.00,93.24
2194.00,93.18
2193.00,93.12
2192.00,93.11
2191.00,93.13
2190.00,93.17
2189.00,93.20
2188.00,93.19
2187.00,93.11
2186.00,93.01
2185.00,92.95
2184.00,92.96
2183.00,93.02
2182.00,93.06
2181.00,93.07
2180.00,93.05
2179.00,93.03
2178.00,93.01
2177.00,93.01
2176.00,93.01
2175.00,93.01
2174.00,93.00
2173.00,92.98
2172.00,92.94
2171.00,92.88
2170.00,92.82
2169.00,92.78
2168.00,92.77
2167.00,92.77
2166.00,92.74
2165.00,92.64
2164.00,92.50
2163.00,92.38
2162.00,92.31
2161.00,92.32
2160.00,92.43
2159.00,92.60
2158.00,92.76
2157.00,92.86
2156.00,92.89
2155.00,92.90
2154.00,92.95
2153.00,93.05
2152.00,93.17
2151.00,93.25
2150.00,93.27
2149.00,93.24
2148.00,93.23
2147.00,93.26
2146.00,93.32
2145.00,93.37
2144.00,93.41
2143.00,93.46
2142.00,93.52
2141.00,93.57
2140.00,93.61
2139.00,93.64
2138.00,93.69
2137.00,93.75
2136.00,93.83
2135.00,93.91
2134.00,93.99
2133.00,94.08
2132.00,94.14
2131.00,94.16
2130.00,94.15
2129.00,94.11
2128.00,94.07
2127.00,94.05
2126.00,94.06
2125.00,94.07
2124.00,94.08
2123.00,94.09
2122.00,94.12
2121.00,94.16
2120.00,94.19
2119.00,94.19
2118.00,94.16
2117.00,94.12
2116.00,94.08
2115.00,94.06
2114.00,94.06
2113.00,94.05
2112.00,94.04
2111.00,94.04
2110.00,94.05
2109.00,94.07
2108.00,94.09
2107.00,94.09
2106.00,94.08
2105.00,94.07
2104.00,94.07
2103.00,94.08
2102.00,94.09
2101.00,94.10
2100.00,94.11
2099.00,94.11
2098.00,94.11
2097.00,94.11
2096.00,94.12
2095.00,94.11
2094.00,94.09
2093.00,94.06
2092.00,94.04
2091.00,94.05
2090.00,94.08
2089.00,94.10
2088.00,94.12
2087.00,94.12
2086.00,94.10
2085.00,94.09
2084.00,94.08
2083.00,94.08
2082.00,94.08
2081.00,94.09
2080.00,94.09
2079.00,94.09
2078.00,94.07
2077.00,94.03
2076.00,94.00
2075.00,94.00
2074.00,94.02
2073.00,94.04
2072.00,94.03
2071.00,93.99
2070.00,93.94
2069.00,93.90
2068.00,93.89
2067.00,93.90
2066.00,93.90
2065.00,93.89
2064.00,93.87
2063.00,93.87
2062.00,93.88
2061.00,93.87
2060.00,93.85
2059.00,93.82
2058.00,93.80
2057.00,93.79
2056.00,93.77
2055.00,93.76
2054.00,93.75
2053.00,93.71
2052.00,93.62
2051.00,93.51
2050.00,93.41
2049.00,93.34
2048.00,93.33
2047.00,93.36
2046.00,93.39
2045.00,93.38
2044.00,93.36
2043.00,93.33
2042.00,93.30
2041.00,93.26
2040.00,93.22
2039.00,93.18
2038.00,93.16
2037.00,93.14
2036.00,93.14
2035.00,93.15
2034.00,93.18
2033.00,93.21
2032.00,93.23
2031.00,93.24
2030.00,93.26
2029.00,93.26
2028.00,93.25
2027.00,93.23
2026.00,93.22
2025.00,93.22
2024.00,93.22
2023.00,93.23
2022.00,93.23
2021.00,93.24
2020.00,93.27
2019.00,93.31
2018.00,93.35
2017.00,93.37
2016.00,93.35
2015.00,93.31
2014.00,93.26
2013.00,93.24
2012.00,93.27
2011.00,93.33
2010.00,93.40
2009.00,93.43
2008.00,93.44
2007.00,93.46
2006.00,93.50
2005.00,93.55
2004.00,93.60
2003.00,93.67
2002.00,93.74
2001.00,93.78
2000.00,93.76
1999.00,93.71
1998.00,93.68
1997.00,93.69
1996.00,93.70
1995.00,93.69
1994.00,93.67
1993.00,93.66
1992.00,93.66
1991.00,93.67
1990.00,93.66
1989.00,93.61
1988.00,93.54
1987.00,93.49
1986.00,93.47
1985.00,93.50
1984.00,93.53
1983.00,93.54
1982.00,93.51
1981.00,93.44
1980.00,93.35
1979.00,93.31
1978.00,93.36
1977.00,93.47
1976.00,93.57
1975.00,93.64
1974.00,93.66
1973.00,93.69
1972.00,93.73
1971.00,93.76
1970.00,93.75
1969.00,93.72
1968.00,93.70
1967.00,93.70
1966.00,93.72
1965.00,93.77
1964.00,93.85
1963.00,93.92
1962.00,93.98
1961.00,94.01
1960.00,94.04
1959.00,94.08
1958.00,94.14
1957.00,94.20
1956.00,94.24
1955.00,94.25
1954.00,94.24
1953.00,94.25
1952.00,94.27
1951.00,94.29
1950.00,94.32
1949.00,94.36
1948.00,94.40
1947.00,94.43
1946.00,94.44
1945.00,94.44
1944.00,94.43
1943.00,94.43
1942.00,94.46
1941.00,94.50
1940.00,94.55
1939.00,94.59
1938.00,94.60
1937.00,94.60
1936.00,94.59
1935.00,94.59
1934.00,94.60
1933.00,94.63
1932.00,94.67
1931.00,94.69
1930.00,94.70
1929.00,94.70
1928.00,94.70
1927.00,94.73
1926.00,94.78
1925.00,94.84
1924.00,94.88
1923.00,94.90
1922.00,94.89
1921.00,94.86
1920.00,94.84
1919.00,94.85
1918.00,94.89
1917.00,94.95
1916.00,95.00
1915.00,95.03
1914.00,95.03
1913.00,95.01
1912.00,95.00
1911.00,95.02
1910.00,95.04
1909.00,95.07
1908.00,95.10
1907.00,95.12
1906.00,95.13
1905.00,95.13
1904.00,95.12
1903.00,95.11
1902.00,95.12
1901.00,95.12
1900.00,95.14
1899.00,95.17
1898.00,95.21
1897.00,95.24
1896.00,95.27
1895.00,95.28
1894.00,95.28
1893.00,95.26
1892.00,95.25
1891.00,95.24
1890.00,95.25
1889.00,95.26
1888.00,95.26
1887.00,95.26
1886.00,95.25
1885.00,95.24
1884.00,95.22
1883.00,95.22
1882.00,95.22
1881.00,95.23
1880.00,95.25
1879.00,95.28
1878.00,95.32
1877.00,95.36
1876.00,95.39
1875.00,95.38
1874.00,95.35
1873.00,95.30
1872.00,95.28
1871.00,95.30
1870.00,95.34
1869.00,95.37
1868.00,95.36
1867.00,95.34
1866.00,95.34
1865.00,95.37
1864.00,95.40
1863.00,95.42
1862.00,95.43
1861.00,95.43
1860.00,95.43
1859.00,95.45
1858.00,95.48
1857.00,95.52
1856.00,95.55
1855.00,95.54
1854.00,95.53
1853.00,95.53
1852.00,95.53
1851.00,95.54
1850.00,95.53
1849.00,95.52
1848.00,95.53
1847.00,95.53
1846.00,95.54
1845.00,95.53
1844.00,95.52
1843.00,95.54
1842.00,95.58
1841.00,95.62
1840.00,95.66
1839.00,95.67
1838.00,95.66
1837.00,95.65
1836.00,95.63
1835.00,95.62
1834.00,95.63
1833.00,95.64
1832.00,95.64
1831.00,95.65
1830.00,95.65
1829.00,95.65
1828.00,95.65
1827.00,95.67
1826.00,95.69
1825.00,95.71
1824.00,95.73
1823.00,95.73
1822.00,95.73
1821.00,95.72
1820.00,95.71
1819.00,95.71
1818.00,95.73
1817.00,95.76
1816.00,95.79
1815.00,95.79
1814.00,95.79
1813.00,95.78
1812.00,95.78
1811.00,95.77
1810.00,95.76
1809.00,95.75
1808.00,95.75
1807.00,95.76
1806.00,95.76
1805.00,95.77
1804.00,95.79
1803.00,95.80
1802.00,95.81
1801.00,95.82
1800.00,95.82
1799.00,95.83
1798.00,95.84
1797.00,95.84
1796.00,95.84
1795.00,95.83
1794.00,95.81
1793.00,95.80
1792.00,95.81
1791.00,95.82
1790.00,95.84
1789.00,95.85
1788.00,95.86
1787.00,95.87
1786.00,95.87
1785.00,95.87
1784.00,95.86
1783.00,95.86
1782.00,95.86
1781.00,95.87
1780.00,95.88
1779.00,95.89
1778.00,95.88
1777.00,95.86
1776.00,95.83
1775.00,95.82
1774.00,95.82
1773.00,95.84
1772.00,95.86
1771.00,95.89
1770.00,95.90
1769.00,95.91
1768.00,95.90
1767.00,95.89
1766.00,95.88
1765.00,95.88
1764.00,95.89
1763.00,95.91
1762.00,95.92
1761.00,95.93
1760.00,95.93
1759.00,95.92
1758.00,95.90
1757.00,95.89
1756.00,95.88
1755.00,95.87
1754.00,95.87
1753.00,95.88
1752.00,95.89
1751.00,95.89
1750.00,95.87
1749.00,95.86
1748.00,95.85
1747.00,95.85
1746.00,95.85
1745.00,95.85
1744.00,95.85
1743.00,95.86
1742.00,95.87
1741.00,95.87
1740.00,95.86
1739.00,95.84
1738.00,95.81
1737.00,95.79
1736.00,95.77
1735.00,95.77
1734.00,95.77
1733.00,95.77
1732.00,95.77
1731.00,95.77
1730.00,95.77
1729.00,95.77
1728.00,95.77
1727.00,95.77
1726.00,95.75
1725.00,95.74
1724.00,95.74
1723.00,95.75
1722.00,95.77
1721.00,95.78
1720.00,95.78
1719.00,95.78
1718.00,95.76
1717.00,95.74
1716.00,95.71
1715.00,95.68
1714.00,95.65
1713.00,95.64
1712.00,95.63
1711.00,95.63
1710.00,95.62
1709.00,95.61
1708.00,95.59
1707.00,95.57
1706.00,95.57
1705.00,95.56
1704.00,95.54
1703.00,95.53
1702.00,95.50
1701.00,95.48
1700.00,95.46
1699.00,95.45
1698.00,95.45
1697.00,95.45
1696.00,95.44
1695.00,95.42
1694.00,95.40
1693.00,95.39
1692.00,95.38
1691.00,95.36
1690.00,95.33
1689.00,95.29
1688.00,95.25
1687.00,95.22
1686.00,95.21
1685.00,95.19
1684.00,95.15
1683.00,95.10
1682.00,95.06
1681.00,95.02
1680.00,94.99
1679.00,94.96
1678.00,94.95
1677.00,94.93
1676.00,94.90
1675.00,94.86
1674.00,94.82
1673.00,94.78
1672.00,94.74
1671.00,94.70
1670.00,94.65
1669.00,94.60
1668.00,94.56
1667.00,94.53
1666.00,94.50
1665.00,94.46
1664.00,94.42
1663.00,94.38
1662.00,94.34
1661.00,94.31
1660.00,94.27
1659.00,94.23
1658.00,94.18
1657.00,94.14
1656.00,94.11
1655.00,94.10
1654.00,94.10
1653.00,94.08
1652.00,94.03
1651.00,93.99
1650.00,93.97
1649.00,93.94
1648.00,93.91
1647.00,93.88
1646.00,93.87
1645.00,93.87
1644.00,93.88
1643.00,93.88
1642.00,93.89
1641.00,93.90
1640.00,93.91
1639.00,93.90
1638.00,93.89
1637.00,93.89
1636.00,93.90
1635.00,93.92
1634.00,93.94
1633.00,93.96
1632.00,93.98
1631.00,94.02
1630.00,94.07
1629.00,94.10
1628.00,94.11
1627.00,94.13
1626.00,94.16
1625.00,94.21
1624.00,94.25
1623.00,94.29
1622.00,94.33
1621.00,94.37
1620.00,94.42
1619.00,94.46
1618.00,94.51
1617.00,94.56
1616.00,94.61
1615.00,94.66
1614.00,94.70
1613.00,94.73
1612.00,94.77
1611.00,94.81
1610.00,94.84
1609.00,94.86
1608.00,94.88
1607.00,94.90
1606.00,94.95
1605.00,94.99
1604.00,95.03
1603.00,95.06
1602.00,95.09
1601.00,95.12
1600.00,95.14
1599.00,95.16
1598.00,95.17
1597.00,95.19
1596.00,95.21
1595.00,95.23
1594.00,95.27
1593.00,95.30
1592.00,95.34
1591.00,95.37
1590.00,95.39
1589.00,95.41
1588.00,95.44
1587.00,95.48
1586.00,95.51
1585.00,95.54
1584.00,95.57
1583.00,95.59
1582.00,95.61
1581.00,95.61
1580.00,95.61
1579.00,95.61
1578.00,95.62
1577.00,95.66
1576.00,95.70
1575.00,95.75
1574.00,95.76
1573.00,95.76
1572.00,95.76
1571.00,95.77
1570.00,95.79
1569.00,95.80
1568.00,95.80
1567.00,95.81
1566.00,95.82
1565.00,95.83
1564.00,95.82
1563.00,95.82
1562.00,95.83
1561.00,95.86
1560.00,95.89
1559.00,95.90
1558.00,95.89
1557.00,95.87
1556.00,95.87
1555.00,95.87
1554.00,95.87
1553.00,95.86
1552.00,95.85
1551.00,95.84
1550.00,95.86
1549.00,95.88
1548.00,95.90
1547.00,95.91
1546.00,95.91
1545.00,95.91
1544.00,95.92
1543.00,95.95
1542.00,95.99
1541.00,96.03
1540.00,96.06
1539.00,96.08
1538.00,96.07
1537.00,96.04
1536.00,96.00
1535.00,95.97
1534.00,95.94
1533.00,95.94
1532.00,95.96
1531.00,95.98
1530.00,96.00
1529.00,96.00
1528.00,96.00
1527.00,96.01
1526.00,96.02
1525.00,96.02
1524.00,96.02
1523.00,96.01
1522.00,96.01
1521.00,96.02
1520.00,96.02
1519.00,96.01
1518.00,96.02
1517.00,96.02
1516.00,96.03
1515.00,96.04
1514.00,96.03
1513.00,96.01
1512.00,96.00
1511.00,95.99
1510.00,95.99
1509.00,95.99
1508.00,95.99
1507.00,95.99
1506.00,95.98
1505.00,95.97
1504.00,95.94
1503.00,95.93
1502.00,95.91
1501.00,95.90
1500.00,95.89
1499.00,95.87
1498.00,95.86
1497.00,95.85
1496.00,95.83
1495.00,95.79
1494.00,95.75
1493.00,95.71
1492.00,95.67
1491.00,95.63
1490.00,95.57
1489.00,95.50
1488.00,95.44
1487.00,95.37
1486.00,95.31
1485.00,95.25
1484.00,95.20
1483.00,95.14
1482.00,95.06
1481.00,94.97
1480.00,94.88
1479.00,94.80
1478.00,94.72
1477.00,94.62
1476.00,94.53
1475.00,94.46
1474.00,94.38
1473.00,94.28
1472.00,94.18
1471.00,94.09
1470.00,94.02
1469.00,93.95
1468.00,93.88
1467.00,93.82
1466.00,93.75
1465.00,93.68
1464.00,93.61
1463.00,93.56
1462.00,93.52
1461.00,93.49
1460.00,93.46
1459.00,93.43
1458.00,93.37
1457.00,93.29
1456.00,93.21
1455.00,93.14
1454.00,93.09
1453.00,93.03
1452.00,92.98
1451.00,92.94
1450.00,92.89
1449.00,92.83
1448.00,92.76
1447.00,92.68
1446.00,92.63
1445.00,92.58
1444.00,92.54
1443.00,92.50
1442.00,92.46
1441.00,92.42
1440.00,92.38
1439.00,92.36
1438.00,92.34
1437.00,92.31
1436.00,92.27
1435.00,92.26
1434.00,92.26
1433.00,92.26
1432.00,92.26
1431.00,92.25
1430.00,92.23
1429.00,92.21
1428.00,92.18
1427.00,92.16
1426.00,92.15
1425.00,92.15
1424.00,92.15
1423.00,92.15
1422.00,92.14
1421.00,92.14
1420.00,92.13
1419.00,92.13
1418.00,92.12
1417.00,92.12
1416.00,92.13
1415.00,92.14
1414.00,92.16
1413.00,92.17
1412.00,92.18
1411.00,92.19
1410.00,92.21
1409.00,92.23
1408.00,92.26
1407.00,92.28
1406.00,92.29
1405.00,92.29
1404.00,92.27
1403.00,92.26
1402.00,92.25
1401.00,92.24
1400.00,92.23
1399.00,92.22
1398.00,92.23
1397.00,92.23
1396.00,92.24
1395.00,92.24
1394.00,92.22
1393.00,92.20
1392.00,92.18
1391.00,92.15
1390.00,92.12
1389.00,92.06
1388.00,91.98
1387.00,91.88
1386.00,91.77
1385.00,91.67
1384.00,91.57
1383.00,91.44
1382.00,91.30
1381.00,91.14
1380.00,90.97
1379.00,90.82
1378.00,90.67
1377.00,90.55
1376.00,90.44
1375.00,90.34
1374.00,90.25
1373.00,90.17
1372.00,90.11
1371.00,90.06
1370.00,90.01
1369.00,89.98
1368.00,89.95
1367.00,89.94
1366.00,89.95
1365.00,89.96
1364.00,89.99
1363.00,90.04
1362.00,90.10
1361.00,90.18
1360.00,90.27
1359.00,90.35
1358.00,90.42
1357.00,90.48
1356.00,90.54
1355.00,90.61
1354.00,90.68
1353.00,90.74
1352.00,90.79
1351.00,90.84
1350.00,90.87
1349.00,90.89
1348.00,90.88
1347.00,90.88
1346.00,90.88
1345.00,90.89
1344.00,90.89
1343.00,90.87
1342.00,90.84
1341.00,90.80
1340.00,90.74
1339.00,90.69
1338.00,90.64
1337.00,90.61
1336.00,90.59
1335.00,90.59
1334.00,90.60
1333.00,90.61
1332.00,90.62
1331.00,90.64
1330.00,90.64
1329.00,90.65
1328.00,90.64
1327.00,90.64
1326.00,90.65
1325.00,90.64
1324.00,90.63
1323.00,90.60
1322.00,90.55
1321.00,90.48
1320.00,90.40
1319.00,90.33
1318.00,90.26
1317.00,90.20
1316.00,90.15
1315.00,90.12
1314.00,90.11
1313.00,90.12
1312.00,90.15
1311.00,90.21
1310.00,90.30
1309.00,90.41
1308.00,90.52
1307.00,90.63
1306.00,90.74
1305.00,90.84
1304.00,90.94
1303.00,91.04
1302.00,91.15
1301.00,91.25
1300.00,91.35
1299.00,91.46
1298.00,91.56
1297.00,91.66
1296.00,91.75
1295.00,91.85
1294.00,91.96
1293.00,92.08
1292.00,92.19
1291.00,92.29
1290.00,92.38
1289.00,92.46
1288.00,92.53
1287.00,92.59
1286.00,92.64
1285.00,92.68
1284.00,92.70
1283.00,92.70
1282.00,92.67
1281.00,92.63
1280.00,92.59
1279.00,92.55
1278.00,92.52
1277.00,92.50
1276.00,92.49
1275.00,92.46
1274.00,92.44
1273.00,92.40
1272.00,92.37
1271.00,92.33
1270.00,92.30
1269.00,92.26
1268.00,92.23
1267.00,92.19
1266.00,92.16
1265.00,92.13
1264.00,92.12
1263.00,92.11
1262.00,92.11
1261.00,92.12
1260.00,92.15
1259.00,92.20
1258.00,92.27
1257.00,92.34
1256.00,92.42
1255.00,92.49
1254.00,92.56
1253.00,92.63
1252.00,92.70
1251.00,92.77
1250.00,92.82
1249.00,92.87
1248.00,92.90
1247.00,92.93
1246.00,92.96
1245.00,92.98
1244.00,93.01
1243.00,93.02
1242.00,93.02
1241.00,93.02
1240.00,93.01
1239.00,93.00
1238.00,92.99
1237.00,92.99
1236.00,92.99
1235.00,93.01
1234.00,93.04
1233.00,93.08
1232.00,93.12
1231.00,93.15
1230.00,93.18
1229.00,93.20
1228.00,93.24
1227.00,93.28
1226.00,93.35
1225.00,93.44
1224.00,93.57
1223.00,93.72
1222.00,93.86
1221.00,93.98
1220.00,94.08
1219.00,94.16
1218.00,94.22
1217.00,94.27
1216.00,94.33
1215.00,94.38
1214.00,94.42
1213.00,94.42
1212.00,94.40
1211.00,94.35
1210.00,94.26
1209.00,94.16
1208.00,94.06
1207.00,93.95
1206.00,93.83
1205.00,93.70
1204.00,93.57
1203.00,93.46
1202.00,93.38
1201.00,93.33
1200.00,93.31
1199.00,93.32
1198.00,93.35
1197.00,93.41
1196.00,93.50
1195.00,93.63
1194.00,93.79
1193.00,93.97
1192.00,94.16
1191.00,94.35
1190.00,94.50
1189.00,94.62
1188.00,94.72
1187.00,94.79
1186.00,94.84
1185.00,94.85
1184.00,94.84
1183.00,94.79
1182.00,94.72
1181.00,94.61
1180.00,94.47
1179.00,94.32
1178.00,94.16
1177.00,94.00
1176.00,93.80
1175.00,93.58
1174.00,93.32
1173.00,93.02
1172.00,92.71
1171.00,92.37
1170.00,92.00
1169.00,91.60
1168.00,91.18
1167.00,90.75
1166.00,90.32
1165.00,89.90
1164.00,89.48
1163.00,89.09
1162.00,88.73
1161.00,88.43
1160.00,88.18
1159.00,88.00
1158.00,87.88
1157.00,87.81
1156.00,87.80
1155.00,87.84
1154.00,87.95
1153.00,88.11
1152.00,88.28
1151.00,88.46
1150.00,88.63
1149.00,88.82
1148.00,89.02
1147.00,89.24
1146.00,89.45
1145.00,89.62
1144.00,89.76
1143.00,89.86
1142.00,89.93
1141.00,89.96
1140.00,89.95
1139.00,89.90
1138.00,89.81
1137.00,89.67
1136.00,89.48
1135.00,89.25
1134.00,89.00
1133.00,88.76
1132.00,88.52
1131.00,88.27
1130.00,88.02
1129.00,87.75
1128.00,87.46
1127.00,87.16
1126.00,86.84
1125.00,86.50
1124.00,86.16
1123.00,85.84
1122.00,85.55
1121.00,85.27
1120.00,85.00
1119.00,84.73
1118.00,84.47
1117.00,84.22
1116.00,83.99
1115.00,83.79
1114.00,83.60
1113.00,83.42
1112.00,83.26
1111.00,83.14
1110.00,83.06
1109.00,82.97
1108.00,82.86
1107.00,82.73
1106.00,82.59
1105.00,82.42
1104.00,82.23
1103.00,82.00
1102.00,81.75
1101.00,81.49
1100.00,81.21
1099.00,80.94
1098.00,80.68
1097.00,80.44
1096.00,80.22
1095.00,80.02
1094.00,79.85
1093.00,79.69
1092.00,79.53
1091.00,79.37
1090.00,79.19
1089.00,79.02
1088.00,78.85
1087.00,78.70
1086.00,78.54
1085.00,78.36
1084.00,78.14
1083.00,77.92
1082.00,77.70
1081.00,77.47
1080.00,77.22
1079.00,76.95
1078.00,76.66
1077.00,76.35
1076.00,76.04
1075.00,75.74
1074.00,75.45
1073.00,75.17
1072.00,74.88
1071.00,74.59
1070.00,74.30
1069.00,74.00
1068.00,73.71
1067.00,73.45
1066.00,73.21
1065.00,72.98
1064.00,72.76
1063.00,72.54
1062.00,72.31
1061.00,72.07
1060.00,71.82
1059.00,71.62
1058.00,71.46
1057.00,71.33
1056.00,71.20
1055.00,71.09
1054.00,70.98
1053.00,70.87
1052.00,70.74
1051.00,70.62
1050.00,70.52
1049.00,70.43
1048.00,70.35
1047.00,70.27
1046.00,70.18
1045.00,70.06
1044.00,69.93
1043.00,69.82
1042.00,69.73
1041.00,69.64
1040.00,69.53
1039.00,69.42
1038.00,69.29
1037.00,69.13
1036.00,68.92
1035.00,68.70
1034.00,68.47
1033.00,68.23
1032.00,67.98
1031.00,67.74
1030.00,67.48
1029.00,67.19
1028.00,66.88
1027.00,66.57
1026.00,66.30
1025.00,66.07
1024.00,65.87
1023.00,65.71
1022.00,65.58
1021.00,65.48
1020.00,65.39
1019.00,65.33
1018.00,65.32
1017.00,65.35
1016.00,65.45
1015.00,65.61
1014.00,65.83
1013.00,66.07
1012.00,66.34
1011.00,66.61
1010.00,66.89
1009.00,67.16
1008.00,67.40
1007.00,67.63
1006.00,67.82
1005.00,67.98
1004.00,68.11
1003.00,68.20
1002.00,68.25
1001.00,68.27
1000.00,68.24
999.00,68.18
998.00,68.11
997.00,68.05
996.00,68.02
995.00,68.05
994.00,68.13
993.00,68.28
992.00,68.47
991.00,68.72
990.00,69.05
989.00,69.44
988.00,69.90
987.00,70.41
986.00,70.98
985.00,71.57
984.00,72.19
983.00,72.82
982.00,73.44
981.00,74.06
980.00,74.66
979.00,75.26
978.00,75.84
977.00,76.38
976.00,76.88
975.00,77.35
974.00,77.77
973.00,78.14
972.00,78.47
971.00,78.77
970.00,79.05
969.00,79.32
968.00,79.57
967.00,79.81
966.00,80.06
965.00,80.31
964.00,80.56
963.00,80.81
962.00,81.07
961.00,81.32
960.00,81.58
959.00,81.85
958.00,82.15
957.00,82.46
956.00,82.77
955.00,83.07
954.00,83.36
953.00,83.63
952.00,83.89
951.00,84.16
950.00,84.42
949.00,84.68
948.00,84.91
947.00,85.13
946.00,85.32
945.00,85.50
944.00,85.67
943.00,85.85
942.00,86.03
941.00,86.21
940.00,86.38
939.00,86.54
938.00,86.68
937.00,86.80
936.00,86.90
935.00,86.99
934.00,87.07
933.00,87.15
932.00,87.21
931.00,87.27
930.00,87.35
929.00,87.44
928.00,87.54
927.00,87.63
926.00,87.72
925.00,87.81
924.00,87.91
923.00,88.01
922.00,88.12
921.00,88.22
920.00,88.31
919.00,88.38
918.00,88.43
917.00,88.47
916.00,88.47
915.00,88.46
914.00,88.43
913.00,88.39
912.00,88.32
911.00,88.23
910.00,88.10
909.00,87.94
908.00,87.74
907.00,87.53
906.00,87.31
905.00,87.10
904.00,86.88
903.00,86.66
902.00,86.44
901.00,86.23
900.00,86.02
899.00,85.84
898.00,85.69
897.00,85.59
896.00,85.54
895.00,85.51
894.00,85.51
893.00,85.56
892.00,85.67
891.00,85.85
890.00,86.07
889.00,86.33
888.00,86.60
887.00,86.89
886.00,87.18
885.00,87.47
884.00,87.75
883.00,88.00
882.00,88.22
881.00,88.43
880.00,88.64
879.00,88.86
878.00,89.08
877.00,89.30
876.00,89.49
875.00,89.65
874.00,89.78
873.00,89.91
872.00,90.03
871.00,90.14
870.00,90.23
869.00,90.30
868.00,90.38
867.00,90.47
866.00,90.55
865.00,90.62
864.00,90.69
863.00,90.76
862.00,90.83
861.00,90.88
860.00,90.91
859.00,90.93
858.00,90.94
857.00,90.96
856.00,91.00
855.00,91.07
854.00,91.14
853.00,91.17
852.00,91.17
851.00,91.15
850.00,91.12
849.00,91.10
848.00,91.07
847.00,91.05
846.00,91.05
845.00,91.06
844.00,91.06
843.00,91.06
842.00,91.07
841.00,91.09
840.00,91.11
839.00,91.11
838.00,91.10
837.00,91.09
836.00,91.10
835.00,91.11
834.00,91.10
833.00,91.06
832.00,91.01
831.00,90.99
830.00,91.01
829.00,91.05
828.00,91.07
827.00,91.06
826.00,91.03
825.00,91.01
824.00,90.98
823.00,90.95
822.00,90.92
821.00,90.89
820.00,90.86
819.00,90.84
818.00,90.84
817.00,90.84
816.00,90.83
815.00,90.81
814.00,90.77
813.00,90.75
812.00,90.73
811.00,90.71
810.00,90.70
809.00,90.70
808.00,90.70
807.00,90.69
806.00,90.66
805.00,90.63
804.00,90.60
803.00,90.58
802.00,90.55
801.00,90.53
800.00,90.51
799.00,90.49
798.00,90.47
797.00,90.45
796.00,90.45
795.00,90.44
794.00,90.40
793.00,90.30
792.00,90.20
791.00,90.15
790.00,90.15
789.00,90.16
788.00,90.14
787.00,90.10
786.00,90.03
785.00,89.97
784.00,89.95
783.00,89.96
782.00,89.98
781.00,89.99
780.00,89.96
779.00,89.91
778.00,89.83
777.00,89.76
776.00,89.72
775.00,89.72
774.00,89.73
773.00,89.72
772.00,89.69
771.00,89.65
770.00,89.62
769.00,89.59
768.00,89.55
767.00,89.51
766.00,89.46
765.00,89.39
764.00,89.30
763.00,89.23
762.00,89.17
761.00,89.13
760.00,89.11
759.00,89.08
758.00,89.03
757.00,88.96
756.00,88.89
755.00,88.82
754.00,88.74
753.00,88.65
752.00,88.57
751.00,88.51
750.00,88.50
749.00,88.49
748.00,88.47
747.00,88.43
746.00,88.39
745.00,88.33
744.00,88.25
743.00,88.16
742.00,88.08
741.00,88.02
740.00,87.98
739.00,87.95
738.00,87.90
737.00,87.84
736.00,87.78
735.00,87.75
734.00,87.72
733.00,87.67
732.00,87.62
731.00,87.59
730.00,87.55
729.00,87.51
728.00,87.44
727.00,87.35
726.00,87.25
725.00,87.16
724.00,87.09
723.00,87.03
722.00,86.99
721.00,86.94
720.00,86.89
719.00,86.84
718.00,86.78
717.00,86.70
716.00,86.60
715.00,86.50
714.00,86.42
713.00,86.34
712.00,86.27
711.00,86.24
710.00,86.24
709.00,86.27
708.00,86.31
707.00,86.34
706.00,86.36
705.00,86.34
704.00,86.30
703.00,86.26
702.00,86.21
701.00,86.16
700.00,86.09
699.00,86.03
698.00,85.96
697.00,85.88
696.00,85.81
695.00,85.78
694.00,85.79
693.00,85.83
692.00,85.84
691.00,85.81
690.00,85.75
689.00,85.66
688.00,85.57
687.00,85.51
686.00,85.48
685.00,85.45
684.00,85.40
683.00,85.31
682.00,85.13
681.00,84.85
680.00,84.52
679.00,84.17
678.00,83.80
677.00,83.37
676.00,82.87
675.00,82.38
674.00,81.89
673.00,81.42
672.00,80.99
671.00,80.67
670.00,80.46
669.00,80.31
668.00,80.12
667.00,79.93
666.00,79.84
665.00,79.78
664.00,79.72
663.00,79.65
662.00,79.61
661.00,79.59
660.00,79.58
659.00,79.61
658.00,79.71
657.00,79.84
656.00,79.95
655.00,80.03
654.00,80.11
653.00,80.19
652.00,80.24
651.00,80.26
650.00,80.23
649.00,80.14
648.00,80.02
647.00,79.93
646.00,79.88
645.00,79.87
644.00,79.85
643.00,79.83
642.00,79.81
641.00,79.75
640.00,79.65
639.00,79.54
638.00,79.46
637.00,79.41
636.00,79.37
635.00,79.35
634.00,79.33
633.00,79.26
632.00,79.13
631.00,78.99
630.00,78.92
629.00,78.91
628.00,78.91
627.00,78.90
626.00,78.86
625.00,78.80
624.00,78.67
623.00,78.50
622.00,78.27
621.00,77.99
620.00,77.74
619.00,77.69
618.00,77.95
617.00,78.32
616.00,78.45
615.00,78.20
614.00,77.71
613.00,77.18
612.00,76.75
611.00,76.40
610.00,76.15
609.00,76.04
608.00,76.07
607.00,76.20
606.00,76.31
605.00,76.37
604.00,76.41
603.00,76.41
602.00,76.30
601.00,76.01
600.00,75.69
599.00,75.57
598.00,75.63
597.00,75.70
596.00,75.69
595.00,75.72
594.00,75.93
593.00,76.16
592.00,76.11
591.00,75.70
590.00,75.18
589.00,74.88
588.00,74.91
587.00,75.13
586.00,75.30
585.00,75.29
584.00,75.18
583.00,75.12
582.00,75.07
581.00,74.98
580.00,74.95
579.00,75.13
578.00,75.37
577.00,75.38
576.00,75.13
575.00,74.94
574.00,74.92
573.00,74.82
572.00,74.48
571.00,74.05
570.00,73.80
569.00,73.71
568.00,73.70
567.00,73.81
566.00,74.11
565.00,74.47
564.00,74.65
563.00,74.55
562.00,74.16
561.00,73.57
560.00,72.87
559.00,72.29
558.00,72.08
557.00,72.47
556.00,73.47
555.00,74.74
554.00,75.58
553.00,75.57
552.00,74.96
551.00,74.32
550.00,73.82
