Created as New Dataset,186 Acordis Fibres
cm-1,%T
4000.00,96.00
3999.00,96.01
3998.00,96.01
3997.00,96.00
3996.00,95.99
3995.00,95.98
3994.00,95.98
3993.00,95.99
3992.00,96.00
3991.00,96.00
3990.00,95.99
3989.00,95.98
3988.00,95.96
3987.00,95.94
3986.00,95.93
3985.00,95.93
3984.00,95.95
3983.00,95.97
3982.00,95.99
3981.00,96.01
3980.00,96.01
3979.00,96.00
3978.00,95.99
3977.00,95.98
3976.00,95.98
3975.00,95.99
3974.00,96.01
3973.00,96.02
3972.00,96.03
3971.00,96.02
3970.00,96.01
3969.00,96.00
3968.00,96.00
3967.00,96.01
3966.00,96.02
3965.00,96.03
3964.00,96.03
3963.00,96.01
3962.00,96.00
3961.00,95.99
3960.00,95.98
3959.00,95.98
3958.00,95.99
3957.00,95.99
3956.00,95.99
3955.00,95.98
3954.00,95.98
3953.00,95.98
3952.00,95.99
3951.00,95.98
3950.00,95.98
3949.00,95.97
3948.00,95.98
3947.00,95.99
3946.00,95.99
3945.00,95.99
3944.00,95.98
3943.00,95.97
3942.00,95.97
3941.00,95.96
3940.00,95.96
3939.00,95.96
3938.00,95.97
3937.00,95.97
3936.00,95.98
3935.00,95.99
3934.00,96.01
3933.00,96.02
3932.00,96.02
3931.00,96.01
3930.00,95.99
3929.00,95.98
3928.00,95.96
3927.00,95.96
3926.00,95.97
3925.00,95.99
3924.00,96.02
3923.00,96.04
3922.00,96.03
3921.00,96.01
3920.00,95.98
3919.00,95.95
3918.00,95.94
3917.00,95.96
3916.00,95.98
3915.00,96.01
3914.00,96.03
3913.00,96.04
3912.00,96.05
3911.00,96.05
3910.00,96.05
3909.00,96.04
3908.00,96.01
3907.00,95.97
3906.00,95.92
3905.00,95.88
3904.00,95.86
3903.00,95.86
3902.00,95.88
3901.00,95.92
3900.00,95.96
3899.00,95.99
3898.00,96.01
3897.00,96.02
3896.00,96.03
3895.00,96.04
3894.00,96.04
3893.00,96.04
3892.00,96.03
3891.00,96.01
3890.00,95.98
3889.00,95.94
3888.00,95.91
3887.00,95.92
3886.00,95.94
3885.00,95.96
3884.00,95.95
3883.00,95.94
3882.00,95.94
3881.00,95.95
3880.00,95.98
3879.00,96.01
3878.00,96.03
3877.00,96.03
3876.00,96.03
3875.00,96.03
3874.00,96.02
3873.00,96.01
3872.00,96.00
3871.00,96.00
3870.00,96.01
3869.00,96.00
3868.00,95.98
3867.00,95.97
3866.00,95.98
3865.00,95.99
3864.00,95.99
3863.00,95.98
3862.00,95.98
3861.00,96.00
3860.00,96.03
3859.00,96.07
3858.00,96.09
3857.00,96.10
3856.00,96.09
3855.00,96.09
3854.00,96.08
3853.00,96.04
3852.00,96.00
3851.00,95.98
3850.00,96.00
3849.00,96.03
3848.00,96.06
3847.00,96.09
3846.00,96.11
3845.00,96.12
3844.00,96.12
3843.00,96.12
3842.00,96.11
3841.00,96.10
3840.00,96.08
3839.00,96.06
3838.00,96.04
3837.00,96.03
3836.00,96.03
3835.00,96.03
3834.00,96.04
3833.00,96.05
3832.00,96.06
3831.00,96.08
3830.00,96.08
3829.00,96.07
3828.00,96.07
3827.00,96.08
3826.00,96.10
3825.00,96.09
3824.00,96.07
3823.00,96.06
3822.00,96.05
3821.00,96.06
3820.00,96.06
3819.00,96.05
3818.00,96.04
3817.00,96.05
3816.00,96.07
3815.00,96.07
3814.00,96.07
3813.00,96.07
3812.00,96.08
3811.00,96.08
3810.00,96.07
3809.00,96.04
3808.00,96.03
3807.00,96.03
3806.00,96.05
3805.00,96.07
3804.00,96.10
3803.00,96.14
3802.00,96.17
3801.00,96.15
3800.00,96.10
3799.00,96.04
3798.00,95.99
3797.00,95.97
3796.00,95.98
3795.00,95.99
3794.00,96.01
3793.00,96.04
3792.00,96.07
3791.00,96.11
3790.00,96.13
3789.00,96.15
3788.00,96.15
3787.00,96.14
3786.00,96.13
3785.00,96.12
3784.00,96.10
3783.00,96.09
3782.00,96.08
3781.00,96.08
3780.00,96.08
3779.00,96.08
3778.00,96.08
3777.00,96.08
3776.00,96.09
3775.00,96.10
3774.00,96.10
3773.00,96.09
3772.00,96.08
3771.00,96.08
3770.00,96.07
3769.00,96.05
3768.00,96.02
3767.00,96.02
3766.00,96.03
3765.00,96.04
3764.00,96.04
3763.00,96.02
3762.00,96.00
3761.00,96.00
3760.00,96.02
3759.00,96.03
3758.00,96.04
3757.00,96.05
3756.00,96.06
3755.00,96.06
3754.00,96.07
3753.00,96.07
3752.00,96.06
3751.00,96.03
3750.00,96.00
3749.00,95.97
3748.00,95.94
3747.00,95.90
3746.00,95.89
3745.00,95.91
3744.00,95.93
3743.00,95.94
3742.00,95.95
3741.00,95.97
3740.00,96.00
3739.00,96.02
3738.00,96.03
3737.00,96.04
3736.00,96.03
3735.00,96.00
3734.00,95.97
3733.00,95.96
3732.00,95.98
3731.00,96.02
3730.00,96.06
3729.00,96.09
3728.00,96.12
3727.00,96.14
3726.00,96.11
3725.00,96.06
3724.00,96.01
3723.00,95.98
3722.00,95.98
3721.00,96.00
3720.00,96.03
3719.00,96.06
3718.00,96.08
3717.00,96.10
3716.00,96.10
3715.00,96.09
3714.00,96.08
3713.00,96.09
3712.00,96.08
3711.00,96.06
3710.00,96.03
3709.00,96.01
3708.00,96.01
3707.00,96.01
3706.00,96.01
3705.00,96.02
3704.00,96.04
3703.00,96.07
3702.00,96.11
3701.00,96.13
3700.00,96.14
3699.00,96.13
3698.00,96.12
3697.00,96.13
3696.00,96.14
3695.00,96.14
3694.00,96.13
3693.00,96.12
3692.00,96.09
3691.00,96.05
3690.00,96.02
3689.00,96.01
3688.00,96.03
3687.00,96.06
3686.00,96.09
3685.00,96.11
3684.00,96.10
3683.00,96.08
3682.00,96.06
3681.00,96.05
3680.00,96.05
3679.00,96.05
3678.00,96.03
3677.00,96.02
3676.00,96.00
3675.00,96.00
3674.00,95.99
3673.00,95.99
3672.00,95.98
3671.00,95.97
3670.00,95.96
3669.00,95.96
3668.00,95.97
3667.00,96.00
3666.00,96.03
3665.00,96.04
3664.00,96.04
3663.00,96.02
3662.00,96.00
3661.00,95.98
3660.00,95.95
3659.00,95.94
3658.00,95.94
3657.00,95.95
3656.00,95.95
3655.00,95.92
3654.00,95.87
3653.00,95.82
3652.00,95.79
3651.00,95.79
3650.00,95.79
3649.00,95.80
3648.00,95.80
3647.00,95.80
3646.00,95.80
3645.00,95.80
3644.00,95.79
3643.00,95.79
3642.00,95.78
3641.00,95.78
3640.00,95.76
3639.00,95.75
3638.00,95.73
3637.00,95.70
3636.00,95.66
3635.00,95.63
3634.00,95.62
3633.00,95.61
3632.00,95.59
3631.00,95.57
3630.00,95.57
3629.00,95.56
3628.00,95.55
3627.00,95.54
3626.00,95.53
3625.00,95.50
3624.00,95.47
3623.00,95.43
3622.00,95.39
3621.00,95.36
3620.00,95.33
3619.00,95.32
3618.00,95.31
3617.00,95.31
3616.00,95.28
3615.00,95.25
3614.00,95.21
3613.00,95.17
3612.00,95.14
3611.00,95.11
3610.00,95.09
3609.00,95.08
3608.00,95.06
3607.00,95.05
3606.00,95.03
3605.00,95.00
3604.00,94.98
3603.00,94.95
3602.00,94.93
3601.00,94.89
3600.00,94.84
3599.00,94.79
3598.00,94.74
3597.00,94.70
3596.00,94.66
3595.00,94.64
3594.00,94.62
3593.00,94.60
3592.00,94.58
3591.00,94.55
3590.00,94.51
3589.00,94.48
3588.00,94.45
3587.00,94.41
3586.00,94.39
3585.00,94.36
3584.00,94.34
3583.00,94.31
3582.00,94.29
3581.00,94.27
3580.00,94.24
3579.00,94.18
3578.00,94.12
3577.00,94.06
3576.00,94.01
3575.00,93.97
3574.00,93.92
3573.00,93.88
3572.00,93.84
3571.00,93.80
3570.00,93.77
3569.00,93.74
3568.00,93.70
3567.00,93.64
3566.00,93.58
3565.00,93.52
3564.00,93.48
3563.00,93.42
3562.00,93.37
3561.00,93.30
3560.00,93.24
3559.00,93.20
3558.00,93.17
3557.00,93.16
3556.00,93.15
3555.00,93.14
3554.00,93.11
3553.00,93.07
3552.00,93.02
3551.00,92.98
3550.00,92.94
3549.00,92.88
3548.00,92.80
3547.00,92.72
3546.00,92.65
3545.00,92.58
3544.00,92.53
3543.00,92.50
3542.00,92.46
3541.00,92.43
3540.00,92.39
3539.00,92.36
3538.00,92.31
3537.00,92.26
3536.00,92.20
3535.00,92.14
3534.00,92.10
3533.00,92.06
3532.00,92.01
3531.00,91.96
3530.00,91.89
3529.00,91.82
3528.00,91.75
3527.00,91.68
3526.00,91.62
3525.00,91.57
3524.00,91.52
3523.00,91.46
3522.00,91.40
3521.00,91.34
3520.00,91.29
3519.00,91.25
3518.00,91.21
3517.00,91.18
3516.00,91.14
3515.00,91.08
3514.00,91.01
3513.00,90.92
3512.00,90.83
3511.00,90.74
3510.00,90.66
3509.00,90.59
3508.00,90.52
3507.00,90.45
3506.00,90.38
3505.00,90.31
3504.00,90.23
3503.00,90.14
3502.00,90.06
3501.00,89.97
3500.00,89.89
3499.00,89.81
3498.00,89.73
3497.00,89.64
3496.00,89.55
3495.00,89.46
3494.00,89.38
3493.00,89.31
3492.00,89.27
3491.00,89.23
3490.00,89.20
3489.00,89.14
3488.00,89.06
3487.00,88.98
3486.00,88.91
3485.00,88.86
3484.00,88.82
3483.00,88.79
3482.00,88.75
3481.00,88.69
3480.00,88.63
3479.00,88.56
3478.00,88.50
3477.00,88.45
3476.00,88.40
3475.00,88.34
3474.00,88.27
3473.00,88.20
3472.00,88.14
3471.00,88.09
3470.00,88.05
3469.00,88.01
3468.00,87.95
3467.00,87.89
3466.00,87.82
3465.00,87.75
3464.00,87.68
3463.00,87.60
3462.00,87.52
3461.00,87.44
3460.00,87.38
3459.00,87.34
3458.00,87.29
3457.00,87.24
3456.00,87.18
3455.00,87.12
3454.00,87.04
3453.00,86.95
3452.00,86.86
3451.00,86.78
3450.00,86.69
3449.00,86.62
3448.00,86.54
3447.00,86.47
3446.00,86.41
3445.00,86.35
3444.00,86.30
3443.00,86.25
3442.00,86.20
3441.00,86.14
3440.00,86.09
3439.00,86.06
3438.00,86.04
3437.00,86.02
3436.00,86.00
3435.00,85.97
3434.00,85.94
3433.00,85.90
3432.00,85.86
3431.00,85.82
3430.00,85.78
3429.00,85.74
3428.00,85.71
3427.00,85.69
3426.00,85.67
3425.00,85.64
3424.00,85.62
3423.00,85.60
3422.00,85.59
3421.00,85.58
3420.00,85.56
3419.00,85.54
3418.00,85.51
3417.00,85.48
3416.00,85.45
3415.00,85.40
3414.00,85.36
3413.00,85.31
3412.00,85.26
3411.00,85.22
3410.00,85.18
3409.00,85.15
3408.00,85.13
3407.00,85.11
3406.00,85.10
3405.00,85.09
3404.00,85.06
3403.00,85.02
3402.00,84.98
3401.00,84.95
3400.00,84.92
3399.00,84.89
3398.00,84.87
3397.00,84.83
3396.00,84.79
3395.00,84.76
3394.00,84.72
3393.00,84.68
3392.00,84.66
3391.00,84.65
3390.00,84.64
3389.00,84.62
3388.00,84.59
3387.00,84.54
3386.00,84.50
3385.00,84.46
3384.00,84.45
3383.00,84.44
3382.00,84.44
3381.00,84.43
3380.00,84.42
3379.00,84.39
3378.00,84.37
3377.00,84.35
3376.00,84.33
3375.00,84.31
3374.00,84.29
3373.00,84.27
3372.00,84.24
3371.00,84.22
3370.00,84.21
3369.00,84.19
3368.00,84.18
3367.00,84.16
3366.00,84.15
3365.00,84.14
3364.00,84.12
3363.00,84.10
3362.00,84.07
3361.00,84.04
3360.00,84.01
3359.00,83.98
3358.00,83.97
3357.00,83.96
3356.00,83.95
3355.00,83.93
3354.00,83.90
3353.00,83.89
3352.00,83.88
3351.00,83.88
3350.00,83.88
3349.00,83.88
3348.00,83.88
3347.00,83.87
3346.00,83.85
3345.00,83.82
3344.00,83.79
3343.00,83.78
3342.00,83.78
3341.00,83.79
3340.00,83.78
3339.00,83.76
3338.00,83.73
3337.00,83.71
3336.00,83.72
3335.00,83.74
3334.00,83.77
3333.00,83.78
3332.00,83.79
3331.00,83.78
3330.00,83.77
3329.00,83.77
3328.00,83.76
3327.00,83.74
3326.00,83.74
3325.00,83.74
3324.00,83.74
3323.00,83.75
3322.00,83.76
3321.00,83.77
3320.00,83.77
3319.00,83.76
3318.00,83.76
3317.00,83.76
3316.00,83.77
3315.00,83.78
3314.00,83.80
3313.00,83.81
3312.00,83.79
3311.00,83.77
3310.00,83.75
3309.00,83.75
3308.00,83.76
3307.00,83.77
3306.00,83.77
3305.00,83.76
3304.00,83.76
3303.00,83.76
3302.00,83.78
3301.00,83.79
3300.00,83.80
3299.00,83.80
3298.00,83.80
3297.00,83.81
3296.00,83.83
3295.00,83.85
3294.00,83.86
3293.00,83.86
3292.00,83.85
3291.00,83.85
3290.00,83.86
3289.00,83.88
3288.00,83.89
3287.00,83.89
3286.00,83.87
3285.00,83.85
3284.00,83.84
3283.00,83.84
3282.00,83.86
3281.00,83.89
3280.00,83.92
3279.00,83.94
3278.00,83.94
3277.00,83.94
3276.00,83.95
3275.00,83.96
3274.00,83.97
3273.00,83.98
3272.00,83.98
3271.00,83.98
3270.00,83.98
3269.00,83.98
3268.00,83.98
3267.00,83.99
3266.00,84.00
3265.00,84.02
3264.00,84.04
3263.00,84.06
3262.00,84.07
3261.00,84.09
3260.00,84.10
3259.00,84.12
3258.00,84.14
3257.00,84.16
3256.00,84.18
3255.00,84.18
3254.00,84.19
3253.00,84.21
3252.00,84.23
3251.00,84.25
3250.00,84.27
3249.00,84.30
3248.00,84.33
3247.00,84.35
3246.00,84.37
3245.00,84.38
3244.00,84.38
3243.00,84.39
3242.00,84.39
3241.00,84.41
3240.00,84.42
3239.00,84.45
3238.00,84.49
3237.00,84.53
3236.00,84.55
3235.00,84.55
3234.00,84.55
3233.00,84.57
3232.00,84.60
3231.00,84.62
3230.00,84.65
3229.00,84.67
3228.00,84.69
3227.00,84.72
3226.00,84.75
3225.00,84.76
3224.00,84.77
3223.00,84.78
3222.00,84.80
3221.00,84.82
3220.00,84.84
3219.00,84.87
3218.00,84.90
3217.00,84.94
3216.00,84.98
3215.00,85.00
3214.00,85.02
3213.00,85.03
3212.00,85.04
3211.00,85.05
3210.00,85.05
3209.00,85.06
3208.00,85.08
3207.00,85.11
3206.00,85.15
3205.00,85.19
3204.00,85.23
3203.00,85.25
3202.00,85.27
3201.00,85.28
3200.00,85.31
3199.00,85.35
3198.00,85.39
3197.00,85.42
3196.00,85.44
3195.00,85.45
3194.00,85.46
3193.00,85.48
3192.00,85.51
3191.00,85.54
3190.00,85.56
3189.00,85.57
3188.00,85.59
3187.00,85.62
3186.00,85.67
3185.00,85.72
3184.00,85.75
3183.00,85.78
3182.00,85.79
3181.00,85.81
3180.00,85.83
3179.00,85.84
3178.00,85.86
3177.00,85.89
3176.00,85.93
3175.00,85.98
3174.00,86.01
3173.00,86.05
3172.00,86.08
3171.00,86.11
3170.00,86.14
3169.00,86.17
3168.00,86.19
3167.00,86.21
3166.00,86.23
3165.00,86.25
3164.00,86.28
3163.00,86.31
3162.00,86.36
3161.00,86.40
3160.00,86.44
3159.00,86.47
3158.00,86.49
3157.00,86.50
3156.00,86.52
3155.00,86.57
3154.00,86.62
3153.00,86.66
3152.00,86.70
3151.00,86.72
3150.00,86.75
3149.00,86.77
3148.00,86.80
3147.00,86.83
3146.00,86.86
3145.00,86.88
3144.00,86.91
3143.00,86.94
3142.00,86.97
3141.00,87.01
3140.00,87.06
3139.00,87.11
3138.00,87.16
3137.00,87.20
3136.00,87.23
3135.00,87.25
3134.00,87.28
3133.00,87.30
3132.00,87.33
3131.00,87.35
3130.00,87.39
3129.00,87.43
3128.00,87.47
3127.00,87.50
3126.00,87.54
3125.00,87.58
3124.00,87.61
3123.00,87.65
3122.00,87.69
3121.00,87.73
3120.00,87.77
3119.00,87.81
3118.00,87.85
3117.00,87.87
3116.00,87.91
3115.00,87.95
3114.00,88.01
3113.00,88.06
3112.00,88.10
3111.00,88.12
3110.00,88.14
3109.00,88.17
3108.00,88.21
3107.00,88.25
3106.00,88.29
3105.00,88.32
3104.00,88.34
3103.00,88.38
3102.00,88.41
3101.00,88.46
3100.00,88.50
3099.00,88.54
3098.00,88.58
3097.00,88.62
3096.00,88.67
3095.00,88.71
3094.00,88.75
3093.00,88.78
3092.00,88.80
3091.00,88.83
3090.00,88.86
3089.00,88.88
3088.00,88.91
3087.00,88.94
3086.00,88.98
3085.00,89.02
3084.00,89.06
3083.00,89.09
3082.00,89.12
3081.00,89.16
3080.00,89.20
3079.00,89.23
3078.00,89.26
3077.00,89.29
3076.00,89.31
3075.00,89.35
3074.00,89.38
3073.00,89.42
3072.00,89.45
3071.00,89.48
3070.00,89.51
3069.00,89.54
3068.00,89.57
3067.00,89.60
3066.00,89.63
3065.00,89.67
3064.00,89.71
3063.00,89.74
3062.00,89.78
3061.00,89.81
3060.00,89.84
3059.00,89.86
3058.00,89.88
3057.00,89.90
3056.00,89.92
3055.00,89.96
3054.00,90.00
3053.00,90.05
3052.00,90.10
3051.00,90.14
3050.00,90.18
3049.00,90.21
3048.00,90.23
3047.00,90.25
3046.00,90.27
3045.00,90.30
3044.00,90.34
3043.00,90.38
3042.00,90.41
3041.00,90.44
3040.00,90.47
3039.00,90.50
3038.00,90.54
3037.00,90.57
3036.00,90.60
3035.00,90.62
3034.00,90.63
3033.00,90.63
3032.00,90.64
3031.00,90.66
3030.00,90.70
3029.00,90.74
3028.00,90.77
3027.00,90.80
3026.00,90.81
3025.00,90.83
3024.00,90.85
3023.00,90.86
3022.00,90.88
3021.00,90.89
3020.00,90.90
3019.00,90.92
3018.00,90.95
3017.00,90.98
3016.00,91.00
3015.00,91.02
3014.00,91.04
3013.00,91.06
3012.00,91.09
3011.00,91.11
3010.00,91.13
3009.00,91.14
3008.00,91.15
3007.00,91.16
3006.00,91.18
3005.00,91.19
3004.00,91.21
3003.00,91.23
3002.00,91.26
3001.00,91.27
3000.00,91.29
2999.00,91.30
2998.00,91.31
2997.00,91.31
2996.00,91.31
2995.00,91.31
2994.00,91.32
2993.00,91.34
2992.00,91.36
2991.00,91.38
2990.00,91.39
2989.00,91.38
2988.00,91.38
2987.00,91.37
2986.00,91.36
2985.00,91.34
2984.00,91.32
2983.00,91.31
2982.00,91.31
2981.00,91.32
2980.00,91.32
2979.00,91.31
2978.00,91.28
2977.00,91.25
2976.00,91.24
2975.00,91.24
2974.00,91.25
2973.00,91.25
2972.00,91.24
2971.00,91.22
2970.00,91.20
2969.00,91.19
2968.00,91.17
2967.00,91.14
2966.00,91.12
2965.00,91.10
2964.00,91.07
2963.00,91.04
2962.00,91.00
2961.00,90.97
2960.00,90.95
2959.00,90.92
2958.00,90.90
2957.00,90.87
2956.00,90.84
2955.00,90.79
2954.00,90.74
2953.00,90.70
2952.00,90.68
2951.00,90.67
2950.00,90.65
2949.00,90.61
2948.00,90.56
2947.00,90.50
2946.00,90.44
2945.00,90.37
2944.00,90.30
2943.00,90.24
2942.00,90.18
2941.00,90.12
2940.00,90.05
2939.00,89.99
2938.00,89.93
2937.00,89.86
2936.00,89.80
2935.00,89.75
2934.00,89.70
2933.00,89.66
2932.00,89.62
2931.00,89.58
2930.00,89.54
2929.00,89.50
2928.00,89.47
2927.00,89.42
2926.00,89.37
2925.00,89.33
2924.00,89.29
2923.00,89.26
2922.00,89.23
2921.00,89.20
2920.00,89.17
2919.00,89.14
2918.00,89.11
2917.00,89.08
2916.00,89.04
2915.00,89.00
2914.00,88.96
2913.00,88.93
2912.00,88.90
2911.00,88.87
2910.00,88.82
2909.00,88.78
2908.00,88.73
2907.00,88.69
2906.00,88.65
2905.00,88.61
2904.00,88.57
2903.00,88.53
2902.00,88.49
2901.00,88.46
2900.00,88.43
2899.00,88.41
2898.00,88.39
2897.00,88.37
2896.00,88.33
2895.00,88.30
2894.00,88.28
2893.00,88.28
2892.00,88.28
2891.00,88.28
2890.00,88.27
2889.00,88.26
2888.00,88.25
2887.00,88.24
2886.00,88.25
2885.00,88.26
2884.00,88.27
2883.00,88.28
2882.00,88.28
2881.00,88.28
2880.00,88.28
2879.00,88.29
2878.00,88.31
2877.00,88.34
2876.00,88.36
2875.00,88.38
2874.00,88.40
2873.00,88.43
2872.00,88.47
2871.00,88.52
2870.00,88.56
2869.00,88.60
2868.00,88.62
2867.00,88.65
2866.00,88.69
2865.00,88.74
2864.00,88.79
2863.00,88.84
2862.00,88.89
2861.00,88.95
2860.00,89.01
2859.00,89.07
2858.00,89.12
2857.00,89.17
2856.00,89.22
2855.00,89.28
2854.00,89.33
2853.00,89.37
2852.00,89.40
2851.00,89.45
2850.00,89.50
2849.00,89.56
2848.00,89.62
2847.00,89.67
2846.00,89.73
2845.00,89.78
2844.00,89.84
2843.00,89.89
2842.00,89.94
2841.00,89.98
2840.00,90.02
2839.00,90.05
2838.00,90.09
2837.00,90.13
2836.00,90.16
2835.00,90.20
2834.00,90.24
2833.00,90.28
2832.00,90.31
2831.00,90.34
2830.00,90.37
2829.00,90.40
2828.00,90.42
2827.00,90.45
2826.00,90.48
2825.00,90.50
2824.00,90.53
2823.00,90.55
2822.00,90.57
2821.00,90.58
2820.00,90.60
2819.00,90.63
2818.00,90.66
2817.00,90.68
2816.00,90.70
2815.00,90.71
2814.00,90.72
2813.00,90.73
2812.00,90.74
2811.00,90.75
2810.00,90.76
2809.00,90.78
2808.00,90.80
2807.00,90.83
2806.00,90.86
2805.00,90.89
2804.00,90.91
2803.00,90.92
2802.00,90.94
2801.00,90.96
2800.00,90.99
2799.00,91.01
2798.00,91.02
2797.00,91.02
2796.00,91.01
2795.00,91.02
2794.00,91.03
2793.00,91.06
2792.00,91.08
2791.00,91.11
2790.00,91.12
2789.00,91.13
2788.00,91.13
2787.00,91.14
2786.00,91.14
2785.00,91.15
2784.00,91.17
2783.00,91.19
2782.00,91.22
2781.00,91.23
2780.00,91.25
2779.00,91.26
2778.00,91.27
2777.00,91.29
2776.00,91.32
2775.00,91.34
2774.00,91.35
2773.00,91.35
2772.00,91.35
2771.00,91.35
2770.00,91.36
2769.00,91.37
2768.00,91.37
2767.00,91.37
2766.00,91.38
2765.00,91.39
2764.00,91.41
2763.00,91.42
2762.00,91.43
2761.00,91.45
2760.00,91.45
2759.00,91.46
2758.00,91.47
2757.00,91.49
2756.00,91.51
2755.00,91.53
2754.00,91.54
2753.00,91.54
2752.00,91.53
2751.00,91.52
2750.00,91.52
2749.00,91.52
2748.00,91.53
2747.00,91.53
2746.00,91.54
2745.00,91.55
2744.00,91.55
2743.00,91.56
2742.00,91.57
2741.00,91.58
2740.00,91.59
2739.00,91.59
2738.00,91.60
2737.00,91.60
2736.00,91.59
2735.00,91.58
2734.00,91.58
2733.00,91.58
2732.00,91.59
2731.00,91.59
2730.00,91.59
2729.00,91.60
2728.00,91.62
2727.00,91.63
2726.00,91.64
2725.00,91.64
2724.00,91.64
2723.00,91.64
2722.00,91.64
2721.00,91.64
2720.00,91.65
2719.00,91.67
2718.00,91.68
2717.00,91.68
2716.00,91.67
2715.00,91.66
2714.00,91.66
2713.00,91.67
2712.00,91.68
2711.00,91.70
2710.00,91.71
2709.00,91.72
2708.00,91.73
2707.00,91.73
2706.00,91.73
2705.00,91.74
2704.00,91.74
2703.00,91.75
2702.00,91.76
2701.00,91.78
2700.00,91.80
2699.00,91.81
2698.00,91.82
2697.00,91.82
2696.00,91.82
2695.00,91.82
2694.00,91.82
2693.00,91.82
2692.00,91.81
2691.00,91.81
2690.00,91.82
2689.00,91.84
2688.00,91.85
2687.00,91.85
2686.00,91.85
2685.00,91.85
2684.00,91.86
2683.00,91.87
2682.00,91.88
2681.00,91.90
2680.00,91.92
2679.00,91.94
2678.00,91.95
2677.00,91.95
2676.00,91.95
2675.00,91.94
2674.00,91.94
2673.00,91.95
2672.00,91.96
2671.00,91.97
2670.00,91.98
2669.00,92.00
2668.00,92.02
2667.00,92.03
2666.00,92.05
2665.00,92.06
2664.00,92.06
2663.00,92.06
2662.00,92.04
2661.00,92.03
2660.00,92.01
2659.00,92.01
2658.00,92.01
2657.00,92.01
2656.00,92.01
2655.00,92.01
2654.00,92.00
2653.00,92.00
2652.00,91.99
2651.00,92.00
2650.00,91.99
2649.00,91.99
2648.00,91.98
2647.00,91.98
2646.00,91.99
2645.00,91.99
2644.00,91.99
2643.00,91.99
2642.00,91.98
2641.00,91.97
2640.00,91.96
2639.00,91.96
2638.00,91.96
2637.00,91.96
2636.00,91.95
2635.00,91.94
2634.00,91.94
2633.00,91.95
2632.00,91.95
2631.00,91.96
2630.00,91.95
2629.00,91.94
2628.00,91.93
2627.00,91.93
2626.00,91.93
2625.00,91.93
2624.00,91.92
2623.00,91.91
2622.00,91.90
2621.00,91.91
2620.00,91.92
2619.00,91.94
2618.00,91.94
2617.00,91.94
2616.00,91.93
2615.00,91.93
2614.00,91.94
2613.00,91.96
2612.00,91.97
2611.00,91.98
2610.00,91.97
2609.00,91.96
2608.00,91.95
2607.00,91.95
2606.00,91.97
2605.00,91.98
2604.00,91.99
2603.00,92.00
2602.00,92.00
2601.00,91.99
2600.00,91.98
2599.00,91.97
2598.00,91.97
2597.00,91.96
2596.00,91.95
2595.00,91.93
2594.00,91.91
2593.00,91.90
2592.00,91.91
2591.00,91.93
2590.00,91.94
2589.00,91.94
2588.00,91.94
2587.00,91.94
2586.00,91.94
2585.00,91.93
2584.00,91.91
2583.00,91.91
2582.00,91.92
2581.00,91.95
2580.00,91.96
2579.00,91.96
2578.00,91.94
2577.00,91.92
2576.00,91.92
2575.00,91.92
2574.00,91.94
2573.00,91.95
2572.00,91.96
2571.00,91.95
2570.00,91.94
2569.00,91.93
2568.00,91.93
2567.00,91.93
2566.00,91.93
2565.00,91.92
2564.00,91.91
2563.00,91.91
2562.00,91.92
2561.00,91.93
2560.00,91.92
2559.00,91.90
2558.00,91.90
2557.00,91.91
2556.00,91.93
2555.00,91.95
2554.00,91.96
2553.00,91.96
2552.00,91.96
2551.00,91.94
2550.00,91.93
2549.00,91.92
2548.00,91.91
2547.00,91.91
2546.00,91.91
2545.00,91.92
2544.00,91.94
2543.00,91.95
2542.00,91.97
2541.00,91.99
2540.00,92.00
2539.00,91.99
2538.00,91.98
2537.00,91.97
2536.00,91.96
2535.00,91.95
2534.00,91.94
2533.00,91.93
2532.00,91.92
2531.00,91.92
2530.00,91.93
2529.00,91.93
2528.00,91.95
2527.00,91.97
2526.00,91.99
2525.00,91.99
2524.00,91.98
2523.00,91.98
2522.00,91.99
2521.00,92.02
2520.00,92.06
2519.00,92.07
2518.00,92.06
2517.00,92.03
2516.00,91.99
2515.00,91.97
2514.00,91.95
2513.00,91.95
2512.00,91.97
2511.00,91.99
2510.00,92.02
2509.00,92.03
2508.00,92.03
2507.00,92.02
2506.00,92.02
2505.00,92.04
2504.00,92.05
2503.00,92.07
2502.00,92.07
2501.00,92.06
2500.00,92.05
2499.00,92.04
2498.00,92.03
2497.00,92.03
2496.00,92.03
2495.00,92.03
2494.00,92.04
2493.00,92.05
2492.00,92.06
2491.00,92.06
2490.00,92.05
2489.00,92.03
2488.00,92.01
2487.00,92.01
2486.00,92.01
2485.00,92.04
2484.00,92.06
2483.00,92.09
2482.00,92.12
2481.00,92.13
2480.00,92.14
2479.00,92.13
2478.00,92.12
2477.00,92.12
2476.00,92.12
2475.00,92.10
2474.00,92.09
2473.00,92.09
2472.00,92.09
2471.00,92.10
2470.00,92.10
2469.00,92.10
2468.00,92.09
2467.00,92.08
2466.00,92.08
2465.00,92.08
2464.00,92.08
2463.00,92.09
2462.00,92.10
2461.00,92.11
2460.00,92.14
2459.00,92.16
2458.00,92.18
2457.00,92.17
2456.00,92.16
2455.00,92.14
2454.00,92.13
2453.00,92.12
2452.00,92.12
2451.00,92.13
2450.00,92.14
2449.00,92.15
2448.00,92.16
2447.00,92.17
2446.00,92.17
2445.00,92.16
2444.00,92.15
2443.00,92.14
2442.00,92.15
2441.00,92.16
2440.00,92.18
2439.00,92.20
2438.00,92.22
2437.00,92.24
2436.00,92.24
2435.00,92.25
2434.00,92.24
2433.00,92.25
2432.00,92.25
2431.00,92.26
2430.00,92.27
2429.00,92.28
2428.00,92.28
2427.00,92.28
2426.00,92.26
2425.00,92.24
2424.00,92.23
2423.00,92.23
2422.00,92.26
2421.00,92.28
2420.00,92.28
2419.00,92.28
2418.00,92.28
2417.00,92.29
2416.00,92.31
2415.00,92.32
2414.00,92.32
2413.00,92.31
2412.00,92.30
2411.00,92.30
2410.00,92.31
2409.00,92.33
2408.00,92.37
2407.00,92.40
2406.00,92.42
2405.00,92.43
2404.00,92.44
2403.00,92.44
2402.00,92.43
2401.00,92.42
2400.00,92.41
2399.00,92.42
2398.00,92.44
2397.00,92.47
2396.00,92.49
2395.00,92.50
2394.00,92.51
2393.00,92.51
2392.00,92.51
2391.00,92.52
2390.00,92.53
2389.00,92.55
2388.00,92.57
2387.00,92.60
2386.00,92.62
2385.00,92.64
2384.00,92.68
2383.00,92.72
2382.00,92.76
2381.00,92.81
2380.00,92.84
2379.00,92.87
2378.00,92.92
2377.00,92.94
2376.00,92.93
2375.00,92.88
2374.00,92.84
2373.00,92.83
2372.00,92.85
2371.00,92.88
2370.00,92.89
2369.00,92.88
2368.00,92.87
2367.00,92.87
2366.00,92.87
2365.00,92.89
2364.00,92.91
2363.00,92.95
2362.00,92.98
2361.00,93.01
2360.00,93.03
2359.00,93.04
2358.00,93.05
2357.00,93.03
2356.00,93.00
2355.00,92.95
2354.00,92.92
2353.00,92.93
2352.00,93.00
2351.00,93.10
2350.00,93.19
2349.00,93.21
2348.00,93.16
2347.00,93.10
2346.00,93.04
2345.00,93.00
2344.00,92.97
2343.00,92.95
2342.00,92.95
2341.00,92.97
2340.00,93.00
2339.00,93.01
2338.00,92.98
2337.00,92.94
2336.00,92.91
2335.00,92.89
2334.00,92.89
2333.00,92.88
2332.00,92.88
2331.00,92.88
2330.00,92.87
2329.00,92.87
2328.00,92.87
2327.00,92.84
2326.00,92.78
2325.00,92.70
2324.00,92.64
2323.00,92.63
2322.00,92.66
2321.00,92.68
2320.00,92.69
2319.00,92.68
2318.00,92.67
2317.00,92.65
2316.00,92.63
2315.00,92.60
2314.00,92.57
2313.00,92.54
2312.00,92.51
2311.00,92.48
2310.00,92.46
2309.00,92.43
2308.00,92.41
2307.00,92.40
2306.00,92.39
2305.00,92.38
2304.00,92.36
2303.00,92.36
2302.00,92.37
2301.00,92.38
2300.00,92.37
2299.00,92.36
2298.00,92.35
2297.00,92.34
2296.00,92.33
2295.00,92.33
2294.00,92.31
2293.00,92.28
2292.00,92.24
2291.00,92.19
2290.00,92.15
2289.00,92.11
2288.00,92.08
2287.00,92.05
2286.00,92.05
2285.00,92.05
2284.00,92.06
2283.00,92.06
2282.00,92.06
2281.00,92.07
2280.00,92.05
2279.00,92.02
2278.00,91.99
2277.00,91.97
2276.00,91.97
2275.00,91.99
2274.00,92.01
2273.00,92.02
2272.00,92.01
2271.00,91.99
2270.00,91.97
2269.00,91.95
2268.00,91.92
2267.00,91.89
2266.00,91.86
2265.00,91.83
2264.00,91.80
2263.00,91.78
2262.00,91.78
2261.00,91.78
2260.00,91.76
2259.00,91.73
2258.00,91.71
2257.00,91.72
2256.00,91.76
2255.00,91.81
2254.00,91.85
2253.00,91.86
2252.00,91.85
2251.00,91.83
2250.00,91.82
2249.00,91.80
2248.00,91.79
2247.00,91.76
2246.00,91.72
2245.00,91.67
2244.00,91.63
2243.00,91.60
2242.00,91.58
2241.00,91.57
2240.00,91.57
2239.00,91.59
2238.00,91.60
2237.00,91.61
2236.00,91.62
2235.00,91.67
2234.00,91.72
2233.00,91.75
2232.00,91.74
2231.00,91.72
2230.00,91.69
2229.00,91.67
2228.00,91.63
2227.00,91.59
2226.00,91.55
2225.00,91.51
2224.00,91.48
2223.00,91.46
2222.00,91.44
2221.00,91.42
2220.00,91.41
2219.00,91.42
2218.00,91.42
2217.00,91.41
2216.00,91.38
2215.00,91.36
2214.00,91.37
2213.00,91.38
2212.00,91.39
2211.00,91.39
2210.00,91.38
2209.00,91.38
2208.00,91.38
2207.00,91.38
2206.00,91.37
2205.00,91.37
2204.00,91.38
2203.00,91.38
2202.00,91.35
2201.00,91.31
2200.00,91.27
2199.00,91.23
2198.00,91.22
2197.00,91.20
2196.00,91.19
2195.00,91.17
2194.00,91.18
2193.00,91.20
2192.00,91.21
2191.00,91.17
2190.00,91.11
2189.00,91.08
2188.00,91.08
2187.00,91.11
2186.00,91.11
2185.00,91.08
2184.00,91.04
2183.00,91.04
2182.00,91.05
2181.00,91.06
2180.00,91.07
2179.00,91.06
2178.00,91.04
2177.00,91.04
2176.00,91.08
2175.00,91.15
2174.00,91.20
2173.00,91.19
2172.00,91.11
2171.00,90.99
2170.00,90.87
2169.00,90.81
2168.00,90.82
2167.00,90.86
2166.00,90.89
2165.00,90.87
2164.00,90.77
2163.00,90.62
2162.00,90.47
2161.00,90.41
2160.00,90.49
2159.00,90.70
2158.00,90.94
2157.00,91.10
2156.00,91.16
2155.00,91.16
2154.00,91.17
2153.00,91.17
2152.00,91.17
2151.00,91.15
2150.00,91.13
2149.00,91.13
2148.00,91.15
2147.00,91.18
2146.00,91.23
2145.00,91.29
2144.00,91.37
2143.00,91.45
2142.00,91.52
2141.00,91.56
2140.00,91.56
2139.00,91.54
2138.00,91.52
2137.00,91.54
2136.00,91.60
2135.00,91.67
2134.00,91.73
2133.00,91.75
2132.00,91.74
2131.00,91.72
2130.00,91.70
2129.00,91.70
2128.00,91.71
2127.00,91.73
2126.00,91.77
2125.00,91.80
2124.00,91.82
2123.00,91.82
2122.00,91.79
2121.00,91.77
2120.00,91.74
2119.00,91.74
2118.00,91.74
2117.00,91.74
2116.00,91.74
2115.00,91.74
2114.00,91.75
2113.00,91.75
2112.00,91.75
2111.00,91.74
2110.00,91.72
2109.00,91.71
2108.00,91.71
2107.00,91.73
2106.00,91.76
2105.00,91.79
2104.00,91.81
2103.00,91.79
2102.00,91.75
2101.00,91.71
2100.00,91.68
2099.00,91.67
2098.00,91.69
2097.00,91.73
2096.00,91.78
2095.00,91.82
2094.00,91.84
2093.00,91.85
2092.00,91.86
2091.00,91.87
2090.00,91.87
2089.00,91.84
2088.00,91.80
2087.00,91.76
2086.00,91.74
2085.00,91.73
2084.00,91.75
2083.00,91.75
2082.00,91.75
2081.00,91.73
2080.00,91.71
2079.00,91.69
2078.00,91.66
2077.00,91.63
2076.00,91.60
2075.00,91.59
2074.00,91.60
2073.00,91.60
2072.00,91.61
2071.00,91.61
2070.00,91.60
2069.00,91.59
2068.00,91.59
2067.00,91.60
2066.00,91.62
2065.00,91.62
2064.00,91.59
2063.00,91.54
2062.00,91.49
2061.00,91.48
2060.00,91.49
2059.00,91.50
2058.00,91.49
2057.00,91.46
2056.00,91.43
2055.00,91.41
2054.00,91.37
2053.00,91.32
2052.00,91.24
2051.00,91.17
2050.00,91.15
2049.00,91.17
2048.00,91.22
2047.00,91.27
2046.00,91.29
2045.00,91.27
2044.00,91.23
2043.00,91.18
2042.00,91.14
2041.00,91.10
2040.00,91.07
2039.00,91.05
2038.00,91.04
2037.00,91.05
2036.00,91.07
2035.00,91.10
2034.00,91.14
2033.00,91.17
2032.00,91.18
2031.00,91.15
2030.00,91.12
2029.00,91.11
2028.00,91.11
2027.00,91.10
2026.00,91.07
2025.00,91.02
2024.00,91.00
2023.00,91.02
2022.00,91.10
2021.00,91.18
2020.00,91.22
2019.00,91.21
2018.00,91.16
2017.00,91.10
2016.00,91.04
2015.00,91.02
2014.00,91.03
2013.00,91.08
2012.00,91.15
2011.00,91.24
2010.00,91.30
2009.00,91.35
2008.00,91.37
2007.00,91.37
2006.00,91.37
2005.00,91.35
2004.00,91.34
2003.00,91.36
2002.00,91.43
2001.00,91.53
2000.00,91.62
1999.00,91.67
1998.00,91.66
1997.00,91.60
1996.00,91.53
1995.00,91.46
1994.00,91.43
1993.00,91.43
1992.00,91.46
1991.00,91.51
1990.00,91.57
1989.00,91.60
1988.00,91.60
1987.00,91.57
1986.00,91.51
1985.00,91.46
1984.00,91.42
1983.00,91.37
1982.00,91.31
1981.00,91.24
1980.00,91.19
1979.00,91.16
1978.00,91.17
1977.00,91.20
1976.00,91.23
1975.00,91.23
1974.00,91.25
1973.00,91.30
1972.00,91.35
1971.00,91.38
1970.00,91.40
1969.00,91.42
1968.00,91.48
1967.00,91.56
1966.00,91.62
1965.00,91.65
1964.00,91.65
1963.00,91.65
1962.00,91.66
1961.00,91.66
1960.00,91.68
1959.00,91.71
1958.00,91.75
1957.00,91.79
1956.00,91.82
1955.00,91.83
1954.00,91.83
1953.00,91.83
1952.00,91.84
1951.00,91.87
1950.00,91.89
1949.00,91.89
1948.00,91.87
1947.00,91.87
1946.00,91.89
1945.00,91.94
1944.00,92.00
1943.00,92.05
1942.00,92.11
1941.00,92.14
1940.00,92.14
1939.00,92.10
1938.00,92.05
1937.00,92.01
1936.00,92.01
1935.00,92.04
1934.00,92.11
1933.00,92.19
1932.00,92.25
1931.00,92.27
1930.00,92.25
1929.00,92.23
1928.00,92.22
1927.00,92.21
1926.00,92.20
1925.00,92.19
1924.00,92.19
1923.00,92.21
1922.00,92.23
1921.00,92.24
1920.00,92.24
1919.00,92.24
1918.00,92.24
1917.00,92.26
1916.00,92.29
1915.00,92.32
1914.00,92.34
1913.00,92.34
1912.00,92.34
1911.00,92.35
1910.00,92.38
1909.00,92.42
1908.00,92.45
1907.00,92.47
1906.00,92.48
1905.00,92.48
1904.00,92.47
1903.00,92.46
1902.00,92.45
1901.00,92.45
1900.00,92.45
1899.00,92.46
1898.00,92.47
1897.00,92.48
1896.00,92.49
1895.00,92.50
1894.00,92.52
1893.00,92.53
1892.00,92.53
1891.00,92.53
1890.00,92.53
1889.00,92.53
1888.00,92.55
1887.00,92.57
1886.00,92.59
1885.00,92.59
1884.00,92.58
1883.00,92.59
1882.00,92.59
1881.00,92.59
1880.00,92.57
1879.00,92.56
1878.00,92.54
1877.00,92.53
1876.00,92.55
1875.00,92.58
1874.00,92.60
1873.00,92.60
1872.00,92.58
1871.00,92.55
1870.00,92.54
1869.00,92.55
1868.00,92.57
1867.00,92.58
1866.00,92.59
1865.00,92.61
1864.00,92.62
1863.00,92.63
1862.00,92.64
1861.00,92.65
1860.00,92.66
1859.00,92.67
1858.00,92.68
1857.00,92.68
1856.00,92.69
1855.00,92.70
1854.00,92.71
1853.00,92.72
1852.00,92.73
1851.00,92.73
1850.00,92.72
1849.00,92.72
1848.00,92.72
1847.00,92.74
1846.00,92.77
1845.00,92.80
1844.00,92.81
1843.00,92.81
1842.00,92.81
1841.00,92.82
1840.00,92.84
1839.00,92.85
1838.00,92.85
1837.00,92.83
1836.00,92.81
1835.00,92.80
1834.00,92.81
1833.00,92.81
1832.00,92.81
1831.00,92.83
1830.00,92.85
1829.00,92.85
1828.00,92.85
1827.00,92.84
1826.00,92.84
1825.00,92.84
1824.00,92.84
1823.00,92.83
1822.00,92.83
1821.00,92.83
1820.00,92.84
1819.00,92.87
1818.00,92.90
1817.00,92.93
1816.00,92.94
1815.00,92.94
1814.00,92.95
1813.00,92.94
1812.00,92.94
1811.00,92.93
1810.00,92.92
1809.00,92.93
1808.00,92.94
1807.00,92.94
1806.00,92.94
1805.00,92.94
1804.00,92.94
1803.00,92.94
1802.00,92.94
1801.00,92.94
1800.00,92.94
1799.00,92.96
1798.00,93.00
1797.00,93.01
1796.00,93.01
1795.00,92.99
1794.00,92.97
1793.00,92.96
1792.00,92.95
1791.00,92.95
1790.00,92.96
1789.00,92.96
1788.00,92.95
1787.00,92.95
1786.00,92.94
1785.00,92.93
1784.00,92.93
1783.00,92.94
1782.00,92.96
1781.00,92.98
1780.00,92.99
1779.00,92.99
1778.00,92.99
1777.00,92.99
1776.00,92.98
1775.00,92.98
1774.00,92.98
1773.00,92.98
1772.00,92.98
1771.00,92.97
1770.00,92.97
1769.00,92.97
1768.00,92.97
1767.00,92.97
1766.00,92.97
1765.00,92.97
1764.00,92.97
1763.00,92.98
1762.00,93.00
1761.00,93.02
1760.00,93.01
1759.00,93.00
1758.00,92.99
1757.00,92.99
1756.00,93.00
1755.00,92.99
1754.00,92.97
1753.00,92.95
1752.00,92.94
1751.00,92.94
1750.00,92.96
1749.00,92.97
1748.00,92.98
1747.00,92.97
1746.00,92.96
1745.00,92.97
1744.00,92.98
1743.00,92.98
1742.00,92.98
1741.00,92.97
1740.00,92.96
1739.00,92.95
1738.00,92.95
1737.00,92.96
1736.00,92.96
1735.00,92.97
1734.00,92.96
1733.00,92.96
1732.00,92.95
1731.00,92.95
1730.00,92.95
1729.00,92.95
1728.00,92.95
1727.00,92.95
1726.00,92.95
1725.00,92.95
1724.00,92.94
1723.00,92.92
1722.00,92.91
1721.00,92.90
1720.00,92.90
1719.00,92.92
1718.00,92.95
1717.00,92.94
1716.00,92.89
1715.00,92.85
1714.00,92.82
1713.00,92.80
1712.00,92.79
1711.00,92.79
1710.00,92.79
1709.00,92.78
1708.00,92.77
1707.00,92.76
1706.00,92.76
1705.00,92.75
1704.00,92.75
1703.00,92.75
1702.00,92.75
1701.00,92.74
1700.00,92.72
1699.00,92.71
1698.00,92.71
1697.00,92.71
1696.00,92.68
1695.00,92.63
1694.00,92.57
1693.00,92.52
1692.00,92.48
1691.00,92.46
1690.00,92.44
1689.00,92.42
1688.00,92.41
1687.00,92.40
1686.00,92.39
1685.00,92.35
1684.00,92.29
1683.00,92.22
1682.00,92.16
1681.00,92.12
1680.00,92.08
1679.00,92.04
1678.00,92.00
1677.00,91.96
1676.00,91.92
1675.00,91.88
1674.00,91.83
1673.00,91.78
1672.00,91.73
1671.00,91.67
1670.00,91.60
1669.00,91.52
1668.00,91.45
1667.00,91.39
1666.00,91.36
1665.00,91.33
1664.00,91.30
1663.00,91.25
1662.00,91.19
1661.00,91.13
1660.00,91.09
1659.00,91.05
1658.00,91.02
1657.00,90.99
1656.00,90.97
1655.00,90.96
1654.00,90.94
1653.00,90.89
1652.00,90.83
1651.00,90.78
1650.00,90.74
1649.00,90.70
1648.00,90.67
1647.00,90.64
1646.00,90.61
1645.00,90.58
1644.00,90.56
1643.00,90.54
1642.00,90.54
1641.00,90.54
1640.00,90.53
1639.00,90.53
1638.00,90.53
1637.00,90.52
1636.00,90.50
1635.00,90.47
1634.00,90.47
1633.00,90.49
1632.00,90.51
1631.00,90.53
1630.00,90.56
1629.00,90.59
1628.00,90.61
1627.00,90.63
1626.00,90.64
1625.00,90.66
1624.00,90.69
1623.00,90.72
1622.00,90.76
1621.00,90.79
1620.00,90.83
1619.00,90.87
1618.00,90.92
1617.00,90.95
1616.00,90.97
1615.00,90.98
1614.00,90.99
1613.00,91.02
1612.00,91.04
1611.00,91.07
1610.00,91.10
1609.00,91.13
1608.00,91.16
1607.00,91.18
1606.00,91.20
1605.00,91.22
1604.00,91.26
1603.00,91.31
1602.00,91.34
1601.00,91.35
1600.00,91.36
1599.00,91.36
1598.00,91.38
1597.00,91.40
1596.00,91.43
1595.00,91.46
1594.00,91.50
1593.00,91.54
1592.00,91.57
1591.00,91.60
1590.00,91.63
1589.00,91.67
1588.00,91.70
1587.00,91.72
1586.00,91.74
1585.00,91.76
1584.00,91.79
1583.00,91.81
1582.00,91.85
1581.00,91.88
1580.00,91.92
1579.00,91.96
1578.00,91.99
1577.00,92.03
1576.00,92.06
1575.00,92.06
1574.00,92.07
1573.00,92.07
1572.00,92.09
1571.00,92.10
1570.00,92.11
1569.00,92.13
1568.00,92.15
1567.00,92.17
1566.00,92.19
1565.00,92.21
1564.00,92.23
1563.00,92.24
1562.00,92.25
1561.00,92.24
1560.00,92.24
1559.00,92.24
1558.00,92.26
1557.00,92.30
1556.00,92.34
1555.00,92.37
1554.00,92.38
1553.00,92.38
1552.00,92.37
1551.00,92.37
1550.00,92.37
1549.00,92.38
1548.00,92.39
1547.00,92.40
1546.00,92.42
1545.00,92.43
1544.00,92.45
1543.00,92.45
1542.00,92.45
1541.00,92.45
1540.00,92.45
1539.00,92.46
1538.00,92.48
1537.00,92.49
1536.00,92.50
1535.00,92.50
1534.00,92.50
1533.00,92.52
1532.00,92.54
1531.00,92.56
1530.00,92.57
1529.00,92.57
1528.00,92.57
1527.00,92.58
1526.00,92.59
1525.00,92.60
1524.00,92.61
1523.00,92.62
1522.00,92.61
1521.00,92.59
1520.00,92.57
1519.00,92.57
1518.00,92.58
1517.00,92.59
1516.00,92.58
1515.00,92.58
1514.00,92.58
1513.00,92.59
1512.00,92.58
1511.00,92.57
1510.00,92.56
1509.00,92.58
1508.00,92.60
1507.00,92.60
1506.00,92.59
1505.00,92.57
1504.00,92.55
1503.00,92.53
1502.00,92.52
1501.00,92.50
1500.00,92.47
1499.00,92.45
1498.00,92.45
1497.00,92.45
1496.00,92.44
1495.00,92.41
1494.00,92.37
1493.00,92.32
1492.00,92.27
1491.00,92.24
1490.00,92.21
1489.00,92.16
1488.00,92.08
1487.00,92.01
1486.00,91.95
1485.00,91.89
1484.00,91.83
1483.00,91.76
1482.00,91.68
1481.00,91.60
1480.00,91.52
1479.00,91.44
1478.00,91.35
1477.00,91.24
1476.00,91.13
1475.00,91.02
1474.00,90.91
1473.00,90.80
1472.00,90.69
1471.00,90.61
1470.00,90.54
1469.00,90.46
1468.00,90.38
1467.00,90.29
1466.00,90.20
1465.00,90.09
1464.00,90.00
1463.00,89.93
1462.00,89.87
1461.00,89.82
1460.00,89.79
1459.00,89.75
1458.00,89.70
1457.00,89.62
1456.00,89.52
1455.00,89.46
1454.00,89.41
1453.00,89.36
1452.00,89.31
1451.00,89.25
1450.00,89.19
1449.00,89.13
1448.00,89.06
1447.00,88.99
1446.00,88.92
1445.00,88.86
1444.00,88.81
1443.00,88.76
1442.00,88.71
1441.00,88.66
1440.00,88.62
1439.00,88.58
1438.00,88.53
1437.00,88.48
1436.00,88.44
1435.00,88.42
1434.00,88.40
1433.00,88.37
1432.00,88.33
1431.00,88.29
1430.00,88.25
1429.00,88.22
1428.00,88.20
1427.00,88.19
1426.00,88.16
1425.00,88.13
1424.00,88.10
1423.00,88.07
1422.00,88.07
1421.00,88.06
1420.00,88.05
1419.00,88.03
1418.00,88.01
1417.00,88.01
1416.00,88.01
1415.00,88.01
1414.00,88.01
1413.00,88.01
1412.00,88.02
1411.00,88.03
1410.00,88.05
1409.00,88.08
1408.00,88.10
1407.00,88.12
1406.00,88.12
1405.00,88.12
1404.00,88.12
1403.00,88.13
1402.00,88.13
1401.00,88.14
1400.00,88.14
1399.00,88.14
1398.00,88.13
1397.00,88.12
1396.00,88.12
1395.00,88.12
1394.00,88.11
1393.00,88.09
1392.00,88.06
1391.00,88.01
1390.00,87.95
1389.00,87.89
1388.00,87.82
1387.00,87.73
1386.00,87.63
1385.00,87.51
1384.00,87.38
1383.00,87.24
1382.00,87.08
1381.00,86.91
1380.00,86.73
1379.00,86.56
1378.00,86.39
1377.00,86.24
1376.00,86.10
1375.00,85.98
1374.00,85.87
1373.00,85.77
1372.00,85.69
1371.00,85.63
1370.00,85.58
1369.00,85.54
1368.00,85.51
1367.00,85.48
1366.00,85.46
1365.00,85.44
1364.00,85.44
1363.00,85.47
1362.00,85.52
1361.00,85.58
1360.00,85.64
1359.00,85.70
1358.00,85.78
1357.00,85.85
1356.00,85.92
1355.00,85.98
1354.00,86.04
1353.00,86.09
1352.00,86.14
1351.00,86.18
1350.00,86.22
1349.00,86.25
1348.00,86.27
1347.00,86.28
1346.00,86.28
1345.00,86.28
1344.00,86.27
1343.00,86.26
1342.00,86.24
1341.00,86.21
1340.00,86.17
1339.00,86.12
1338.00,86.07
1337.00,86.04
1336.00,86.03
1335.00,86.02
1334.00,86.02
1333.00,86.02
1332.00,86.03
1331.00,86.04
1330.00,86.04
1329.00,86.05
1328.00,86.06
1327.00,86.08
1326.00,86.09
1325.00,86.08
1324.00,86.07
1323.00,86.04
1322.00,85.99
1321.00,85.93
1320.00,85.86
1319.00,85.77
1318.00,85.69
1317.00,85.62
1316.00,85.56
1315.00,85.52
1314.00,85.50
1313.00,85.51
1312.00,85.53
1311.00,85.56
1310.00,85.62
1309.00,85.70
1308.00,85.80
1307.00,85.90
1306.00,86.00
1305.00,86.09
1304.00,86.18
1303.00,86.28
1302.00,86.38
1301.00,86.48
1300.00,86.58
1299.00,86.69
1298.00,86.79
1297.00,86.89
1296.00,86.99
1295.00,87.10
1294.00,87.21
1293.00,87.33
1292.00,87.44
1291.00,87.56
1290.00,87.69
1289.00,87.81
1288.00,87.90
1287.00,87.97
1286.00,88.01
1285.00,88.03
1284.00,88.04
1283.00,88.04
1282.00,88.02
1281.00,87.99
1280.00,87.96
1279.00,87.92
1278.00,87.89
1277.00,87.87
1276.00,87.86
1275.00,87.85
1274.00,87.85
1273.00,87.83
1272.00,87.80
1271.00,87.75
1270.00,87.71
1269.00,87.66
1268.00,87.62
1267.00,87.59
1266.00,87.56
1265.00,87.54
1264.00,87.54
1263.00,87.54
1262.00,87.54
1261.00,87.54
1260.00,87.56
1259.00,87.59
1258.00,87.63
1257.00,87.68
1256.00,87.73
1255.00,87.80
1254.00,87.88
1253.00,87.97
1252.00,88.06
1251.00,88.13
1250.00,88.18
1249.00,88.22
1248.00,88.25
1247.00,88.28
1246.00,88.31
1245.00,88.35
1244.00,88.38
1243.00,88.40
1242.00,88.41
1241.00,88.41
1240.00,88.41
1239.00,88.40
1238.00,88.38
1237.00,88.37
1236.00,88.36
1235.00,88.36
1234.00,88.37
1233.00,88.40
1232.00,88.44
1231.00,88.49
1230.00,88.54
1229.00,88.58
1228.00,88.62
1227.00,88.67
1226.00,88.73
1225.00,88.81
1224.00,88.91
1223.00,89.02
1222.00,89.14
1221.00,89.28
1220.00,89.42
1219.00,89.55
1218.00,89.67
1217.00,89.76
1216.00,89.85
1215.00,89.93
1214.00,89.99
1213.00,90.01
1212.00,90.00
1211.00,89.96
1210.00,89.92
1209.00,89.85
1208.00,89.76
1207.00,89.65
1206.00,89.54
1205.00,89.43
1204.00,89.33
1203.00,89.24
1202.00,89.16
1201.00,89.11
1200.00,89.08
1199.00,89.10
1198.00,89.14
1197.00,89.21
1196.00,89.32
1195.00,89.45
1194.00,89.60
1193.00,89.76
1192.00,89.93
1191.00,90.11
1190.00,90.30
1189.00,90.47
1188.00,90.62
1187.00,90.74
1186.00,90.81
1185.00,90.84
1184.00,90.82
1183.00,90.78
1182.00,90.71
1181.00,90.62
1180.00,90.52
1179.00,90.41
1178.00,90.27
1177.00,90.09
1176.00,89.89
1175.00,89.67
1174.00,89.43
1173.00,89.18
1172.00,88.90
1171.00,88.59
1170.00,88.25
1169.00,87.88
1168.00,87.47
1167.00,87.02
1166.00,86.54
1165.00,86.05
1164.00,85.56
1163.00,85.10
1162.00,84.68
1161.00,84.30
1160.00,83.97
1159.00,83.70
1158.00,83.49
1157.00,83.35
1156.00,83.27
1155.00,83.26
1154.00,83.31
1153.00,83.42
1152.00,83.56
1151.00,83.75
1150.00,83.95
1149.00,84.18
1148.00,84.41
1147.00,84.65
1146.00,84.86
1145.00,85.04
1144.00,85.18
1143.00,85.29
1142.00,85.38
1141.00,85.45
1140.00,85.50
1139.00,85.50
1138.00,85.44
1137.00,85.31
1136.00,85.13
1135.00,84.94
1134.00,84.73
1133.00,84.50
1132.00,84.26
1131.00,84.02
1130.00,83.78
1129.00,83.51
1128.00,83.22
1127.00,82.93
1126.00,82.63
1125.00,82.32
1124.00,81.99
1123.00,81.65
1122.00,81.32
1121.00,81.01
1120.00,80.69
1119.00,80.38
1118.00,80.08
1117.00,79.80
1116.00,79.55
1115.00,79.31
1114.00,79.07
1113.00,78.83
1112.00,78.62
1111.00,78.44
1110.00,78.30
1109.00,78.17
1108.00,78.04
1107.00,77.91
1106.00,77.78
1105.00,77.63
1104.00,77.47
1103.00,77.27
1102.00,77.04
1101.00,76.77
1100.00,76.48
1099.00,76.21
1098.00,75.97
1097.00,75.75
1096.00,75.54
1095.00,75.35
1094.00,75.20
1093.00,75.07
1092.00,74.93
1091.00,74.77
1090.00,74.61
1089.00,74.45
1088.00,74.27
1087.00,74.07
1086.00,73.88
1085.00,73.69
1084.00,73.50
1083.00,73.30
1082.00,73.08
1081.00,72.83
1080.00,72.56
1079.00,72.29
1078.00,72.01
1077.00,71.69
1076.00,71.35
1075.00,71.00
1074.00,70.67
1073.00,70.34
1072.00,70.03
1071.00,69.72
1070.00,69.40
1069.00,69.05
1068.00,68.70
1067.00,68.37
1066.00,68.09
1065.00,67.81
1064.00,67.51
1063.00,67.19
1062.00,66.87
1061.00,66.57
1060.00,66.31
1059.00,66.10
1058.00,65.93
1057.00,65.77
1056.00,65.60
1055.00,65.46
1054.00,65.33
1053.00,65.21
1052.00,65.09
1051.00,65.00
1050.00,64.92
1049.00,64.84
1048.00,64.74
1047.00,64.63
1046.00,64.52
1045.00,64.41
1044.00,64.30
1043.00,64.20
1042.00,64.12
1041.00,64.05
1040.00,63.98
1039.00,63.91
1038.00,63.83
1037.00,63.71
1036.00,63.55
1035.00,63.37
1034.00,63.19
1033.00,62.99
1032.00,62.77
1031.00,62.52
1030.00,62.26
1029.00,62.00
1028.00,61.73
1027.00,61.47
1026.00,61.20
1025.00,60.94
1024.00,60.70
1023.00,60.49
1022.00,60.31
1021.00,60.16
1020.00,60.02
1019.00,59.92
1018.00,59.85
1017.00,59.80
1016.00,59.79
1015.00,59.84
1014.00,59.95
1013.00,60.10
1012.00,60.28
1011.00,60.48
1010.00,60.70
1009.00,60.92
1008.00,61.12
1007.00,61.31
1006.00,61.48
1005.00,61.62
1004.00,61.72
1003.00,61.79
1002.00,61.81
1001.00,61.78
1000.00,61.69
999.00,61.56
998.00,61.43
997.00,61.29
996.00,61.17
995.00,61.08
994.00,61.03
993.00,61.02
992.00,61.07
991.00,61.19
990.00,61.38
989.00,61.62
988.00,61.90
987.00,62.22
986.00,62.59
985.00,62.99
984.00,63.44
983.00,63.92
982.00,64.43
981.00,64.93
980.00,65.41
979.00,65.88
978.00,66.35
977.00,66.80
976.00,67.24
975.00,67.63
974.00,67.99
973.00,68.32
972.00,68.61
971.00,68.89
970.00,69.14
969.00,69.37
968.00,69.58
967.00,69.81
966.00,70.03
965.00,70.24
964.00,70.44
963.00,70.64
962.00,70.85
961.00,71.07
960.00,71.31
959.00,71.56
958.00,71.83
957.00,72.10
956.00,72.36
955.00,72.62
954.00,72.88
953.00,73.14
952.00,73.39
951.00,73.63
950.00,73.86
949.00,74.10
948.00,74.33
947.00,74.57
946.00,74.79
945.00,74.99
944.00,75.18
943.00,75.36
942.00,75.52
941.00,75.66
940.00,75.80
939.00,75.94
938.00,76.10
937.00,76.25
936.00,76.39
935.00,76.53
934.00,76.65
933.00,76.76
932.00,76.86
931.00,76.97
930.00,77.07
929.00,77.18
928.00,77.29
927.00,77.39
926.00,77.49
925.00,77.58
924.00,77.67
923.00,77.77
922.00,77.89
921.00,78.01
920.00,78.13
919.00,78.25
918.00,78.35
917.00,78.42
916.00,78.47
915.00,78.52
914.00,78.56
913.00,78.58
912.00,78.56
911.00,78.51
910.00,78.43
909.00,78.30
908.00,78.16
907.00,78.02
906.00,77.88
905.00,77.71
904.00,77.51
903.00,77.29
902.00,77.09
901.00,76.90
900.00,76.71
899.00,76.53
898.00,76.35
897.00,76.18
896.00,76.02
895.00,75.89
894.00,75.84
893.00,75.85
892.00,75.93
891.00,76.05
890.00,76.19
889.00,76.36
888.00,76.56
887.00,76.80
886.00,77.06
885.00,77.32
884.00,77.56
883.00,77.78
882.00,78.01
881.00,78.26
880.00,78.48
879.00,78.66
878.00,78.80
877.00,78.93
876.00,79.08
875.00,79.26
874.00,79.44
873.00,79.60
872.00,79.73
871.00,79.85
870.00,79.96
869.00,80.06
868.00,80.16
867.00,80.26
866.00,80.36
865.00,80.46
864.00,80.55
863.00,80.62
862.00,80.66
861.00,80.69
860.00,80.74
859.00,80.80
858.00,80.86
857.00,80.90
856.00,80.92
855.00,80.97
854.00,81.02
853.00,81.07
852.00,81.11
851.00,81.13
850.00,81.14
849.00,81.15
848.00,81.16
847.00,81.18
846.00,81.21
845.00,81.24
844.00,81.24
843.00,81.23
842.00,81.22
841.00,81.23
840.00,81.25
839.00,81.27
838.00,81.29
837.00,81.28
836.00,81.26
835.00,81.24
834.00,81.22
833.00,81.21
832.00,81.21
831.00,81.24
830.00,81.28
829.00,81.30
828.00,81.29
827.00,81.27
826.00,81.24
825.00,81.23
824.00,81.23
823.00,81.22
822.00,81.21
821.00,81.21
820.00,81.21
819.00,81.21
818.00,81.21
817.00,81.19
816.00,81.14
815.00,81.09
814.00,81.07
813.00,81.09
812.00,81.12
811.00,81.15
810.00,81.15
809.00,81.14
808.00,81.12
807.00,81.09
806.00,81.06
805.00,81.04
804.00,81.02
803.00,81.01
802.00,80.99
801.00,80.97
800.00,80.97
799.00,80.99
798.00,81.01
797.00,81.00
796.00,80.97
795.00,80.95
794.00,80.93
793.00,80.92
792.00,80.92
791.00,80.91
790.00,80.87
789.00,80.81
788.00,80.75
787.00,80.70
786.00,80.68
785.00,80.66
784.00,80.64
783.00,80.61
782.00,80.56
781.00,80.50
780.00,80.44
779.00,80.40
778.00,80.38
777.00,80.39
776.00,80.41
775.00,80.41
774.00,80.39
773.00,80.32
772.00,80.24
771.00,80.16
770.00,80.09
769.00,80.04
768.00,80.00
767.00,79.98
766.00,79.96
765.00,79.92
764.00,79.86
763.00,79.81
762.00,79.78
761.00,79.76
760.00,79.75
759.00,79.75
758.00,79.73
757.00,79.68
756.00,79.61
755.00,79.54
754.00,79.48
753.00,79.42
752.00,79.35
751.00,79.30
750.00,79.25
749.00,79.22
748.00,79.18
747.00,79.14
746.00,79.11
745.00,79.07
744.00,79.03
743.00,78.99
742.00,78.95
741.00,78.91
740.00,78.85
739.00,78.79
738.00,78.71
737.00,78.63
736.00,78.56
735.00,78.53
734.00,78.53
733.00,78.53
732.00,78.49
731.00,78.42
730.00,78.35
729.00,78.29
728.00,78.20
727.00,78.10
726.00,78.00
725.00,77.91
724.00,77.85
723.00,77.80
722.00,77.76
721.00,77.71
720.00,77.65
719.00,77.58
718.00,77.49
717.00,77.37
716.00,77.26
715.00,77.19
714.00,77.16
713.00,77.15
712.00,77.13
711.00,77.08
710.00,77.02
709.00,76.96
708.00,76.91
707.00,76.87
706.00,76.86
705.00,76.85
704.00,76.86
703.00,76.87
702.00,76.85
701.00,76.81
700.00,76.75
699.00,76.72
698.00,76.70
697.00,76.65
696.00,76.57
695.00,76.49
694.00,76.44
693.00,76.42
692.00,76.42
691.00,76.45
690.00,76.49
689.00,76.49
688.00,76.46
687.00,76.40
686.00,76.35
685.00,76.26
684.00,76.14
683.00,76.01
682.00,75.89
681.00,75.76
680.00,75.57
679.00,75.29
678.00,74.94
677.00,74.52
676.00,74.06
675.00,73.60
674.00,73.15
673.00,72.73
672.00,72.38
671.00,72.16
670.00,72.05
669.00,71.93
668.00,71.65
667.00,71.32
666.00,71.15
665.00,71.09
664.00,71.07
663.00,71.07
662.00,71.05
661.00,70.99
660.00,70.88
659.00,70.76
658.00,70.69
657.00,70.67
656.00,70.69
655.00,70.74
654.00,70.80
653.00,70.85
652.00,70.87
651.00,70.88
650.00,70.90
649.00,70.91
648.00,70.90
647.00,70.86
646.00,70.80
645.00,70.70
644.00,70.55
643.00,70.40
642.00,70.30
641.00,70.26
640.00,70.22
639.00,70.21
638.00,70.24
637.00,70.34
636.00,70.48
635.00,70.61
634.00,70.66
633.00,70.56
632.00,70.37
631.00,70.16
630.00,69.96
629.00,69.79
628.00,69.67
627.00,69.62
626.00,69.62
625.00,69.55
624.00,69.37
623.00,69.19
622.00,69.11
621.00,69.13
620.00,69.16
619.00,69.13
618.00,68.98
617.00,68.67
616.00,68.28
615.00,67.95
614.00,67.69
613.00,67.46
612.00,67.25
611.00,67.13
610.00,67.04
609.00,66.84
608.00,66.56
607.00,66.42
606.00,66.53
605.00,66.75
604.00,66.94
603.00,67.09
602.00,67.20
601.00,67.19
600.00,67.08
599.00,66.99
598.00,66.99
597.00,66.97
596.00,66.81
595.00,66.61
594.00,66.51
593.00,66.52
592.00,66.54
591.00,66.53
590.00,66.46
589.00,66.25
588.00,65.90
587.00,65.50
586.00,65.18
585.00,64.90
584.00,64.62
583.00,64.48
582.00,64.62
581.00,64.92
580.00,65.14
579.00,65.21
578.00,65.22
577.00,65.25
576.00,65.28
575.00,65.30
574.00,65.26
573.00,65.21
572.00,65.31
571.00,65.66
570.00,65.95
569.00,65.72
568.00,64.99
567.00,64.26
566.00,63.91
565.00,63.81
564.00,63.84
563.00,64.14
562.00,64.78
561.00,65.38
560.00,65.57
559.00,65.38
558.00,65.13
557.00,64.93
556.00,64.66
555.00,64.35
554.00,64.05
553.00,63.73
552.00,63.40
551.00,63.37
550.00,63.71
