Created as New Dataset,190 Courtaulds
cm-1,%T
4000.00,100.25
3999.00,100.24
3998.00,100.24
3997.00,100.23
3996.00,100.24
3995.00,100.25
3994.00,100.27
3993.00,100.27
3992.00,100.27
3991.00,100.26
3990.00,100.24
3989.00,100.23
3988.00,100.24
3987.00,100.25
3986.00,100.27
3985.00,100.27
3984.00,100.26
3983.00,100.24
3982.00,100.21
3981.00,100.19
3980.00,100.18
3979.00,100.18
3978.00,100.19
3977.00,100.21
3976.00,100.24
3975.00,100.26
3974.00,100.26
3973.00,100.26
3972.00,100.24
3971.00,100.23
3970.00,100.23
3969.00,100.23
3968.00,100.24
3967.00,100.25
3966.00,100.24
3965.00,100.22
3964.00,100.21
3963.00,100.21
3962.00,100.24
3961.00,100.27
3960.00,100.29
3959.00,100.30
3958.00,100.29
3957.00,100.28
3956.00,100.28
3955.00,100.29
3954.00,100.29
3953.00,100.28
3952.00,100.26
3951.00,100.25
3950.00,100.24
3949.00,100.25
3948.00,100.27
3947.00,100.27
3946.00,100.27
3945.00,100.26
3944.00,100.26
3943.00,100.26
3942.00,100.27
3941.00,100.27
3940.00,100.27
3939.00,100.26
3938.00,100.25
3937.00,100.25
3936.00,100.25
3935.00,100.25
3934.00,100.25
3933.00,100.25
3932.00,100.24
3931.00,100.23
3930.00,100.23
3929.00,100.24
3928.00,100.25
3927.00,100.26
3926.00,100.26
3925.00,100.25
3924.00,100.23
3923.00,100.21
3922.00,100.19
3921.00,100.20
3920.00,100.22
3919.00,100.24
3918.00,100.25
3917.00,100.25
3916.00,100.24
3915.00,100.23
3914.00,100.23
3913.00,100.24
3912.00,100.25
3911.00,100.25
3910.00,100.26
3909.00,100.25
3908.00,100.25
3907.00,100.25
3906.00,100.25
3905.00,100.24
3904.00,100.23
3903.00,100.21
3902.00,100.20
3901.00,100.18
3900.00,100.19
3899.00,100.21
3898.00,100.23
3897.00,100.26
3896.00,100.28
3895.00,100.29
3894.00,100.28
3893.00,100.27
3892.00,100.26
3891.00,100.26
3890.00,100.25
3889.00,100.24
3888.00,100.23
3887.00,100.23
3886.00,100.22
3885.00,100.22
3884.00,100.22
3883.00,100.21
3882.00,100.21
3881.00,100.23
3880.00,100.24
3879.00,100.26
3878.00,100.27
3877.00,100.28
3876.00,100.28
3875.00,100.28
3874.00,100.26
3873.00,100.23
3872.00,100.21
3871.00,100.20
3870.00,100.20
3869.00,100.19
3868.00,100.17
3867.00,100.15
3866.00,100.15
3865.00,100.17
3864.00,100.19
3863.00,100.21
3862.00,100.24
3861.00,100.25
3860.00,100.25
3859.00,100.22
3858.00,100.17
3857.00,100.14
3856.00,100.14
3855.00,100.16
3854.00,100.16
3853.00,100.15
3852.00,100.15
3851.00,100.18
3850.00,100.21
3849.00,100.23
3848.00,100.25
3847.00,100.26
3846.00,100.26
3845.00,100.26
3844.00,100.25
3843.00,100.24
3842.00,100.22
3841.00,100.19
3840.00,100.16
3839.00,100.14
3838.00,100.15
3837.00,100.18
3836.00,100.21
3835.00,100.23
3834.00,100.24
3833.00,100.24
3832.00,100.22
3831.00,100.21
3830.00,100.20
3829.00,100.21
3828.00,100.22
3827.00,100.24
3826.00,100.26
3825.00,100.26
3824.00,100.26
3823.00,100.26
3822.00,100.25
3821.00,100.22
3820.00,100.17
3819.00,100.13
3818.00,100.11
3817.00,100.12
3816.00,100.13
3815.00,100.14
3814.00,100.14
3813.00,100.15
3812.00,100.16
3811.00,100.17
3810.00,100.17
3809.00,100.18
3808.00,100.18
3807.00,100.19
3806.00,100.19
3805.00,100.19
3804.00,100.18
3803.00,100.17
3802.00,100.15
3801.00,100.12
3800.00,100.10
3799.00,100.09
3798.00,100.10
3797.00,100.13
3796.00,100.15
3795.00,100.18
3794.00,100.19
3793.00,100.20
3792.00,100.20
3791.00,100.20
3790.00,100.19
3789.00,100.19
3788.00,100.20
3787.00,100.19
3786.00,100.17
3785.00,100.16
3784.00,100.15
3783.00,100.15
3782.00,100.16
3781.00,100.16
3780.00,100.14
3779.00,100.13
3778.00,100.11
3777.00,100.10
3776.00,100.11
3775.00,100.11
3774.00,100.12
3773.00,100.11
3772.00,100.11
3771.00,100.09
3770.00,100.08
3769.00,100.07
3768.00,100.06
3767.00,100.07
3766.00,100.09
3765.00,100.12
3764.00,100.13
3763.00,100.13
3762.00,100.13
3761.00,100.13
3760.00,100.12
3759.00,100.11
3758.00,100.10
3757.00,100.10
3756.00,100.09
3755.00,100.06
3754.00,100.04
3753.00,100.02
3752.00,100.01
3751.00,99.99
3750.00,99.98
3749.00,99.98
3748.00,99.97
3747.00,99.98
3746.00,100.01
3745.00,100.04
3744.00,100.04
3743.00,100.05
3742.00,100.06
3741.00,100.07
3740.00,100.06
3739.00,100.04
3738.00,100.01
3737.00,100.00
3736.00,100.00
3735.00,100.01
3734.00,100.00
3733.00,100.00
3732.00,100.00
3731.00,100.01
3730.00,100.02
3729.00,100.02
3728.00,100.03
3727.00,100.03
3726.00,100.02
3725.00,100.01
3724.00,100.00
3723.00,99.98
3722.00,99.97
3721.00,99.95
3720.00,99.94
3719.00,99.93
3718.00,99.93
3717.00,99.93
3716.00,99.94
3715.00,99.94
3714.00,99.96
3713.00,99.97
3712.00,99.97
3711.00,99.98
3710.00,100.00
3709.00,100.03
3708.00,100.06
3707.00,100.07
3706.00,100.07
3705.00,100.06
3704.00,100.04
3703.00,100.02
3702.00,100.00
3701.00,99.98
3700.00,99.97
3699.00,99.95
3698.00,99.93
3697.00,99.92
3696.00,99.92
3695.00,99.93
3694.00,99.95
3693.00,99.98
3692.00,99.98
3691.00,99.96
3690.00,99.93
3689.00,99.89
3688.00,99.87
3687.00,99.84
3686.00,99.83
3685.00,99.83
3684.00,99.84
3683.00,99.87
3682.00,99.92
3681.00,99.97
3680.00,99.99
3679.00,99.99
3678.00,99.96
3677.00,99.92
3676.00,99.86
3675.00,99.80
3674.00,99.76
3673.00,99.74
3672.00,99.77
3671.00,99.83
3670.00,99.87
3669.00,99.87
3668.00,99.85
3667.00,99.81
3666.00,99.78
3665.00,99.75
3664.00,99.74
3663.00,99.74
3662.00,99.74
3661.00,99.73
3660.00,99.69
3659.00,99.64
3658.00,99.59
3657.00,99.55
3656.00,99.54
3655.00,99.54
3654.00,99.55
3653.00,99.56
3652.00,99.59
3651.00,99.59
3650.00,99.56
3649.00,99.50
3648.00,99.44
3647.00,99.39
3646.00,99.36
3645.00,99.34
3644.00,99.33
3643.00,99.34
3642.00,99.34
3641.00,99.34
3640.00,99.32
3639.00,99.30
3638.00,99.28
3637.00,99.26
3636.00,99.24
3635.00,99.20
3634.00,99.17
3633.00,99.12
3632.00,99.09
3631.00,99.07
3630.00,99.06
3629.00,99.03
3628.00,98.99
3627.00,98.96
3626.00,98.93
3625.00,98.90
3624.00,98.87
3623.00,98.84
3622.00,98.80
3621.00,98.77
3620.00,98.74
3619.00,98.71
3618.00,98.68
3617.00,98.65
3616.00,98.62
3615.00,98.58
3614.00,98.52
3613.00,98.47
3612.00,98.44
3611.00,98.43
3610.00,98.41
3609.00,98.39
3608.00,98.33
3607.00,98.27
3606.00,98.21
3605.00,98.18
3604.00,98.17
3603.00,98.16
3602.00,98.14
3601.00,98.10
3600.00,98.04
3599.00,97.97
3598.00,97.91
3597.00,97.88
3596.00,97.86
3595.00,97.84
3594.00,97.81
3593.00,97.78
3592.00,97.74
3591.00,97.69
3590.00,97.65
3589.00,97.60
3588.00,97.52
3587.00,97.44
3586.00,97.38
3585.00,97.33
3584.00,97.29
3583.00,97.27
3582.00,97.25
3581.00,97.23
3580.00,97.21
3579.00,97.19
3578.00,97.14
3577.00,97.08
3576.00,97.01
3575.00,96.94
3574.00,96.89
3573.00,96.86
3572.00,96.85
3571.00,96.83
3570.00,96.81
3569.00,96.76
3568.00,96.68
3567.00,96.59
3566.00,96.50
3565.00,96.42
3564.00,96.36
3563.00,96.31
3562.00,96.28
3561.00,96.25
3560.00,96.22
3559.00,96.18
3558.00,96.12
3557.00,96.05
3556.00,95.97
3555.00,95.90
3554.00,95.84
3553.00,95.77
3552.00,95.69
3551.00,95.63
3550.00,95.59
3549.00,95.56
3548.00,95.53
3547.00,95.49
3546.00,95.42
3545.00,95.35
3544.00,95.29
3543.00,95.22
3542.00,95.16
3541.00,95.08
3540.00,95.01
3539.00,94.95
3538.00,94.89
3537.00,94.85
3536.00,94.80
3535.00,94.76
3534.00,94.73
3533.00,94.69
3532.00,94.63
3531.00,94.56
3530.00,94.49
3529.00,94.42
3528.00,94.36
3527.00,94.31
3526.00,94.25
3525.00,94.18
3524.00,94.09
3523.00,94.00
3522.00,93.93
3521.00,93.87
3520.00,93.82
3519.00,93.75
3518.00,93.68
3517.00,93.61
3516.00,93.54
3515.00,93.46
3514.00,93.37
3513.00,93.29
3512.00,93.21
3511.00,93.14
3510.00,93.08
3509.00,93.03
3508.00,92.96
3507.00,92.89
3506.00,92.79
3505.00,92.68
3504.00,92.58
3503.00,92.49
3502.00,92.41
3501.00,92.32
3500.00,92.24
3499.00,92.16
3498.00,92.08
3497.00,92.00
3496.00,91.90
3495.00,91.81
3494.00,91.71
3493.00,91.63
3492.00,91.55
3491.00,91.46
3490.00,91.36
3489.00,91.26
3488.00,91.17
3487.00,91.12
3486.00,91.09
3485.00,91.08
3484.00,91.05
3483.00,90.99
3482.00,90.90
3481.00,90.81
3480.00,90.72
3479.00,90.67
3478.00,90.63
3477.00,90.61
3476.00,90.58
3475.00,90.53
3474.00,90.46
3473.00,90.40
3472.00,90.34
3471.00,90.29
3470.00,90.24
3469.00,90.16
3468.00,90.08
3467.00,89.99
3466.00,89.91
3465.00,89.83
3464.00,89.74
3463.00,89.66
3462.00,89.58
3461.00,89.52
3460.00,89.47
3459.00,89.42
3458.00,89.38
3457.00,89.31
3456.00,89.24
3455.00,89.16
3454.00,89.07
3453.00,88.99
3452.00,88.90
3451.00,88.81
3450.00,88.73
3449.00,88.65
3448.00,88.57
3447.00,88.49
3446.00,88.43
3445.00,88.38
3444.00,88.33
3443.00,88.26
3442.00,88.19
3441.00,88.12
3440.00,88.07
3439.00,88.03
3438.00,87.99
3437.00,87.96
3436.00,87.93
3435.00,87.90
3434.00,87.86
3433.00,87.83
3432.00,87.79
3431.00,87.74
3430.00,87.70
3429.00,87.67
3428.00,87.65
3427.00,87.64
3426.00,87.63
3425.00,87.62
3424.00,87.60
3423.00,87.57
3422.00,87.53
3421.00,87.49
3420.00,87.46
3419.00,87.44
3418.00,87.43
3417.00,87.41
3416.00,87.37
3415.00,87.31
3414.00,87.27
3413.00,87.23
3412.00,87.20
3411.00,87.16
3410.00,87.11
3409.00,87.06
3408.00,87.02
3407.00,87.00
3406.00,87.00
3405.00,86.99
3404.00,86.97
3403.00,86.93
3402.00,86.89
3401.00,86.86
3400.00,86.83
3399.00,86.80
3398.00,86.77
3397.00,86.76
3396.00,86.74
3395.00,86.73
3394.00,86.70
3393.00,86.67
3392.00,86.64
3391.00,86.62
3390.00,86.60
3389.00,86.56
3388.00,86.53
3387.00,86.50
3386.00,86.47
3385.00,86.44
3384.00,86.41
3383.00,86.38
3382.00,86.37
3381.00,86.37
3380.00,86.37
3379.00,86.36
3378.00,86.35
3377.00,86.33
3376.00,86.31
3375.00,86.29
3374.00,86.26
3373.00,86.24
3372.00,86.22
3371.00,86.22
3370.00,86.20
3369.00,86.17
3368.00,86.12
3367.00,86.07
3366.00,86.05
3365.00,86.05
3364.00,86.06
3363.00,86.07
3362.00,86.06
3361.00,86.05
3360.00,86.04
3359.00,86.04
3358.00,86.04
3357.00,86.03
3356.00,86.00
3355.00,85.96
3354.00,85.93
3353.00,85.91
3352.00,85.92
3351.00,85.94
3350.00,85.95
3349.00,85.95
3348.00,85.93
3347.00,85.92
3346.00,85.91
3345.00,85.90
3344.00,85.89
3343.00,85.89
3342.00,85.89
3341.00,85.90
3340.00,85.91
3339.00,85.92
3338.00,85.93
3337.00,85.93
3336.00,85.92
3335.00,85.92
3334.00,85.91
3333.00,85.91
3332.00,85.90
3331.00,85.90
3330.00,85.90
3329.00,85.90
3328.00,85.89
3327.00,85.88
3326.00,85.89
3325.00,85.91
3324.00,85.94
3323.00,85.96
3322.00,85.97
3321.00,85.96
3320.00,85.95
3319.00,85.94
3318.00,85.94
3317.00,85.94
3316.00,85.94
3315.00,85.95
3314.00,85.97
3313.00,86.00
3312.00,86.02
3311.00,86.05
3310.00,86.08
3309.00,86.11
3308.00,86.12
3307.00,86.11
3306.00,86.10
3305.00,86.09
3304.00,86.09
3303.00,86.09
3302.00,86.08
3301.00,86.08
3300.00,86.08
3299.00,86.09
3298.00,86.11
3297.00,86.14
3296.00,86.17
3295.00,86.20
3294.00,86.23
3293.00,86.24
3292.00,86.24
3291.00,86.23
3290.00,86.24
3289.00,86.26
3288.00,86.29
3287.00,86.31
3286.00,86.33
3285.00,86.34
3284.00,86.34
3283.00,86.34
3282.00,86.36
3281.00,86.38
3280.00,86.40
3279.00,86.43
3278.00,86.45
3277.00,86.47
3276.00,86.50
3275.00,86.52
3274.00,86.54
3273.00,86.55
3272.00,86.55
3271.00,86.54
3270.00,86.55
3269.00,86.57
3268.00,86.60
3267.00,86.63
3266.00,86.66
3265.00,86.69
3264.00,86.71
3263.00,86.73
3262.00,86.74
3261.00,86.75
3260.00,86.76
3259.00,86.78
3258.00,86.81
3257.00,86.84
3256.00,86.86
3255.00,86.89
3254.00,86.92
3253.00,86.95
3252.00,86.98
3251.00,86.99
3250.00,87.01
3249.00,87.02
3248.00,87.05
3247.00,87.08
3246.00,87.11
3245.00,87.15
3244.00,87.19
3243.00,87.23
3242.00,87.27
3241.00,87.30
3240.00,87.33
3239.00,87.35
3238.00,87.37
3237.00,87.38
3236.00,87.40
3235.00,87.42
3234.00,87.46
3233.00,87.50
3232.00,87.53
3231.00,87.57
3230.00,87.61
3229.00,87.63
3228.00,87.66
3227.00,87.69
3226.00,87.72
3225.00,87.76
3224.00,87.79
3223.00,87.81
3222.00,87.83
3221.00,87.86
3220.00,87.89
3219.00,87.92
3218.00,87.97
3217.00,88.01
3216.00,88.06
3215.00,88.09
3214.00,88.12
3213.00,88.15
3212.00,88.18
3211.00,88.22
3210.00,88.26
3209.00,88.29
3208.00,88.33
3207.00,88.36
3206.00,88.40
3205.00,88.45
3204.00,88.49
3203.00,88.52
3202.00,88.54
3201.00,88.56
3200.00,88.58
3199.00,88.62
3198.00,88.67
3197.00,88.71
3196.00,88.74
3195.00,88.77
3194.00,88.80
3193.00,88.84
3192.00,88.88
3191.00,88.93
3190.00,88.98
3189.00,89.02
3188.00,89.06
3187.00,89.10
3186.00,89.14
3185.00,89.18
3184.00,89.23
3183.00,89.27
3182.00,89.31
3181.00,89.33
3180.00,89.36
3179.00,89.38
3178.00,89.40
3177.00,89.43
3176.00,89.46
3175.00,89.49
3174.00,89.53
3173.00,89.57
3172.00,89.61
3171.00,89.66
3170.00,89.71
3169.00,89.76
3168.00,89.80
3167.00,89.86
3166.00,89.93
3165.00,90.00
3164.00,90.06
3163.00,90.09
3162.00,90.11
3161.00,90.12
3160.00,90.13
3159.00,90.17
3158.00,90.21
3157.00,90.25
3156.00,90.29
3155.00,90.35
3154.00,90.40
3153.00,90.46
3152.00,90.51
3151.00,90.55
3150.00,90.58
3149.00,90.61
3148.00,90.64
3147.00,90.67
3146.00,90.71
3145.00,90.76
3144.00,90.83
3143.00,90.89
3142.00,90.95
3141.00,90.99
3140.00,91.03
3139.00,91.08
3138.00,91.13
3137.00,91.18
3136.00,91.22
3135.00,91.26
3134.00,91.30
3133.00,91.35
3132.00,91.40
3131.00,91.46
3130.00,91.52
3129.00,91.58
3128.00,91.63
3127.00,91.67
3126.00,91.71
3125.00,91.74
3124.00,91.77
3123.00,91.81
3122.00,91.84
3121.00,91.89
3120.00,91.94
3119.00,91.99
3118.00,92.05
3117.00,92.11
3116.00,92.15
3115.00,92.19
3114.00,92.22
3113.00,92.27
3112.00,92.32
3111.00,92.39
3110.00,92.44
3109.00,92.49
3108.00,92.54
3107.00,92.58
3106.00,92.62
3105.00,92.66
3104.00,92.70
3103.00,92.75
3102.00,92.81
3101.00,92.87
3100.00,92.93
3099.00,92.99
3098.00,93.04
3097.00,93.08
3096.00,93.12
3095.00,93.14
3094.00,93.16
3093.00,93.19
3092.00,93.23
3091.00,93.28
3090.00,93.34
3089.00,93.39
3088.00,93.44
3087.00,93.49
3086.00,93.54
3085.00,93.58
3084.00,93.61
3083.00,93.64
3082.00,93.66
3081.00,93.70
3080.00,93.74
3079.00,93.79
3078.00,93.83
3077.00,93.88
3076.00,93.91
3075.00,93.95
3074.00,93.99
3073.00,94.03
3072.00,94.08
3071.00,94.13
3070.00,94.17
3069.00,94.22
3068.00,94.26
3067.00,94.29
3066.00,94.34
3065.00,94.37
3064.00,94.40
3063.00,94.43
3062.00,94.45
3061.00,94.49
3060.00,94.54
3059.00,94.59
3058.00,94.64
3057.00,94.68
3056.00,94.71
3055.00,94.74
3054.00,94.77
3053.00,94.80
3052.00,94.83
3051.00,94.86
3050.00,94.90
3049.00,94.94
3048.00,94.98
3047.00,95.02
3046.00,95.05
3045.00,95.06
3044.00,95.06
3043.00,95.07
3042.00,95.11
3041.00,95.17
3040.00,95.23
3039.00,95.29
3038.00,95.32
3037.00,95.35
3036.00,95.37
3035.00,95.39
3034.00,95.42
3033.00,95.44
3032.00,95.48
3031.00,95.52
3030.00,95.55
3029.00,95.56
3028.00,95.57
3027.00,95.59
3026.00,95.61
3025.00,95.65
3024.00,95.69
3023.00,95.72
3022.00,95.73
3021.00,95.73
3020.00,95.73
3019.00,95.74
3018.00,95.76
3017.00,95.79
3016.00,95.82
3015.00,95.84
3014.00,95.87
3013.00,95.89
3012.00,95.91
3011.00,95.93
3010.00,95.95
3009.00,95.97
3008.00,96.00
3007.00,96.03
3006.00,96.05
3005.00,96.05
3004.00,96.05
3003.00,96.04
3002.00,96.04
3001.00,96.04
3000.00,96.05
2999.00,96.05
2998.00,96.06
2997.00,96.06
2996.00,96.06
2995.00,96.06
2994.00,96.06
2993.00,96.04
2992.00,96.03
2991.00,96.02
2990.00,96.03
2989.00,96.04
2988.00,96.05
2987.00,96.06
2986.00,96.04
2985.00,96.03
2984.00,96.01
2983.00,96.00
2982.00,95.99
2981.00,95.97
2980.00,95.95
2979.00,95.93
2978.00,95.92
2977.00,95.91
2976.00,95.89
2975.00,95.86
2974.00,95.84
2973.00,95.81
2972.00,95.79
2971.00,95.75
2970.00,95.71
2969.00,95.68
2968.00,95.67
2967.00,95.65
2966.00,95.62
2965.00,95.56
2964.00,95.50
2963.00,95.45
2962.00,95.43
2961.00,95.41
2960.00,95.38
2959.00,95.33
2958.00,95.27
2957.00,95.19
2956.00,95.12
2955.00,95.06
2954.00,95.01
2953.00,94.97
2952.00,94.92
2951.00,94.86
2950.00,94.80
2949.00,94.74
2948.00,94.69
2947.00,94.64
2946.00,94.58
2945.00,94.52
2944.00,94.45
2943.00,94.37
2942.00,94.29
2941.00,94.20
2940.00,94.11
2939.00,94.03
2938.00,93.97
2937.00,93.92
2936.00,93.89
2935.00,93.85
2934.00,93.79
2933.00,93.71
2932.00,93.62
2931.00,93.54
2930.00,93.47
2929.00,93.41
2928.00,93.36
2927.00,93.31
2926.00,93.26
2925.00,93.21
2924.00,93.15
2923.00,93.10
2922.00,93.05
2921.00,93.01
2920.00,92.96
2919.00,92.90
2918.00,92.85
2917.00,92.81
2916.00,92.79
2915.00,92.77
2914.00,92.75
2913.00,92.72
2912.00,92.69
2911.00,92.65
2910.00,92.60
2909.00,92.56
2908.00,92.53
2907.00,92.49
2906.00,92.45
2905.00,92.42
2904.00,92.38
2903.00,92.34
2902.00,92.31
2901.00,92.28
2900.00,92.25
2899.00,92.23
2898.00,92.21
2897.00,92.19
2896.00,92.18
2895.00,92.17
2894.00,92.16
2893.00,92.16
2892.00,92.17
2891.00,92.17
2890.00,92.18
2889.00,92.19
2888.00,92.21
2887.00,92.24
2886.00,92.25
2885.00,92.27
2884.00,92.29
2883.00,92.31
2882.00,92.34
2881.00,92.36
2880.00,92.37
2879.00,92.39
2878.00,92.41
2877.00,92.44
2876.00,92.49
2875.00,92.54
2874.00,92.60
2873.00,92.65
2872.00,92.70
2871.00,92.76
2870.00,92.82
2869.00,92.89
2868.00,92.96
2867.00,93.05
2866.00,93.14
2865.00,93.22
2864.00,93.28
2863.00,93.32
2862.00,93.35
2861.00,93.39
2860.00,93.45
2859.00,93.52
2858.00,93.60
2857.00,93.67
2856.00,93.74
2855.00,93.81
2854.00,93.87
2853.00,93.93
2852.00,93.98
2851.00,94.04
2850.00,94.10
2849.00,94.19
2848.00,94.29
2847.00,94.38
2846.00,94.47
2845.00,94.53
2844.00,94.59
2843.00,94.64
2842.00,94.70
2841.00,94.76
2840.00,94.83
2839.00,94.90
2838.00,94.97
2837.00,95.03
2836.00,95.07
2835.00,95.09
2834.00,95.11
2833.00,95.15
2832.00,95.20
2831.00,95.25
2830.00,95.29
2829.00,95.31
2828.00,95.33
2827.00,95.35
2826.00,95.38
2825.00,95.42
2824.00,95.46
2823.00,95.49
2822.00,95.52
2821.00,95.55
2820.00,95.57
2819.00,95.59
2818.00,95.61
2817.00,95.63
2816.00,95.65
2815.00,95.68
2814.00,95.71
2813.00,95.72
2812.00,95.73
2811.00,95.74
2810.00,95.75
2809.00,95.77
2808.00,95.79
2807.00,95.83
2806.00,95.87
2805.00,95.90
2804.00,95.92
2803.00,95.93
2802.00,95.93
2801.00,95.95
2800.00,95.98
2799.00,96.01
2798.00,96.04
2797.00,96.05
2796.00,96.06
2795.00,96.06
2794.00,96.07
2793.00,96.09
2792.00,96.11
2791.00,96.13
2790.00,96.15
2789.00,96.17
2788.00,96.19
2787.00,96.21
2786.00,96.22
2785.00,96.23
2784.00,96.25
2783.00,96.26
2782.00,96.27
2781.00,96.29
2780.00,96.32
2779.00,96.34
2778.00,96.37
2777.00,96.38
2776.00,96.40
2775.00,96.41
2774.00,96.42
2773.00,96.43
2772.00,96.45
2771.00,96.47
2770.00,96.49
2769.00,96.50
2768.00,96.50
2767.00,96.50
2766.00,96.50
2765.00,96.50
2764.00,96.51
2763.00,96.53
2762.00,96.54
2761.00,96.54
2760.00,96.55
2759.00,96.56
2758.00,96.57
2757.00,96.58
2756.00,96.59
2755.00,96.59
2754.00,96.59
2753.00,96.58
2752.00,96.59
2751.00,96.59
2750.00,96.60
2749.00,96.61
2748.00,96.62
2747.00,96.62
2746.00,96.62
2745.00,96.61
2744.00,96.61
2743.00,96.61
2742.00,96.62
2741.00,96.63
2740.00,96.63
2739.00,96.63
2738.00,96.64
2737.00,96.64
2736.00,96.64
2735.00,96.65
2734.00,96.65
2733.00,96.66
2732.00,96.67
2731.00,96.68
2730.00,96.69
2729.00,96.70
2728.00,96.70
2727.00,96.70
2726.00,96.70
2725.00,96.70
2724.00,96.70
2723.00,96.71
2722.00,96.71
2721.00,96.72
2720.00,96.72
2719.00,96.72
2718.00,96.73
2717.00,96.74
2716.00,96.75
2715.00,96.75
2714.00,96.75
2713.00,96.77
2712.00,96.79
2711.00,96.81
2710.00,96.82
2709.00,96.83
2708.00,96.83
2707.00,96.85
2706.00,96.86
2705.00,96.87
2704.00,96.88
2703.00,96.88
2702.00,96.89
2701.00,96.90
2700.00,96.90
2699.00,96.90
2698.00,96.90
2697.00,96.91
2696.00,96.93
2695.00,96.95
2694.00,96.96
2693.00,96.97
2692.00,96.97
2691.00,96.98
2690.00,96.98
2689.00,96.98
2688.00,96.99
2687.00,97.01
2686.00,97.02
2685.00,97.03
2684.00,97.02
2683.00,97.02
2682.00,97.03
2681.00,97.04
2680.00,97.05
2679.00,97.07
2678.00,97.08
2677.00,97.09
2676.00,97.10
2675.00,97.12
2674.00,97.13
2673.00,97.14
2672.00,97.14
2671.00,97.14
2670.00,97.15
2669.00,97.16
2668.00,97.16
2667.00,97.16
2666.00,97.15
2665.00,97.14
2664.00,97.14
2663.00,97.14
2662.00,97.14
2661.00,97.14
2660.00,97.13
2659.00,97.12
2658.00,97.11
2657.00,97.11
2656.00,97.11
2655.00,97.12
2654.00,97.13
2653.00,97.15
2652.00,97.15
2651.00,97.14
2650.00,97.13
2649.00,97.12
2648.00,97.11
2647.00,97.11
2646.00,97.12
2645.00,97.12
2644.00,97.13
2643.00,97.12
2642.00,97.12
2641.00,97.11
2640.00,97.11
2639.00,97.10
2638.00,97.08
2637.00,97.06
2636.00,97.04
2635.00,97.04
2634.00,97.06
2633.00,97.07
2632.00,97.09
2631.00,97.09
2630.00,97.08
2629.00,97.07
2628.00,97.07
2627.00,97.08
2626.00,97.09
2625.00,97.10
2624.00,97.11
2623.00,97.11
2622.00,97.12
2621.00,97.12
2620.00,97.12
2619.00,97.12
2618.00,97.12
2617.00,97.11
2616.00,97.10
2615.00,97.08
2614.00,97.07
2613.00,97.07
2612.00,97.09
2611.00,97.10
2610.00,97.11
2609.00,97.13
2608.00,97.14
2607.00,97.15
2606.00,97.14
2605.00,97.14
2604.00,97.14
2603.00,97.16
2602.00,97.17
2601.00,97.17
2600.00,97.17
2599.00,97.15
2598.00,97.14
2597.00,97.12
2596.00,97.10
2595.00,97.09
2594.00,97.10
2593.00,97.11
2592.00,97.12
2591.00,97.14
2590.00,97.14
2589.00,97.13
2588.00,97.11
2587.00,97.09
2586.00,97.09
2585.00,97.09
2584.00,97.08
2583.00,97.07
2582.00,97.06
2581.00,97.06
2580.00,97.08
2579.00,97.09
2578.00,97.10
2577.00,97.10
2576.00,97.09
2575.00,97.08
2574.00,97.09
2573.00,97.10
2572.00,97.11
2571.00,97.13
2570.00,97.14
2569.00,97.15
2568.00,97.15
2567.00,97.15
2566.00,97.15
2565.00,97.14
2564.00,97.11
2563.00,97.10
2562.00,97.11
2561.00,97.13
2560.00,97.15
2559.00,97.16
2558.00,97.16
2557.00,97.15
2556.00,97.15
2555.00,97.15
2554.00,97.17
2553.00,97.17
2552.00,97.17
2551.00,97.16
2550.00,97.15
2549.00,97.15
2548.00,97.15
2547.00,97.15
2546.00,97.17
2545.00,97.17
2544.00,97.16
2543.00,97.14
2542.00,97.14
2541.00,97.16
2540.00,97.17
2539.00,97.18
2538.00,97.18
2537.00,97.18
2536.00,97.18
2535.00,97.17
2534.00,97.15
2533.00,97.13
2532.00,97.12
2531.00,97.13
2530.00,97.14
2529.00,97.16
2528.00,97.17
2527.00,97.17
2526.00,97.16
2525.00,97.15
2524.00,97.14
2523.00,97.14
2522.00,97.14
2521.00,97.14
2520.00,97.14
2519.00,97.15
2518.00,97.16
2517.00,97.18
2516.00,97.20
2515.00,97.20
2514.00,97.20
2513.00,97.18
2512.00,97.18
2511.00,97.18
2510.00,97.19
2509.00,97.21
2508.00,97.23
2507.00,97.24
2506.00,97.24
2505.00,97.24
2504.00,97.23
2503.00,97.21
2502.00,97.20
2501.00,97.19
2500.00,97.20
2499.00,97.21
2498.00,97.23
2497.00,97.26
2496.00,97.28
2495.00,97.29
2494.00,97.28
2493.00,97.28
2492.00,97.27
2491.00,97.26
2490.00,97.26
2489.00,97.27
2488.00,97.26
2487.00,97.25
2486.00,97.24
2485.00,97.23
2484.00,97.24
2483.00,97.26
2482.00,97.28
2481.00,97.30
2480.00,97.32
2479.00,97.33
2478.00,97.33
2477.00,97.32
2476.00,97.31
2475.00,97.29
2474.00,97.28
2473.00,97.29
2472.00,97.31
2471.00,97.31
2470.00,97.31
2469.00,97.29
2468.00,97.27
2467.00,97.27
2466.00,97.27
2465.00,97.29
2464.00,97.30
2463.00,97.31
2462.00,97.32
2461.00,97.32
2460.00,97.32
2459.00,97.33
2458.00,97.34
2457.00,97.34
2456.00,97.32
2455.00,97.30
2454.00,97.29
2453.00,97.29
2452.00,97.29
2451.00,97.31
2450.00,97.32
2449.00,97.34
2448.00,97.37
2447.00,97.39
2446.00,97.41
2445.00,97.41
2444.00,97.39
2443.00,97.37
2442.00,97.35
2441.00,97.35
2440.00,97.35
2439.00,97.36
2438.00,97.37
2437.00,97.37
2436.00,97.37
2435.00,97.37
2434.00,97.38
2433.00,97.39
2432.00,97.41
2431.00,97.45
2430.00,97.48
2429.00,97.50
2428.00,97.50
2427.00,97.50
2426.00,97.50
2425.00,97.50
2424.00,97.51
2423.00,97.52
2422.00,97.52
2421.00,97.52
2420.00,97.52
2419.00,97.52
2418.00,97.52
2417.00,97.51
2416.00,97.49
2415.00,97.48
2414.00,97.48
2413.00,97.49
2412.00,97.51
2411.00,97.53
2410.00,97.54
2409.00,97.56
2408.00,97.57
2407.00,97.57
2406.00,97.58
2405.00,97.59
2404.00,97.60
2403.00,97.62
2402.00,97.63
2401.00,97.64
2400.00,97.65
2399.00,97.66
2398.00,97.67
2397.00,97.69
2396.00,97.71
2395.00,97.73
2394.00,97.73
2393.00,97.73
2392.00,97.74
2391.00,97.74
2390.00,97.75
2389.00,97.75
2388.00,97.75
2387.00,97.76
2386.00,97.77
2385.00,97.79
2384.00,97.82
2383.00,97.86
2382.00,97.89
2381.00,97.91
2380.00,97.90
2379.00,97.90
2378.00,97.89
2377.00,97.88
2376.00,97.87
2375.00,97.87
2374.00,97.89
2373.00,97.92
2372.00,97.95
2371.00,97.97
2370.00,98.00
2369.00,98.04
2368.00,98.06
2367.00,98.05
2366.00,98.02
2365.00,97.97
2364.00,97.94
2363.00,97.93
2362.00,97.96
2361.00,98.02
2360.00,98.06
2359.00,98.05
2358.00,97.97
2357.00,97.86
2356.00,97.79
2355.00,97.80
2354.00,97.88
2353.00,97.96
2352.00,97.98
2351.00,97.96
2350.00,97.96
2349.00,98.01
2348.00,98.09
2347.00,98.16
2346.00,98.18
2345.00,98.15
2344.00,98.12
2343.00,98.09
2342.00,98.06
2341.00,97.98
2340.00,97.90
2339.00,97.84
2338.00,97.81
2337.00,97.81
2336.00,97.82
2335.00,97.84
2334.00,97.85
2333.00,97.85
2332.00,97.82
2331.00,97.80
2330.00,97.80
2329.00,97.83
2328.00,97.85
2327.00,97.83
2326.00,97.77
2325.00,97.70
2324.00,97.64
2323.00,97.61
2322.00,97.61
2321.00,97.63
2320.00,97.63
2319.00,97.61
2318.00,97.58
2317.00,97.56
2316.00,97.55
2315.00,97.55
2314.00,97.54
2313.00,97.54
2312.00,97.53
2311.00,97.53
2310.00,97.53
2309.00,97.53
2308.00,97.53
2307.00,97.53
2306.00,97.53
2305.00,97.52
2304.00,97.50
2303.00,97.47
2302.00,97.44
2301.00,97.43
2300.00,97.42
2299.00,97.42
2298.00,97.42
2297.00,97.42
2296.00,97.42
2295.00,97.39
2294.00,97.35
2293.00,97.31
2292.00,97.28
2291.00,97.25
2290.00,97.23
2289.00,97.20
2288.00,97.17
2287.00,97.17
2286.00,97.17
2285.00,97.17
2284.00,97.15
2283.00,97.13
2282.00,97.10
2281.00,97.07
2280.00,97.03
2279.00,97.01
2278.00,97.00
2277.00,97.01
2276.00,97.03
2275.00,97.03
2274.00,97.01
2273.00,96.99
2272.00,96.98
2271.00,96.98
2270.00,96.99
2269.00,96.98
2268.00,96.96
2267.00,96.93
2266.00,96.91
2265.00,96.89
2264.00,96.88
2263.00,96.87
2262.00,96.85
2261.00,96.82
2260.00,96.79
2259.00,96.76
2258.00,96.73
2257.00,96.72
2256.00,96.72
2255.00,96.74
2254.00,96.77
2253.00,96.80
2252.00,96.82
2251.00,96.81
2250.00,96.78
2249.00,96.75
2248.00,96.73
2247.00,96.71
2246.00,96.70
2245.00,96.69
2244.00,96.67
2243.00,96.65
2242.00,96.62
2241.00,96.58
2240.00,96.55
2239.00,96.54
2238.00,96.55
2237.00,96.57
2236.00,96.58
2235.00,96.58
2234.00,96.57
2233.00,96.56
2232.00,96.54
2231.00,96.50
2230.00,96.45
2229.00,96.40
2228.00,96.37
2227.00,96.37
2226.00,96.40
2225.00,96.45
2224.00,96.49
2223.00,96.50
2222.00,96.46
2221.00,96.40
2220.00,96.34
2219.00,96.30
2218.00,96.29
2217.00,96.30
2216.00,96.33
2215.00,96.35
2214.00,96.34
2213.00,96.32
2212.00,96.29
2211.00,96.27
2210.00,96.25
2209.00,96.23
2208.00,96.20
2207.00,96.19
2206.00,96.20
2205.00,96.22
2204.00,96.22
2203.00,96.18
2202.00,96.14
2201.00,96.12
2200.00,96.12
2199.00,96.10
2198.00,96.06
2197.00,96.00
2196.00,95.96
2195.00,95.98
2194.00,96.04
2193.00,96.10
2192.00,96.12
2191.00,96.09
2190.00,96.01
2189.00,95.92
2188.00,95.82
2187.00,95.73
2186.00,95.66
2185.00,95.63
2184.00,95.62
2183.00,95.65
2182.00,95.69
2181.00,95.73
2180.00,95.75
2179.00,95.77
2178.00,95.80
2177.00,95.83
2176.00,95.85
2175.00,95.82
2174.00,95.78
2173.00,95.75
2172.00,95.72
2171.00,95.70
2170.00,95.67
2169.00,95.64
2168.00,95.59
2167.00,95.54
2166.00,95.48
2165.00,95.39
2164.00,95.26
2163.00,95.12
2162.00,95.04
2161.00,95.09
2160.00,95.26
2159.00,95.49
2158.00,95.69
2157.00,95.81
2156.00,95.85
2155.00,95.85
2154.00,95.86
2153.00,95.87
2152.00,95.87
2151.00,95.89
2150.00,95.93
2149.00,96.01
2148.00,96.11
2147.00,96.20
2146.00,96.27
2145.00,96.30
2144.00,96.29
2143.00,96.27
2142.00,96.25
2141.00,96.24
2140.00,96.24
2139.00,96.28
2138.00,96.35
2137.00,96.44
2136.00,96.53
2135.00,96.62
2134.00,96.69
2133.00,96.73
2132.00,96.75
2131.00,96.75
2130.00,96.74
2129.00,96.72
2128.00,96.72
2127.00,96.74
2126.00,96.76
2125.00,96.76
2124.00,96.74
2123.00,96.72
2122.00,96.69
2121.00,96.67
2120.00,96.66
2119.00,96.65
2118.00,96.66
2117.00,96.69
2116.00,96.71
2115.00,96.72
2114.00,96.69
2113.00,96.67
2112.00,96.66
2111.00,96.66
2110.00,96.68
2109.00,96.69
2108.00,96.69
2107.00,96.69
2106.00,96.69
2105.00,96.69
2104.00,96.70
2103.00,96.71
2102.00,96.73
2101.00,96.73
2100.00,96.71
2099.00,96.69
2098.00,96.67
2097.00,96.67
2096.00,96.67
2095.00,96.67
2094.00,96.70
2093.00,96.74
2092.00,96.77
2091.00,96.77
2090.00,96.74
2089.00,96.70
2088.00,96.66
2087.00,96.64
2086.00,96.64
2085.00,96.64
2084.00,96.64
2083.00,96.64
2082.00,96.62
2081.00,96.61
2080.00,96.60
2079.00,96.59
2078.00,96.59
2077.00,96.57
2076.00,96.55
2075.00,96.53
2074.00,96.51
2073.00,96.50
2072.00,96.52
2071.00,96.56
2070.00,96.58
2069.00,96.57
2068.00,96.55
2067.00,96.53
2066.00,96.51
2065.00,96.48
2064.00,96.46
2063.00,96.45
2062.00,96.44
2061.00,96.42
2060.00,96.40
2059.00,96.39
2058.00,96.36
2057.00,96.33
2056.00,96.28
2055.00,96.24
2054.00,96.19
2053.00,96.13
2052.00,96.06
2051.00,95.98
2050.00,95.94
2049.00,95.96
2048.00,96.01
2047.00,96.06
2046.00,96.10
2045.00,96.10
2044.00,96.07
2043.00,96.00
2042.00,95.91
2041.00,95.83
2040.00,95.76
2039.00,95.70
2038.00,95.67
2037.00,95.66
2036.00,95.66
2035.00,95.68
2034.00,95.73
2033.00,95.78
2032.00,95.83
2031.00,95.84
2030.00,95.82
2029.00,95.81
2028.00,95.80
2027.00,95.80
2026.00,95.81
2025.00,95.83
2024.00,95.84
2023.00,95.85
2022.00,95.84
2021.00,95.83
2020.00,95.84
2019.00,95.87
2018.00,95.92
2017.00,95.96
2016.00,95.98
2015.00,95.99
2014.00,95.97
2013.00,95.92
2012.00,95.85
2011.00,95.79
2010.00,95.79
2009.00,95.85
2008.00,95.96
2007.00,96.06
2006.00,96.13
2005.00,96.16
2004.00,96.18
2003.00,96.20
2002.00,96.21
2001.00,96.21
2000.00,96.19
1999.00,96.16
1998.00,96.18
1997.00,96.23
1996.00,96.29
1995.00,96.34
1994.00,96.36
1993.00,96.36
1992.00,96.37
1991.00,96.38
1990.00,96.38
1989.00,96.34
1988.00,96.26
1987.00,96.15
1986.00,96.05
1985.00,95.97
1984.00,95.94
1983.00,95.94
1982.00,95.93
1981.00,95.90
1980.00,95.84
1979.00,95.80
1978.00,95.81
1977.00,95.89
1976.00,95.99
1975.00,96.06
1974.00,96.10
1973.00,96.11
1972.00,96.12
1971.00,96.12
1970.00,96.14
1969.00,96.18
1968.00,96.25
1967.00,96.33
1966.00,96.39
1965.00,96.40
1964.00,96.38
1963.00,96.37
1962.00,96.40
1961.00,96.47
1960.00,96.57
1959.00,96.65
1958.00,96.70
1957.00,96.70
1956.00,96.68
1955.00,96.65
1954.00,96.65
1953.00,96.67
1952.00,96.72
1951.00,96.79
1950.00,96.86
1949.00,96.89
1948.00,96.91
1947.00,96.92
1946.00,96.93
1945.00,96.96
1944.00,97.00
1943.00,97.05
1942.00,97.09
1941.00,97.11
1940.00,97.09
1939.00,97.06
1938.00,97.04
1937.00,97.03
1936.00,97.05
1935.00,97.08
1934.00,97.12
1933.00,97.17
1932.00,97.19
1931.00,97.20
1930.00,97.19
1929.00,97.18
1928.00,97.20
1927.00,97.24
1926.00,97.26
1925.00,97.25
1924.00,97.23
1923.00,97.21
1922.00,97.21
1921.00,97.22
1920.00,97.24
1919.00,97.26
1918.00,97.29
1917.00,97.33
1916.00,97.35
1915.00,97.35
1914.00,97.33
1913.00,97.31
1912.00,97.30
1911.00,97.29
1910.00,97.30
1909.00,97.32
1908.00,97.35
1907.00,97.38
1906.00,97.42
1905.00,97.45
1904.00,97.47
1903.00,97.50
1902.00,97.52
1901.00,97.52
1900.00,97.51
1899.00,97.47
1898.00,97.43
1897.00,97.40
1896.00,97.40
1895.00,97.44
1894.00,97.49
1893.00,97.53
1892.00,97.57
1891.00,97.59
1890.00,97.59
1889.00,97.58
1888.00,97.58
1887.00,97.57
1886.00,97.58
1885.00,97.58
1884.00,97.58
1883.00,97.59
1882.00,97.59
1881.00,97.60
1880.00,97.59
1879.00,97.58
1878.00,97.59
1877.00,97.59
1876.00,97.61
1875.00,97.62
1874.00,97.63
1873.00,97.63
1872.00,97.61
1871.00,97.61
1870.00,97.62
1869.00,97.65
1868.00,97.66
1867.00,97.65
1866.00,97.64
1865.00,97.63
1864.00,97.63
1863.00,97.65
1862.00,97.67
1861.00,97.69
1860.00,97.71
1859.00,97.71
1858.00,97.71
1857.00,97.71
1856.00,97.72
1855.00,97.72
1854.00,97.74
1853.00,97.75
1852.00,97.77
1851.00,97.79
1850.00,97.80
1849.00,97.79
1848.00,97.76
1847.00,97.73
1846.00,97.72
1845.00,97.75
1844.00,97.80
1843.00,97.83
1842.00,97.83
1841.00,97.81
1840.00,97.80
1839.00,97.81
1838.00,97.82
1837.00,97.82
1836.00,97.82
1835.00,97.81
1834.00,97.80
1833.00,97.81
1832.00,97.82
1831.00,97.84
1830.00,97.86
1829.00,97.85
1828.00,97.81
1827.00,97.78
1826.00,97.78
1825.00,97.78
1824.00,97.79
1823.00,97.80
1822.00,97.80
1821.00,97.81
1820.00,97.82
1819.00,97.84
1818.00,97.86
1817.00,97.88
1816.00,97.89
1815.00,97.91
1814.00,97.93
1813.00,97.95
1812.00,97.95
1811.00,97.93
1810.00,97.91
1809.00,97.90
1808.00,97.91
1807.00,97.93
1806.00,97.93
1805.00,97.92
1804.00,97.90
1803.00,97.89
1802.00,97.90
1801.00,97.91
1800.00,97.93
1799.00,97.93
1798.00,97.92
1797.00,97.92
1796.00,97.92
1795.00,97.94
1794.00,97.96
1793.00,97.97
1792.00,97.96
1791.00,97.96
1790.00,97.96
1789.00,97.96
1788.00,97.96
1787.00,97.96
1786.00,97.96
1785.00,97.95
1784.00,97.94
1783.00,97.95
1782.00,97.95
1781.00,97.95
1780.00,97.94
1779.00,97.94
1778.00,97.94
1777.00,97.94
1776.00,97.93
1775.00,97.92
1774.00,97.91
1773.00,97.92
1772.00,97.93
1771.00,97.94
1770.00,97.93
1769.00,97.93
1768.00,97.93
1767.00,97.93
1766.00,97.93
1765.00,97.91
1764.00,97.88
1763.00,97.86
1762.00,97.87
1761.00,97.89
1760.00,97.89
1759.00,97.88
1758.00,97.86
1757.00,97.86
1756.00,97.87
1755.00,97.87
1754.00,97.86
1753.00,97.85
1752.00,97.84
1751.00,97.84
1750.00,97.83
1749.00,97.81
1748.00,97.79
1747.00,97.78
1746.00,97.79
1745.00,97.80
1744.00,97.80
1743.00,97.79
1742.00,97.77
1741.00,97.76
1740.00,97.77
1739.00,97.78
1738.00,97.79
1737.00,97.77
1736.00,97.75
1735.00,97.73
1734.00,97.72
1733.00,97.72
1732.00,97.73
1731.00,97.74
1730.00,97.75
1729.00,97.76
1728.00,97.75
1727.00,97.74
1726.00,97.72
1725.00,97.70
1724.00,97.68
1723.00,97.67
1722.00,97.66
1721.00,97.64
1720.00,97.63
1719.00,97.64
1718.00,97.64
1717.00,97.63
1716.00,97.61
1715.00,97.60
1714.00,97.59
1713.00,97.58
1712.00,97.56
1711.00,97.55
1710.00,97.54
1709.00,97.53
1708.00,97.51
1707.00,97.48
1706.00,97.47
1705.00,97.45
1704.00,97.43
1703.00,97.41
1702.00,97.38
1701.00,97.36
1700.00,97.34
1699.00,97.31
1698.00,97.27
1697.00,97.22
1696.00,97.19
1695.00,97.16
1694.00,97.15
1693.00,97.13
1692.00,97.09
1691.00,97.06
1690.00,97.02
1689.00,97.00
1688.00,96.97
1687.00,96.95
1686.00,96.93
1685.00,96.90
1684.00,96.84
1683.00,96.78
1682.00,96.74
1681.00,96.70
1680.00,96.66
1679.00,96.60
1678.00,96.55
1677.00,96.49
1676.00,96.42
1675.00,96.35
1674.00,96.29
1673.00,96.24
1672.00,96.18
1671.00,96.13
1670.00,96.07
1669.00,96.01
1668.00,95.95
1667.00,95.91
1666.00,95.87
1665.00,95.83
1664.00,95.79
1663.00,95.75
1662.00,95.70
1661.00,95.66
1660.00,95.61
1659.00,95.55
1658.00,95.49
1657.00,95.43
1656.00,95.38
1655.00,95.35
1654.00,95.32
1653.00,95.26
1652.00,95.21
1651.00,95.19
1650.00,95.17
1649.00,95.15
1648.00,95.12
1647.00,95.08
1646.00,95.06
1645.00,95.05
1644.00,95.05
1643.00,95.05
1642.00,95.06
1641.00,95.08
1640.00,95.09
1639.00,95.10
1638.00,95.11
1637.00,95.12
1636.00,95.12
1635.00,95.12
1634.00,95.14
1633.00,95.15
1632.00,95.17
1631.00,95.19
1630.00,95.22
1629.00,95.25
1628.00,95.29
1627.00,95.33
1626.00,95.37
1625.00,95.40
1624.00,95.42
1623.00,95.45
1622.00,95.50
1621.00,95.55
1620.00,95.59
1619.00,95.64
1618.00,95.68
1617.00,95.74
1616.00,95.79
1615.00,95.85
1614.00,95.89
1613.00,95.93
1612.00,95.98
1611.00,96.02
1610.00,96.06
1609.00,96.09
1608.00,96.11
1607.00,96.13
1606.00,96.15
1605.00,96.19
1604.00,96.23
1603.00,96.28
1602.00,96.33
1601.00,96.37
1600.00,96.39
1599.00,96.41
1598.00,96.43
1597.00,96.45
1596.00,96.47
1595.00,96.49
1594.00,96.52
1593.00,96.54
1592.00,96.55
1591.00,96.56
1590.00,96.58
1589.00,96.61
1588.00,96.65
1587.00,96.67
1586.00,96.69
1585.00,96.71
1584.00,96.74
1583.00,96.77
1582.00,96.81
1581.00,96.83
1580.00,96.85
1579.00,96.85
1578.00,96.85
1577.00,96.85
1576.00,96.87
1575.00,96.90
1574.00,96.94
1573.00,96.97
1572.00,96.98
1571.00,97.00
1570.00,97.01
1569.00,97.03
1568.00,97.04
1567.00,97.04
1566.00,97.03
1565.00,97.03
1564.00,97.04
1563.00,97.04
1562.00,97.04
1561.00,97.05
1560.00,97.07
1559.00,97.07
1558.00,97.07
1557.00,97.06
1556.00,97.06
1555.00,97.06
1554.00,97.08
1553.00,97.09
1552.00,97.08
1551.00,97.06
1550.00,97.05
1549.00,97.05
1548.00,97.06
1547.00,97.06
1546.00,97.05
1545.00,97.04
1544.00,97.03
1543.00,97.03
1542.00,97.03
1541.00,97.03
1540.00,97.05
1539.00,97.07
1538.00,97.10
1537.00,97.11
1536.00,97.11
1535.00,97.10
1534.00,97.12
1533.00,97.15
1532.00,97.19
1531.00,97.22
1530.00,97.24
1529.00,97.26
1528.00,97.26
1527.00,97.27
1526.00,97.27
1525.00,97.27
1524.00,97.27
1523.00,97.27
1522.00,97.26
1521.00,97.25
1520.00,97.24
1519.00,97.23
1518.00,97.23
1517.00,97.24
1516.00,97.26
1515.00,97.27
1514.00,97.27
1513.00,97.26
1512.00,97.24
1511.00,97.23
1510.00,97.20
1509.00,97.18
1508.00,97.17
1507.00,97.17
1506.00,97.16
1505.00,97.15
1504.00,97.13
1503.00,97.11
1502.00,97.09
1501.00,97.07
1500.00,97.04
1499.00,97.03
1498.00,97.01
1497.00,96.97
1496.00,96.92
1495.00,96.87
1494.00,96.81
1493.00,96.75
1492.00,96.68
1491.00,96.63
1490.00,96.58
1489.00,96.52
1488.00,96.44
1487.00,96.37
1486.00,96.30
1485.00,96.22
1484.00,96.13
1483.00,96.04
1482.00,95.95
1481.00,95.84
1480.00,95.74
1479.00,95.63
1478.00,95.51
1477.00,95.39
1476.00,95.26
1475.00,95.14
1474.00,95.02
1473.00,94.88
1472.00,94.72
1471.00,94.60
1470.00,94.50
1469.00,94.43
1468.00,94.36
1467.00,94.29
1466.00,94.21
1465.00,94.12
1464.00,94.03
1463.00,93.96
1462.00,93.91
1461.00,93.86
1460.00,93.81
1459.00,93.75
1458.00,93.68
1457.00,93.59
1456.00,93.50
1455.00,93.44
1454.00,93.39
1453.00,93.34
1452.00,93.29
1451.00,93.23
1450.00,93.17
1449.00,93.10
1448.00,93.03
1447.00,92.96
1446.00,92.90
1445.00,92.84
1444.00,92.78
1443.00,92.73
1442.00,92.67
1441.00,92.63
1440.00,92.58
1439.00,92.53
1438.00,92.47
1437.00,92.41
1436.00,92.36
1435.00,92.33
1434.00,92.32
1433.00,92.31
1432.00,92.29
1431.00,92.26
1430.00,92.25
1429.00,92.23
1428.00,92.21
1427.00,92.20
1426.00,92.18
1425.00,92.15
1424.00,92.12
1423.00,92.10
1422.00,92.09
1421.00,92.07
1420.00,92.03
1419.00,91.97
1418.00,91.95
1417.00,91.97
1416.00,92.01
1415.00,92.05
1414.00,92.08
1413.00,92.09
1412.00,92.10
1411.00,92.13
1410.00,92.16
1409.00,92.20
1408.00,92.22
1407.00,92.23
1406.00,92.25
1405.00,92.26
1404.00,92.26
1403.00,92.27
1402.00,92.27
1401.00,92.26
1400.00,92.24
1399.00,92.23
1398.00,92.21
1397.00,92.19
1396.00,92.15
1395.00,92.11
1394.00,92.08
1393.00,92.06
1392.00,92.03
1391.00,91.99
1390.00,91.94
1389.00,91.87
1388.00,91.77
1387.00,91.65
1386.00,91.52
1385.00,91.38
1384.00,91.23
1383.00,91.07
1382.00,90.88
1381.00,90.70
1380.00,90.52
1379.00,90.34
1378.00,90.17
1377.00,90.00
1376.00,89.85
1375.00,89.72
1374.00,89.62
1373.00,89.53
1372.00,89.46
1371.00,89.39
1370.00,89.33
1369.00,89.27
1368.00,89.23
1367.00,89.20
1366.00,89.21
1365.00,89.23
1364.00,89.27
1363.00,89.33
1362.00,89.41
1361.00,89.50
1360.00,89.59
1359.00,89.69
1358.00,89.79
1357.00,89.89
1356.00,89.99
1355.00,90.08
1354.00,90.16
1353.00,90.23
1352.00,90.28
1351.00,90.33
1350.00,90.35
1349.00,90.37
1348.00,90.39
1347.00,90.41
1346.00,90.42
1345.00,90.42
1344.00,90.41
1343.00,90.39
1342.00,90.36
1341.00,90.33
1340.00,90.28
1339.00,90.23
1338.00,90.18
1337.00,90.15
1336.00,90.13
1335.00,90.13
1334.00,90.13
1333.00,90.14
1332.00,90.15
1331.00,90.16
1330.00,90.16
1329.00,90.16
1328.00,90.17
1327.00,90.18
1326.00,90.19
1325.00,90.18
1324.00,90.15
1323.00,90.10
1322.00,90.04
1321.00,89.96
1320.00,89.88
1319.00,89.79
1318.00,89.71
1317.00,89.65
1316.00,89.60
1315.00,89.59
1314.00,89.60
1313.00,89.62
1312.00,89.67
1311.00,89.73
1310.00,89.81
1309.00,89.91
1308.00,90.03
1307.00,90.16
1306.00,90.30
1305.00,90.43
1304.00,90.56
1303.00,90.67
1302.00,90.77
1301.00,90.86
1300.00,90.96
1299.00,91.08
1298.00,91.20
1297.00,91.31
1296.00,91.42
1295.00,91.53
1294.00,91.65
1293.00,91.77
1292.00,91.89
1291.00,92.01
1290.00,92.12
1289.00,92.22
1288.00,92.31
1287.00,92.39
1286.00,92.44
1285.00,92.48
1284.00,92.49
1283.00,92.50
1282.00,92.48
1281.00,92.45
1280.00,92.39
1279.00,92.34
1278.00,92.30
1277.00,92.28
1276.00,92.27
1275.00,92.25
1274.00,92.23
1273.00,92.21
1272.00,92.17
1271.00,92.14
1270.00,92.09
1269.00,92.04
1268.00,91.97
1267.00,91.91
1266.00,91.87
1265.00,91.85
1264.00,91.85
1263.00,91.87
1262.00,91.87
1261.00,91.88
1260.00,91.89
1259.00,91.92
1258.00,91.97
1257.00,92.05
1256.00,92.13
1255.00,92.22
1254.00,92.31
1253.00,92.40
1252.00,92.48
1251.00,92.56
1250.00,92.61
1249.00,92.66
1248.00,92.69
1247.00,92.72
1246.00,92.75
1245.00,92.76
1244.00,92.77
1243.00,92.77
1242.00,92.77
1241.00,92.78
1240.00,92.78
1239.00,92.78
1238.00,92.78
1237.00,92.77
1236.00,92.77
1235.00,92.77
1234.00,92.79
1233.00,92.81
1232.00,92.83
1231.00,92.85
1230.00,92.88
1229.00,92.91
1228.00,92.97
1227.00,93.05
1226.00,93.15
1225.00,93.26
1224.00,93.37
1223.00,93.49
1222.00,93.61
1221.00,93.74
1220.00,93.86
1219.00,93.97
1218.00,94.07
1217.00,94.15
1216.00,94.21
1215.00,94.25
1214.00,94.28
1213.00,94.30
1212.00,94.30
1211.00,94.27
1210.00,94.20
1209.00,94.10
1208.00,93.97
1207.00,93.82
1206.00,93.67
1205.00,93.53
1204.00,93.39
1203.00,93.27
1202.00,93.16
1201.00,93.07
1200.00,93.03
1199.00,93.04
1198.00,93.10
1197.00,93.19
1196.00,93.32
1195.00,93.48
1194.00,93.66
1193.00,93.86
1192.00,94.04
1191.00,94.20
1190.00,94.34
1189.00,94.46
1188.00,94.56
1187.00,94.63
1186.00,94.68
1185.00,94.70
1184.00,94.70
1183.00,94.67
1182.00,94.60
1181.00,94.49
1180.00,94.34
1179.00,94.15
1178.00,93.94
1177.00,93.70
1176.00,93.47
1175.00,93.22
1174.00,92.96
1173.00,92.65
1172.00,92.31
1171.00,91.93
1170.00,91.53
1169.00,91.11
1168.00,90.67
1167.00,90.20
1166.00,89.73
1165.00,89.25
1164.00,88.79
1163.00,88.35
1162.00,87.95
1161.00,87.59
1160.00,87.26
1159.00,86.99
1158.00,86.80
1157.00,86.67
1156.00,86.59
1155.00,86.58
1154.00,86.62
1153.00,86.72
1152.00,86.86
1151.00,87.04
1150.00,87.24
1149.00,87.43
1148.00,87.63
1147.00,87.83
1146.00,88.02
1145.00,88.19
1144.00,88.33
1143.00,88.44
1142.00,88.52
1141.00,88.56
1140.00,88.55
1139.00,88.50
1138.00,88.40
1137.00,88.27
1136.00,88.10
1135.00,87.90
1134.00,87.67
1133.00,87.42
1132.00,87.16
1131.00,86.89
1130.00,86.59
1129.00,86.25
1128.00,85.91
1127.00,85.58
1126.00,85.25
1125.00,84.90
1124.00,84.54
1123.00,84.18
1122.00,83.85
1121.00,83.54
1120.00,83.22
1119.00,82.89
1118.00,82.58
1117.00,82.28
1116.00,81.99
1115.00,81.71
1114.00,81.48
1113.00,81.28
1112.00,81.11
1111.00,80.95
1110.00,80.79
1109.00,80.64
1108.00,80.49
1107.00,80.34
1106.00,80.17
1105.00,79.97
1104.00,79.73
1103.00,79.48
1102.00,79.19
1101.00,78.88
1100.00,78.56
1099.00,78.27
1098.00,78.03
1097.00,77.81
1096.00,77.59
1095.00,77.38
1094.00,77.18
1093.00,76.98
1092.00,76.78
1091.00,76.62
1090.00,76.47
1089.00,76.31
1088.00,76.13
1087.00,75.93
1086.00,75.72
1085.00,75.52
1084.00,75.34
1083.00,75.16
1082.00,74.95
1081.00,74.69
1080.00,74.39
1079.00,74.09
1078.00,73.78
1077.00,73.46
1076.00,73.13
1075.00,72.82
1074.00,72.54
1073.00,72.25
1072.00,71.93
1071.00,71.60
1070.00,71.28
1069.00,70.96
1068.00,70.65
1067.00,70.35
1066.00,70.05
1065.00,69.73
1064.00,69.38
1063.00,69.04
1062.00,68.72
1061.00,68.42
1060.00,68.14
1059.00,67.87
1058.00,67.64
1057.00,67.44
1056.00,67.27
1055.00,67.13
1054.00,66.98
1053.00,66.83
1052.00,66.67
1051.00,66.54
1050.00,66.44
1049.00,66.34
1048.00,66.23
1047.00,66.12
1046.00,66.01
1045.00,65.90
1044.00,65.79
1043.00,65.70
1042.00,65.60
1041.00,65.51
1040.00,65.42
1039.00,65.32
1038.00,65.21
1037.00,65.08
1036.00,64.92
1035.00,64.73
1034.00,64.51
1033.00,64.24
1032.00,63.95
1031.00,63.68
1030.00,63.43
1029.00,63.16
1028.00,62.89
1027.00,62.64
1026.00,62.42
1025.00,62.22
1024.00,62.01
1023.00,61.80
1022.00,61.60
1021.00,61.43
1020.00,61.31
1019.00,61.26
1018.00,61.26
1017.00,61.30
1016.00,61.37
1015.00,61.49
1014.00,61.68
1013.00,61.90
1012.00,62.15
1011.00,62.41
1010.00,62.66
1009.00,62.87
1008.00,63.07
1007.00,63.28
1006.00,63.50
1005.00,63.70
1004.00,63.84
1003.00,63.92
1002.00,63.94
1001.00,63.92
1000.00,63.89
999.00,63.87
998.00,63.85
997.00,63.82
996.00,63.78
995.00,63.76
994.00,63.79
993.00,63.89
992.00,64.05
991.00,64.28
990.00,64.59
989.00,64.97
988.00,65.42
987.00,65.92
986.00,66.47
985.00,67.05
984.00,67.69
983.00,68.36
982.00,69.05
981.00,69.71
980.00,70.33
979.00,70.93
978.00,71.52
977.00,72.10
976.00,72.64
975.00,73.15
974.00,73.62
973.00,74.06
972.00,74.46
971.00,74.82
970.00,75.16
969.00,75.47
968.00,75.77
967.00,76.07
966.00,76.36
965.00,76.63
964.00,76.89
963.00,77.16
962.00,77.43
961.00,77.72
960.00,78.01
959.00,78.32
958.00,78.63
957.00,78.95
956.00,79.27
955.00,79.61
954.00,79.96
953.00,80.31
952.00,80.64
951.00,80.95
950.00,81.23
949.00,81.49
948.00,81.75
947.00,82.02
946.00,82.27
945.00,82.50
944.00,82.71
943.00,82.93
942.00,83.15
941.00,83.35
940.00,83.53
939.00,83.70
938.00,83.84
937.00,83.96
936.00,84.08
935.00,84.20
934.00,84.31
933.00,84.41
932.00,84.52
931.00,84.63
930.00,84.76
929.00,84.88
928.00,85.00
927.00,85.12
926.00,85.24
925.00,85.36
924.00,85.48
923.00,85.61
922.00,85.74
921.00,85.87
920.00,85.98
919.00,86.07
918.00,86.12
917.00,86.13
916.00,86.12
915.00,86.09
914.00,86.05
913.00,85.98
912.00,85.90
911.00,85.79
910.00,85.65
909.00,85.48
908.00,85.26
907.00,85.04
906.00,84.82
905.00,84.62
904.00,84.41
903.00,84.19
902.00,83.94
901.00,83.67
900.00,83.41
899.00,83.17
898.00,82.97
897.00,82.81
896.00,82.70
895.00,82.64
894.00,82.66
893.00,82.75
892.00,82.90
891.00,83.09
890.00,83.31
889.00,83.56
888.00,83.85
887.00,84.16
886.00,84.49
885.00,84.82
884.00,85.14
883.00,85.44
882.00,85.71
881.00,85.95
880.00,86.16
879.00,86.35
878.00,86.54
877.00,86.74
876.00,86.96
875.00,87.17
874.00,87.36
873.00,87.48
872.00,87.57
871.00,87.66
870.00,87.78
869.00,87.93
868.00,88.06
867.00,88.18
866.00,88.27
865.00,88.37
864.00,88.46
863.00,88.56
862.00,88.64
861.00,88.70
860.00,88.75
859.00,88.78
858.00,88.79
857.00,88.80
856.00,88.82
855.00,88.85
854.00,88.90
853.00,88.96
852.00,89.01
851.00,89.03
850.00,89.06
849.00,89.08
848.00,89.10
847.00,89.12
846.00,89.13
845.00,89.13
844.00,89.12
843.00,89.11
842.00,89.11
841.00,89.11
840.00,89.11
839.00,89.10
838.00,89.09
837.00,89.05
836.00,89.01
835.00,89.00
834.00,89.01
833.00,89.03
832.00,89.03
831.00,89.01
830.00,88.97
829.00,88.93
828.00,88.90
827.00,88.88
826.00,88.88
825.00,88.89
824.00,88.88
823.00,88.84
822.00,88.77
821.00,88.69
820.00,88.61
819.00,88.56
818.00,88.52
817.00,88.49
816.00,88.47
815.00,88.46
814.00,88.45
813.00,88.43
812.00,88.39
811.00,88.36
810.00,88.34
809.00,88.32
808.00,88.29
807.00,88.27
806.00,88.27
805.00,88.26
804.00,88.25
803.00,88.23
802.00,88.21
801.00,88.17
800.00,88.14
799.00,88.13
798.00,88.12
797.00,88.10
796.00,88.05
795.00,88.00
794.00,87.98
793.00,87.97
792.00,87.96
791.00,87.95
790.00,87.93
789.00,87.90
788.00,87.85
787.00,87.77
786.00,87.70
785.00,87.65
784.00,87.62
783.00,87.62
782.00,87.60
781.00,87.57
780.00,87.54
779.00,87.53
778.00,87.53
777.00,87.52
776.00,87.47
775.00,87.40
774.00,87.33
773.00,87.27
772.00,87.21
771.00,87.15
770.00,87.09
769.00,87.05
768.00,87.03
767.00,87.00
766.00,86.94
765.00,86.84
764.00,86.74
763.00,86.68
762.00,86.66
761.00,86.66
760.00,86.64
759.00,86.59
758.00,86.53
757.00,86.47
756.00,86.41
755.00,86.37
754.00,86.34
753.00,86.31
752.00,86.27
751.00,86.23
750.00,86.16
749.00,86.07
748.00,85.96
747.00,85.88
746.00,85.84
745.00,85.80
744.00,85.74
743.00,85.68
742.00,85.63
741.00,85.59
740.00,85.54
739.00,85.48
738.00,85.43
737.00,85.36
736.00,85.27
735.00,85.14
734.00,85.03
733.00,84.96
732.00,84.91
731.00,84.87
730.00,84.82
729.00,84.74
728.00,84.65
727.00,84.56
726.00,84.48
725.00,84.44
724.00,84.41
723.00,84.36
722.00,84.28
721.00,84.16
720.00,84.02
719.00,83.92
718.00,83.86
717.00,83.82
716.00,83.79
715.00,83.77
714.00,83.75
713.00,83.72
712.00,83.66
711.00,83.57
710.00,83.49
709.00,83.44
708.00,83.43
707.00,83.44
706.00,83.45
705.00,83.42
704.00,83.36
703.00,83.29
702.00,83.22
701.00,83.15
700.00,83.09
699.00,83.03
698.00,82.99
697.00,82.96
696.00,82.93
695.00,82.93
694.00,82.93
693.00,82.94
692.00,82.93
691.00,82.89
690.00,82.86
689.00,82.83
688.00,82.82
687.00,82.80
686.00,82.75
685.00,82.64
684.00,82.46
683.00,82.22
682.00,81.96
681.00,81.67
680.00,81.34
679.00,80.97
678.00,80.56
677.00,80.10
676.00,79.61
675.00,79.10
674.00,78.59
673.00,78.15
672.00,77.81
671.00,77.59
670.00,77.45
669.00,77.22
668.00,76.81
667.00,76.45
666.00,76.33
665.00,76.35
664.00,76.40
663.00,76.43
662.00,76.41
661.00,76.38
660.00,76.38
659.00,76.41
658.00,76.44
657.00,76.46
656.00,76.52
655.00,76.63
654.00,76.74
653.00,76.79
652.00,76.77
651.00,76.71
650.00,76.66
649.00,76.62
648.00,76.62
647.00,76.65
646.00,76.67
645.00,76.64
644.00,76.55
643.00,76.41
642.00,76.28
641.00,76.24
640.00,76.33
639.00,76.46
638.00,76.51
637.00,76.41
636.00,76.24
635.00,76.10
634.00,76.00
633.00,75.86
632.00,75.68
631.00,75.54
630.00,75.46
629.00,75.44
628.00,75.46
627.00,75.52
626.00,75.57
625.00,75.54
624.00,75.41
623.00,75.21
622.00,75.00
621.00,74.79
620.00,74.61
619.00,74.49
618.00,74.40
617.00,74.22
616.00,73.91
615.00,73.51
614.00,73.14
613.00,72.88
612.00,72.75
611.00,72.68
610.00,72.59
609.00,72.43
608.00,72.30
607.00,72.26
606.00,72.31
605.00,72.35
604.00,72.30
603.00,72.06
602.00,71.59
601.00,71.02
600.00,70.67
599.00,70.72
598.00,71.04
597.00,71.35
596.00,71.53
595.00,71.67
594.00,71.75
593.00,71.63
592.00,71.37
591.00,71.26
590.00,71.49
589.00,71.90
588.00,72.21
587.00,72.29
586.00,72.15
585.00,71.94
584.00,71.88
583.00,72.06
582.00,72.17
581.00,71.76
580.00,70.78
579.00,69.75
578.00,69.19
577.00,69.19
576.00,69.60
575.00,70.15
574.00,70.50
573.00,70.42
572.00,70.19
571.00,70.28
570.00,70.68
569.00,71.00
568.00,71.07
567.00,71.10
566.00,71.24
565.00,71.32
564.00,71.23
563.00,71.13
562.00,71.18
561.00,71.30
560.00,71.38
559.00,71.41
558.00,71.29
557.00,70.90
556.00,70.41
555.00,70.16
554.00,70.32
553.00,70.61
552.00,70.75
551.00,70.55
550.00,70.04
