Created as New Dataset,188 Courtaulds
cm-1,%T
4000.00,101.72
3999.00,101.72
3998.00,101.72
3997.00,101.72
3996.00,101.72
3995.00,101.72
3994.00,101.72
3993.00,101.73
3992.00,101.73
3991.00,101.73
3990.00,101.73
3989.00,101.72
3988.00,101.70
3987.00,101.69
3986.00,101.68
3985.00,101.68
3984.00,101.70
3983.00,101.70
3982.00,101.70
3981.00,101.69
3980.00,101.69
3979.00,101.69
3978.00,101.71
3977.00,101.73
3976.00,101.75
3975.00,101.77
3974.00,101.77
3973.00,101.75
3972.00,101.73
3971.00,101.70
3970.00,101.69
3969.00,101.68
3968.00,101.68
3967.00,101.68
3966.00,101.70
3965.00,101.71
3964.00,101.72
3963.00,101.72
3962.00,101.72
3961.00,101.72
3960.00,101.72
3959.00,101.73
3958.00,101.73
3957.00,101.74
3956.00,101.74
3955.00,101.73
3954.00,101.73
3953.00,101.73
3952.00,101.73
3951.00,101.74
3950.00,101.74
3949.00,101.75
3948.00,101.76
3947.00,101.76
3946.00,101.75
3945.00,101.74
3944.00,101.73
3943.00,101.73
3942.00,101.73
3941.00,101.73
3940.00,101.74
3939.00,101.74
3938.00,101.73
3937.00,101.71
3936.00,101.69
3935.00,101.68
3934.00,101.66
3933.00,101.65
3932.00,101.63
3931.00,101.63
3930.00,101.64
3929.00,101.66
3928.00,101.68
3927.00,101.69
3926.00,101.70
3925.00,101.70
3924.00,101.70
3923.00,101.71
3922.00,101.73
3921.00,101.76
3920.00,101.79
3919.00,101.78
3918.00,101.76
3917.00,101.73
3916.00,101.71
3915.00,101.70
3914.00,101.71
3913.00,101.71
3912.00,101.71
3911.00,101.70
3910.00,101.69
3909.00,101.69
3908.00,101.72
3907.00,101.75
3906.00,101.76
3905.00,101.77
3904.00,101.76
3903.00,101.76
3902.00,101.76
3901.00,101.78
3900.00,101.79
3899.00,101.79
3898.00,101.78
3897.00,101.77
3896.00,101.76
3895.00,101.75
3894.00,101.76
3893.00,101.76
3892.00,101.75
3891.00,101.73
3890.00,101.69
3889.00,101.67
3888.00,101.67
3887.00,101.68
3886.00,101.70
3885.00,101.71
3884.00,101.73
3883.00,101.74
3882.00,101.75
3881.00,101.76
3880.00,101.76
3879.00,101.75
3878.00,101.74
3877.00,101.73
3876.00,101.73
3875.00,101.71
3874.00,101.70
3873.00,101.70
3872.00,101.72
3871.00,101.73
3870.00,101.74
3869.00,101.72
3868.00,101.71
3867.00,101.72
3866.00,101.73
3865.00,101.75
3864.00,101.76
3863.00,101.76
3862.00,101.76
3861.00,101.76
3860.00,101.75
3859.00,101.74
3858.00,101.73
3857.00,101.74
3856.00,101.75
3855.00,101.76
3854.00,101.76
3853.00,101.75
3852.00,101.75
3851.00,101.76
3850.00,101.76
3849.00,101.75
3848.00,101.73
3847.00,101.72
3846.00,101.72
3845.00,101.73
3844.00,101.75
3843.00,101.77
3842.00,101.79
3841.00,101.81
3840.00,101.83
3839.00,101.84
3838.00,101.85
3837.00,101.84
3836.00,101.84
3835.00,101.82
3834.00,101.79
3833.00,101.76
3832.00,101.73
3831.00,101.72
3830.00,101.72
3829.00,101.73
3828.00,101.74
3827.00,101.74
3826.00,101.73
3825.00,101.73
3824.00,101.73
3823.00,101.73
3822.00,101.72
3821.00,101.72
3820.00,101.74
3819.00,101.76
3818.00,101.78
3817.00,101.78
3816.00,101.75
3815.00,101.72
3814.00,101.70
3813.00,101.70
3812.00,101.71
3811.00,101.72
3810.00,101.73
3809.00,101.73
3808.00,101.72
3807.00,101.70
3806.00,101.70
3805.00,101.73
3804.00,101.77
3803.00,101.80
3802.00,101.79
3801.00,101.75
3800.00,101.73
3799.00,101.73
3798.00,101.75
3797.00,101.76
3796.00,101.75
3795.00,101.72
3794.00,101.70
3793.00,101.69
3792.00,101.69
3791.00,101.68
3790.00,101.66
3789.00,101.63
3788.00,101.62
3787.00,101.63
3786.00,101.64
3785.00,101.66
3784.00,101.67
3783.00,101.67
3782.00,101.68
3781.00,101.70
3780.00,101.71
3779.00,101.70
3778.00,101.69
3777.00,101.67
3776.00,101.66
3775.00,101.65
3774.00,101.64
3773.00,101.64
3772.00,101.63
3771.00,101.63
3770.00,101.63
3769.00,101.65
3768.00,101.68
3767.00,101.69
3766.00,101.69
3765.00,101.66
3764.00,101.63
3763.00,101.60
3762.00,101.58
3761.00,101.58
3760.00,101.60
3759.00,101.61
3758.00,101.63
3757.00,101.63
3756.00,101.64
3755.00,101.65
3754.00,101.68
3753.00,101.72
3752.00,101.75
3751.00,101.76
3750.00,101.75
3749.00,101.75
3748.00,101.75
3747.00,101.75
3746.00,101.74
3745.00,101.73
3744.00,101.74
3743.00,101.75
3742.00,101.77
3741.00,101.76
3740.00,101.74
3739.00,101.71
3738.00,101.68
3737.00,101.68
3736.00,101.70
3735.00,101.71
3734.00,101.72
3733.00,101.71
3732.00,101.71
3731.00,101.71
3730.00,101.72
3729.00,101.74
3728.00,101.75
3727.00,101.74
3726.00,101.71
3725.00,101.67
3724.00,101.64
3723.00,101.61
3722.00,101.60
3721.00,101.61
3720.00,101.63
3719.00,101.65
3718.00,101.66
3717.00,101.67
3716.00,101.68
3715.00,101.68
3714.00,101.68
3713.00,101.66
3712.00,101.64
3711.00,101.62
3710.00,101.61
3709.00,101.60
3708.00,101.60
3707.00,101.59
3706.00,101.60
3705.00,101.61
3704.00,101.62
3703.00,101.62
3702.00,101.61
3701.00,101.59
3700.00,101.57
3699.00,101.55
3698.00,101.54
3697.00,101.53
3696.00,101.53
3695.00,101.53
3694.00,101.54
3693.00,101.56
3692.00,101.58
3691.00,101.59
3690.00,101.58
3689.00,101.56
3688.00,101.55
3687.00,101.57
3686.00,101.58
3685.00,101.59
3684.00,101.59
3683.00,101.58
3682.00,101.57
3681.00,101.54
3680.00,101.52
3679.00,101.49
3678.00,101.49
3677.00,101.51
3676.00,101.53
3675.00,101.55
3674.00,101.56
3673.00,101.57
3672.00,101.57
3671.00,101.56
3670.00,101.52
3669.00,101.47
3668.00,101.45
3667.00,101.45
3666.00,101.46
3665.00,101.46
3664.00,101.44
3663.00,101.40
3662.00,101.35
3661.00,101.32
3660.00,101.31
3659.00,101.32
3658.00,101.35
3657.00,101.38
3656.00,101.39
3655.00,101.40
3654.00,101.41
3653.00,101.42
3652.00,101.42
3651.00,101.41
3650.00,101.40
3649.00,101.39
3648.00,101.39
3647.00,101.37
3646.00,101.35
3645.00,101.33
3644.00,101.30
3643.00,101.28
3642.00,101.26
3641.00,101.25
3640.00,101.23
3639.00,101.21
3638.00,101.19
3637.00,101.18
3636.00,101.18
3635.00,101.18
3634.00,101.19
3633.00,101.19
3632.00,101.20
3631.00,101.19
3630.00,101.17
3629.00,101.13
3628.00,101.11
3627.00,101.10
3626.00,101.11
3625.00,101.11
3624.00,101.12
3623.00,101.13
3622.00,101.13
3621.00,101.12
3620.00,101.08
3619.00,101.02
3618.00,100.96
3617.00,100.94
3616.00,100.93
3615.00,100.94
3614.00,100.93
3613.00,100.92
3612.00,100.89
3611.00,100.87
3610.00,100.85
3609.00,100.84
3608.00,100.81
3607.00,100.77
3606.00,100.73
3605.00,100.70
3604.00,100.68
3603.00,100.66
3602.00,100.66
3601.00,100.66
3600.00,100.67
3599.00,100.67
3598.00,100.66
3597.00,100.63
3596.00,100.57
3595.00,100.51
3594.00,100.46
3593.00,100.43
3592.00,100.42
3591.00,100.42
3590.00,100.40
3589.00,100.38
3588.00,100.36
3587.00,100.34
3586.00,100.33
3585.00,100.31
3584.00,100.30
3583.00,100.28
3582.00,100.25
3581.00,100.23
3580.00,100.21
3579.00,100.20
3578.00,100.18
3577.00,100.16
3576.00,100.12
3575.00,100.08
3574.00,100.03
3573.00,99.99
3572.00,99.97
3571.00,99.97
3570.00,99.97
3569.00,99.96
3568.00,99.94
3567.00,99.90
3566.00,99.85
3565.00,99.81
3564.00,99.78
3563.00,99.77
3562.00,99.75
3561.00,99.72
3560.00,99.69
3559.00,99.66
3558.00,99.64
3557.00,99.63
3556.00,99.61
3555.00,99.58
3554.00,99.54
3553.00,99.49
3552.00,99.45
3551.00,99.42
3550.00,99.40
3549.00,99.39
3548.00,99.36
3547.00,99.33
3546.00,99.28
3545.00,99.23
3544.00,99.20
3543.00,99.19
3542.00,99.17
3541.00,99.15
3540.00,99.13
3539.00,99.11
3538.00,99.09
3537.00,99.07
3536.00,99.04
3535.00,98.99
3534.00,98.95
3533.00,98.91
3532.00,98.89
3531.00,98.87
3530.00,98.86
3529.00,98.84
3528.00,98.81
3527.00,98.78
3526.00,98.72
3525.00,98.67
3524.00,98.63
3523.00,98.60
3522.00,98.57
3521.00,98.55
3520.00,98.51
3519.00,98.46
3518.00,98.41
3517.00,98.36
3516.00,98.33
3515.00,98.31
3514.00,98.28
3513.00,98.25
3512.00,98.21
3511.00,98.15
3510.00,98.10
3509.00,98.06
3508.00,98.02
3507.00,97.98
3506.00,97.93
3505.00,97.89
3504.00,97.85
3503.00,97.81
3502.00,97.77
3501.00,97.71
3500.00,97.65
3499.00,97.60
3498.00,97.55
3497.00,97.49
3496.00,97.43
3495.00,97.37
3494.00,97.32
3493.00,97.28
3492.00,97.25
3491.00,97.22
3490.00,97.19
3489.00,97.16
3488.00,97.12
3487.00,97.07
3486.00,97.01
3485.00,96.97
3484.00,96.94
3483.00,96.94
3482.00,96.94
3481.00,96.94
3480.00,96.92
3479.00,96.89
3478.00,96.86
3477.00,96.82
3476.00,96.78
3475.00,96.75
3474.00,96.73
3473.00,96.72
3472.00,96.70
3471.00,96.67
3470.00,96.62
3469.00,96.57
3468.00,96.52
3467.00,96.49
3466.00,96.47
3465.00,96.44
3464.00,96.41
3463.00,96.38
3462.00,96.35
3461.00,96.33
3460.00,96.31
3459.00,96.27
3458.00,96.22
3457.00,96.17
3456.00,96.12
3455.00,96.08
3454.00,96.03
3453.00,95.98
3452.00,95.92
3451.00,95.87
3450.00,95.82
3449.00,95.77
3448.00,95.71
3447.00,95.67
3446.00,95.62
3445.00,95.59
3444.00,95.57
3443.00,95.55
3442.00,95.53
3441.00,95.50
3440.00,95.47
3439.00,95.45
3438.00,95.44
3437.00,95.45
3436.00,95.46
3435.00,95.46
3434.00,95.44
3433.00,95.41
3432.00,95.38
3431.00,95.35
3430.00,95.32
3429.00,95.30
3428.00,95.29
3427.00,95.30
3426.00,95.31
3425.00,95.32
3424.00,95.31
3423.00,95.28
3422.00,95.25
3421.00,95.23
3420.00,95.20
3419.00,95.18
3418.00,95.15
3417.00,95.12
3416.00,95.10
3415.00,95.10
3414.00,95.10
3413.00,95.10
3412.00,95.09
3411.00,95.08
3410.00,95.07
3409.00,95.06
3408.00,95.03
3407.00,95.00
3406.00,94.97
3405.00,94.94
3404.00,94.92
3403.00,94.91
3402.00,94.89
3401.00,94.88
3400.00,94.87
3399.00,94.85
3398.00,94.83
3397.00,94.80
3396.00,94.78
3395.00,94.77
3394.00,94.77
3393.00,94.75
3392.00,94.72
3391.00,94.69
3390.00,94.66
3389.00,94.65
3388.00,94.64
3387.00,94.64
3386.00,94.64
3385.00,94.63
3384.00,94.62
3383.00,94.61
3382.00,94.61
3381.00,94.61
3380.00,94.63
3379.00,94.63
3378.00,94.63
3377.00,94.61
3376.00,94.60
3375.00,94.58
3374.00,94.55
3373.00,94.52
3372.00,94.49
3371.00,94.47
3370.00,94.45
3369.00,94.43
3368.00,94.42
3367.00,94.42
3366.00,94.42
3365.00,94.42
3364.00,94.41
3363.00,94.40
3362.00,94.39
3361.00,94.38
3360.00,94.37
3359.00,94.36
3358.00,94.36
3357.00,94.36
3356.00,94.36
3355.00,94.35
3354.00,94.34
3353.00,94.33
3352.00,94.32
3351.00,94.32
3350.00,94.32
3349.00,94.31
3348.00,94.29
3347.00,94.28
3346.00,94.26
3345.00,94.25
3344.00,94.24
3343.00,94.22
3342.00,94.22
3341.00,94.22
3340.00,94.24
3339.00,94.26
3338.00,94.25
3337.00,94.23
3336.00,94.22
3335.00,94.22
3334.00,94.22
3333.00,94.23
3332.00,94.23
3331.00,94.22
3330.00,94.21
3329.00,94.20
3328.00,94.19
3327.00,94.18
3326.00,94.19
3325.00,94.20
3324.00,94.22
3323.00,94.23
3322.00,94.24
3321.00,94.24
3320.00,94.23
3319.00,94.22
3318.00,94.20
3317.00,94.19
3316.00,94.17
3315.00,94.17
3314.00,94.18
3313.00,94.19
3312.00,94.21
3311.00,94.23
3310.00,94.24
3309.00,94.25
3308.00,94.26
3307.00,94.25
3306.00,94.25
3305.00,94.25
3304.00,94.26
3303.00,94.26
3302.00,94.28
3301.00,94.29
3300.00,94.31
3299.00,94.31
3298.00,94.31
3297.00,94.30
3296.00,94.29
3295.00,94.29
3294.00,94.30
3293.00,94.30
3292.00,94.30
3291.00,94.30
3290.00,94.30
3289.00,94.31
3288.00,94.32
3287.00,94.34
3286.00,94.35
3285.00,94.36
3284.00,94.35
3283.00,94.34
3282.00,94.34
3281.00,94.35
3280.00,94.37
3279.00,94.38
3278.00,94.38
3277.00,94.37
3276.00,94.36
3275.00,94.35
3274.00,94.37
3273.00,94.40
3272.00,94.43
3271.00,94.46
3270.00,94.47
3269.00,94.47
3268.00,94.47
3267.00,94.46
3266.00,94.46
3265.00,94.46
3264.00,94.47
3263.00,94.49
3262.00,94.51
3261.00,94.53
3260.00,94.55
3259.00,94.56
3258.00,94.57
3257.00,94.57
3256.00,94.57
3255.00,94.58
3254.00,94.59
3253.00,94.61
3252.00,94.63
3251.00,94.66
3250.00,94.69
3249.00,94.71
3248.00,94.71
3247.00,94.69
3246.00,94.68
3245.00,94.67
3244.00,94.67
3243.00,94.68
3242.00,94.70
3241.00,94.71
3240.00,94.73
3239.00,94.74
3238.00,94.75
3237.00,94.76
3236.00,94.76
3235.00,94.77
3234.00,94.79
3233.00,94.82
3232.00,94.85
3231.00,94.87
3230.00,94.88
3229.00,94.89
3228.00,94.89
3227.00,94.89
3226.00,94.89
3225.00,94.90
3224.00,94.90
3223.00,94.91
3222.00,94.93
3221.00,94.95
3220.00,94.98
3219.00,95.01
3218.00,95.03
3217.00,95.06
3216.00,95.08
3215.00,95.09
3214.00,95.10
3213.00,95.11
3212.00,95.13
3211.00,95.15
3210.00,95.18
3209.00,95.20
3208.00,95.22
3207.00,95.23
3206.00,95.24
3205.00,95.24
3204.00,95.25
3203.00,95.27
3202.00,95.30
3201.00,95.32
3200.00,95.33
3199.00,95.34
3198.00,95.35
3197.00,95.36
3196.00,95.39
3195.00,95.43
3194.00,95.45
3193.00,95.47
3192.00,95.46
3191.00,95.46
3190.00,95.45
3189.00,95.46
3188.00,95.48
3187.00,95.51
3186.00,95.55
3185.00,95.57
3184.00,95.58
3183.00,95.59
3182.00,95.60
3181.00,95.61
3180.00,95.63
3179.00,95.65
3178.00,95.68
3177.00,95.70
3176.00,95.71
3175.00,95.72
3174.00,95.74
3173.00,95.75
3172.00,95.77
3171.00,95.77
3170.00,95.77
3169.00,95.78
3168.00,95.79
3167.00,95.81
3166.00,95.83
3165.00,95.85
3164.00,95.87
3163.00,95.90
3162.00,95.93
3161.00,95.96
3160.00,95.99
3159.00,96.02
3158.00,96.05
3157.00,96.07
3156.00,96.10
3155.00,96.12
3154.00,96.14
3153.00,96.16
3152.00,96.18
3151.00,96.20
3150.00,96.22
3149.00,96.23
3148.00,96.25
3147.00,96.26
3146.00,96.29
3145.00,96.31
3144.00,96.34
3143.00,96.37
3142.00,96.40
3141.00,96.43
3140.00,96.44
3139.00,96.45
3138.00,96.44
3137.00,96.43
3136.00,96.43
3135.00,96.46
3134.00,96.50
3133.00,96.56
3132.00,96.61
3131.00,96.66
3130.00,96.70
3129.00,96.73
3128.00,96.76
3127.00,96.79
3126.00,96.81
3125.00,96.82
3124.00,96.83
3123.00,96.85
3122.00,96.87
3121.00,96.89
3120.00,96.92
3119.00,96.94
3118.00,96.96
3117.00,96.98
3116.00,97.00
3115.00,97.02
3114.00,97.04
3113.00,97.06
3112.00,97.08
3111.00,97.10
3110.00,97.13
3109.00,97.16
3108.00,97.19
3107.00,97.22
3106.00,97.24
3105.00,97.26
3104.00,97.28
3103.00,97.31
3102.00,97.34
3101.00,97.37
3100.00,97.38
3099.00,97.39
3098.00,97.41
3097.00,97.43
3096.00,97.46
3095.00,97.48
3094.00,97.51
3093.00,97.55
3092.00,97.58
3091.00,97.62
3090.00,97.66
3089.00,97.69
3088.00,97.69
3087.00,97.68
3086.00,97.66
3085.00,97.65
3084.00,97.66
3083.00,97.69
3082.00,97.74
3081.00,97.79
3080.00,97.83
3079.00,97.87
3078.00,97.89
3077.00,97.92
3076.00,97.94
3075.00,97.97
3074.00,97.99
3073.00,98.00
3072.00,98.01
3071.00,98.02
3070.00,98.02
3069.00,98.02
3068.00,98.03
3067.00,98.05
3066.00,98.09
3065.00,98.12
3064.00,98.15
3063.00,98.17
3062.00,98.19
3061.00,98.20
3060.00,98.22
3059.00,98.24
3058.00,98.27
3057.00,98.29
3056.00,98.30
3055.00,98.30
3054.00,98.31
3053.00,98.33
3052.00,98.35
3051.00,98.38
3050.00,98.40
3049.00,98.41
3048.00,98.42
3047.00,98.43
3046.00,98.44
3045.00,98.46
3044.00,98.47
3043.00,98.49
3042.00,98.50
3041.00,98.51
3040.00,98.52
3039.00,98.54
3038.00,98.55
3037.00,98.57
3036.00,98.58
3035.00,98.59
3034.00,98.60
3033.00,98.62
3032.00,98.65
3031.00,98.67
3030.00,98.69
3029.00,98.71
3028.00,98.73
3027.00,98.74
3026.00,98.77
3025.00,98.79
3024.00,98.81
3023.00,98.82
3022.00,98.83
3021.00,98.84
3020.00,98.84
3019.00,98.85
3018.00,98.87
3017.00,98.89
3016.00,98.90
3015.00,98.91
3014.00,98.91
3013.00,98.92
3012.00,98.94
3011.00,98.97
3010.00,98.98
3009.00,98.98
3008.00,98.98
3007.00,98.98
3006.00,98.99
3005.00,99.00
3004.00,99.02
3003.00,99.03
3002.00,99.03
3001.00,99.02
3000.00,99.01
2999.00,99.01
2998.00,99.02
2997.00,99.03
2996.00,99.05
2995.00,99.06
2994.00,99.08
2993.00,99.09
2992.00,99.10
2991.00,99.10
2990.00,99.10
2989.00,99.08
2988.00,99.07
2987.00,99.05
2986.00,99.02
2985.00,99.00
2984.00,98.99
2983.00,98.98
2982.00,98.98
2981.00,98.97
2980.00,98.96
2979.00,98.95
2978.00,98.94
2977.00,98.93
2976.00,98.92
2975.00,98.90
2974.00,98.90
2973.00,98.89
2972.00,98.89
2971.00,98.88
2970.00,98.86
2969.00,98.85
2968.00,98.85
2967.00,98.85
2966.00,98.84
2965.00,98.82
2964.00,98.78
2963.00,98.73
2962.00,98.69
2961.00,98.66
2960.00,98.64
2959.00,98.64
2958.00,98.63
2957.00,98.63
2956.00,98.61
2955.00,98.58
2954.00,98.54
2953.00,98.50
2952.00,98.47
2951.00,98.44
2950.00,98.41
2949.00,98.38
2948.00,98.35
2947.00,98.32
2946.00,98.30
2945.00,98.28
2944.00,98.24
2943.00,98.20
2942.00,98.15
2941.00,98.11
2940.00,98.09
2939.00,98.07
2938.00,98.04
2937.00,98.00
2936.00,97.94
2935.00,97.88
2934.00,97.82
2933.00,97.78
2932.00,97.76
2931.00,97.76
2930.00,97.75
2929.00,97.73
2928.00,97.70
2927.00,97.66
2926.00,97.63
2925.00,97.62
2924.00,97.61
2923.00,97.59
2922.00,97.56
2921.00,97.53
2920.00,97.51
2919.00,97.50
2918.00,97.49
2917.00,97.46
2916.00,97.42
2915.00,97.38
2914.00,97.36
2913.00,97.34
2912.00,97.32
2911.00,97.30
2910.00,97.26
2909.00,97.22
2908.00,97.18
2907.00,97.15
2906.00,97.12
2905.00,97.09
2904.00,97.07
2903.00,97.06
2902.00,97.05
2901.00,97.05
2900.00,97.04
2899.00,97.02
2898.00,97.00
2897.00,96.98
2896.00,96.97
2895.00,96.97
2894.00,96.96
2893.00,96.95
2892.00,96.94
2891.00,96.93
2890.00,96.94
2889.00,96.95
2888.00,96.97
2887.00,96.98
2886.00,96.99
2885.00,96.99
2884.00,97.01
2883.00,97.03
2882.00,97.06
2881.00,97.07
2880.00,97.07
2879.00,97.06
2878.00,97.06
2877.00,97.07
2876.00,97.09
2875.00,97.11
2874.00,97.15
2873.00,97.18
2872.00,97.21
2871.00,97.24
2870.00,97.26
2869.00,97.29
2868.00,97.32
2867.00,97.36
2866.00,97.39
2865.00,97.43
2864.00,97.46
2863.00,97.49
2862.00,97.51
2861.00,97.53
2860.00,97.55
2859.00,97.58
2858.00,97.61
2857.00,97.65
2856.00,97.69
2855.00,97.72
2854.00,97.75
2853.00,97.79
2852.00,97.84
2851.00,97.90
2850.00,97.95
2849.00,97.99
2848.00,98.02
2847.00,98.04
2846.00,98.06
2845.00,98.09
2844.00,98.11
2843.00,98.14
2842.00,98.18
2841.00,98.22
2840.00,98.26
2839.00,98.28
2838.00,98.30
2837.00,98.31
2836.00,98.32
2835.00,98.35
2834.00,98.37
2833.00,98.39
2832.00,98.40
2831.00,98.41
2830.00,98.44
2829.00,98.48
2828.00,98.51
2827.00,98.54
2826.00,98.54
2825.00,98.54
2824.00,98.55
2823.00,98.58
2822.00,98.61
2821.00,98.62
2820.00,98.63
2819.00,98.63
2818.00,98.64
2817.00,98.65
2816.00,98.65
2815.00,98.66
2814.00,98.67
2813.00,98.67
2812.00,98.68
2811.00,98.69
2810.00,98.71
2809.00,98.72
2808.00,98.73
2807.00,98.74
2806.00,98.75
2805.00,98.76
2804.00,98.77
2803.00,98.77
2802.00,98.78
2801.00,98.78
2800.00,98.78
2799.00,98.78
2798.00,98.79
2797.00,98.80
2796.00,98.82
2795.00,98.85
2794.00,98.87
2793.00,98.89
2792.00,98.90
2791.00,98.91
2790.00,98.92
2789.00,98.94
2788.00,98.95
2787.00,98.96
2786.00,98.97
2785.00,98.97
2784.00,98.98
2783.00,99.00
2782.00,99.00
2781.00,99.00
2780.00,98.99
2779.00,98.99
2778.00,99.00
2777.00,99.03
2776.00,99.05
2775.00,99.06
2774.00,99.06
2773.00,99.05
2772.00,99.05
2771.00,99.04
2770.00,99.05
2769.00,99.05
2768.00,99.06
2767.00,99.07
2766.00,99.08
2765.00,99.09
2764.00,99.09
2763.00,99.09
2762.00,99.10
2761.00,99.11
2760.00,99.12
2759.00,99.12
2758.00,99.12
2757.00,99.12
2756.00,99.13
2755.00,99.13
2754.00,99.13
2753.00,99.14
2752.00,99.15
2751.00,99.16
2750.00,99.15
2749.00,99.14
2748.00,99.13
2747.00,99.12
2746.00,99.12
2745.00,99.12
2744.00,99.12
2743.00,99.14
2742.00,99.15
2741.00,99.15
2740.00,99.15
2739.00,99.14
2738.00,99.13
2737.00,99.13
2736.00,99.14
2735.00,99.16
2734.00,99.16
2733.00,99.16
2732.00,99.16
2731.00,99.17
2730.00,99.18
2729.00,99.18
2728.00,99.19
2727.00,99.19
2726.00,99.19
2725.00,99.20
2724.00,99.22
2723.00,99.22
2722.00,99.22
2721.00,99.21
2720.00,99.20
2719.00,99.20
2718.00,99.20
2717.00,99.20
2716.00,99.20
2715.00,99.19
2714.00,99.19
2713.00,99.19
2712.00,99.20
2711.00,99.22
2710.00,99.24
2709.00,99.25
2708.00,99.26
2707.00,99.25
2706.00,99.24
2705.00,99.25
2704.00,99.26
2703.00,99.28
2702.00,99.29
2701.00,99.30
2700.00,99.30
2699.00,99.30
2698.00,99.30
2697.00,99.30
2696.00,99.31
2695.00,99.31
2694.00,99.31
2693.00,99.31
2692.00,99.31
2691.00,99.31
2690.00,99.31
2689.00,99.32
2688.00,99.33
2687.00,99.34
2686.00,99.34
2685.00,99.34
2684.00,99.33
2683.00,99.33
2682.00,99.33
2681.00,99.33
2680.00,99.34
2679.00,99.34
2678.00,99.34
2677.00,99.34
2676.00,99.35
2675.00,99.36
2674.00,99.37
2673.00,99.38
2672.00,99.39
2671.00,99.39
2670.00,99.39
2669.00,99.39
2668.00,99.39
2667.00,99.39
2666.00,99.39
2665.00,99.38
2664.00,99.37
2663.00,99.36
2662.00,99.37
2661.00,99.39
2660.00,99.41
2659.00,99.42
2658.00,99.42
2657.00,99.41
2656.00,99.41
2655.00,99.40
2654.00,99.41
2653.00,99.40
2652.00,99.39
2651.00,99.38
2650.00,99.37
2649.00,99.36
2648.00,99.37
2647.00,99.37
2646.00,99.37
2645.00,99.38
2644.00,99.37
2643.00,99.37
2642.00,99.36
2641.00,99.36
2640.00,99.35
2639.00,99.35
2638.00,99.35
2637.00,99.35
2636.00,99.36
2635.00,99.38
2634.00,99.39
2633.00,99.40
2632.00,99.41
2631.00,99.41
2630.00,99.40
2629.00,99.39
2628.00,99.38
2627.00,99.38
2626.00,99.39
2625.00,99.39
2624.00,99.39
2623.00,99.39
2622.00,99.40
2621.00,99.41
2620.00,99.42
2619.00,99.42
2618.00,99.41
2617.00,99.39
2616.00,99.37
2615.00,99.36
2614.00,99.35
2613.00,99.35
2612.00,99.35
2611.00,99.38
2610.00,99.41
2609.00,99.44
2608.00,99.45
2607.00,99.45
2606.00,99.45
2605.00,99.44
2604.00,99.43
2603.00,99.42
2602.00,99.41
2601.00,99.40
2600.00,99.39
2599.00,99.39
2598.00,99.39
2597.00,99.40
2596.00,99.40
2595.00,99.38
2594.00,99.36
2593.00,99.34
2592.00,99.34
2591.00,99.35
2590.00,99.37
2589.00,99.39
2588.00,99.39
2587.00,99.38
2586.00,99.35
2585.00,99.33
2584.00,99.32
2583.00,99.32
2582.00,99.33
2581.00,99.33
2580.00,99.34
2579.00,99.34
2578.00,99.34
2577.00,99.34
2576.00,99.34
2575.00,99.35
2574.00,99.35
2573.00,99.36
2572.00,99.36
2571.00,99.35
2570.00,99.34
2569.00,99.32
2568.00,99.33
2567.00,99.35
2566.00,99.38
2565.00,99.40
2564.00,99.42
2563.00,99.42
2562.00,99.42
2561.00,99.41
2560.00,99.41
2559.00,99.40
2558.00,99.39
2557.00,99.38
2556.00,99.38
2555.00,99.39
2554.00,99.41
2553.00,99.42
2552.00,99.41
2551.00,99.40
2550.00,99.39
2549.00,99.39
2548.00,99.39
2547.00,99.38
2546.00,99.38
2545.00,99.38
2544.00,99.38
2543.00,99.37
2542.00,99.37
2541.00,99.35
2540.00,99.35
2539.00,99.35
2538.00,99.37
2537.00,99.39
2536.00,99.41
2535.00,99.41
2534.00,99.40
2533.00,99.40
2532.00,99.39
2531.00,99.38
2530.00,99.38
2529.00,99.37
2528.00,99.38
2527.00,99.40
2526.00,99.42
2525.00,99.43
2524.00,99.44
2523.00,99.44
2522.00,99.43
2521.00,99.39
2520.00,99.34
2519.00,99.32
2518.00,99.31
2517.00,99.32
2516.00,99.35
2515.00,99.37
2514.00,99.40
2513.00,99.41
2512.00,99.41
2511.00,99.40
2510.00,99.40
2509.00,99.41
2508.00,99.42
2507.00,99.43
2506.00,99.43
2505.00,99.42
2504.00,99.41
2503.00,99.40
2502.00,99.40
2501.00,99.41
2500.00,99.42
2499.00,99.42
2498.00,99.43
2497.00,99.44
2496.00,99.45
2495.00,99.44
2494.00,99.43
2493.00,99.41
2492.00,99.40
2491.00,99.40
2490.00,99.42
2489.00,99.43
2488.00,99.45
2487.00,99.47
2486.00,99.47
2485.00,99.47
2484.00,99.47
2483.00,99.47
2482.00,99.47
2481.00,99.45
2480.00,99.44
2479.00,99.44
2478.00,99.44
2477.00,99.46
2476.00,99.47
2475.00,99.48
2474.00,99.48
2473.00,99.48
2472.00,99.48
2471.00,99.47
2470.00,99.45
2469.00,99.44
2468.00,99.42
2467.00,99.41
2466.00,99.39
2465.00,99.39
2464.00,99.40
2463.00,99.43
2462.00,99.44
2461.00,99.44
2460.00,99.43
2459.00,99.41
2458.00,99.41
2457.00,99.42
2456.00,99.44
2455.00,99.47
2454.00,99.49
2453.00,99.51
2452.00,99.52
2451.00,99.52
2450.00,99.51
2449.00,99.51
2448.00,99.51
2447.00,99.51
2446.00,99.52
2445.00,99.52
2444.00,99.53
2443.00,99.52
2442.00,99.52
2441.00,99.52
2440.00,99.52
2439.00,99.53
2438.00,99.54
2437.00,99.54
2436.00,99.53
2435.00,99.52
2434.00,99.50
2433.00,99.50
2432.00,99.51
2431.00,99.53
2430.00,99.54
2429.00,99.54
2428.00,99.55
2427.00,99.56
2426.00,99.56
2425.00,99.56
2424.00,99.55
2423.00,99.55
2422.00,99.55
2421.00,99.56
2420.00,99.57
2419.00,99.59
2418.00,99.60
2417.00,99.60
2416.00,99.57
2415.00,99.54
2414.00,99.52
2413.00,99.52
2412.00,99.54
2411.00,99.56
2410.00,99.57
2409.00,99.57
2408.00,99.56
2407.00,99.56
2406.00,99.57
2405.00,99.59
2404.00,99.62
2403.00,99.64
2402.00,99.65
2401.00,99.66
2400.00,99.66
2399.00,99.67
2398.00,99.67
2397.00,99.67
2396.00,99.66
2395.00,99.66
2394.00,99.67
2393.00,99.68
2392.00,99.67
2391.00,99.66
2390.00,99.65
2389.00,99.65
2388.00,99.66
2387.00,99.66
2386.00,99.67
2385.00,99.68
2384.00,99.71
2383.00,99.74
2382.00,99.78
2381.00,99.82
2380.00,99.83
2379.00,99.84
2378.00,99.85
2377.00,99.85
2376.00,99.84
2375.00,99.83
2374.00,99.82
2373.00,99.83
2372.00,99.84
2371.00,99.85
2370.00,99.84
2369.00,99.84
2368.00,99.87
2367.00,99.93
2366.00,99.98
2365.00,99.97
2364.00,99.93
2363.00,99.90
2362.00,99.90
2361.00,99.91
2360.00,99.90
2359.00,99.90
2358.00,99.92
2357.00,99.94
2356.00,99.95
2355.00,99.94
2354.00,99.92
2353.00,99.90
2352.00,99.89
2351.00,99.89
2350.00,99.89
2349.00,99.91
2348.00,99.92
2347.00,99.93
2346.00,99.92
2345.00,99.90
2344.00,99.90
2343.00,99.94
2342.00,100.01
2341.00,100.07
2340.00,100.10
2339.00,100.08
2338.00,100.02
2337.00,99.96
2336.00,99.90
2335.00,99.87
2334.00,99.85
2333.00,99.86
2332.00,99.86
2331.00,99.84
2330.00,99.79
2329.00,99.75
2328.00,99.71
2327.00,99.69
2326.00,99.68
2325.00,99.68
2324.00,99.69
2323.00,99.72
2322.00,99.76
2321.00,99.79
2320.00,99.80
2319.00,99.80
2318.00,99.79
2317.00,99.76
2316.00,99.73
2315.00,99.70
2314.00,99.70
2313.00,99.71
2312.00,99.71
2311.00,99.70
2310.00,99.67
2309.00,99.65
2308.00,99.64
2307.00,99.64
2306.00,99.65
2305.00,99.64
2304.00,99.61
2303.00,99.57
2302.00,99.53
2301.00,99.51
2300.00,99.51
2299.00,99.52
2298.00,99.53
2297.00,99.53
2296.00,99.51
2295.00,99.49
2294.00,99.47
2293.00,99.46
2292.00,99.46
2291.00,99.46
2290.00,99.46
2289.00,99.45
2288.00,99.42
2287.00,99.36
2286.00,99.30
2285.00,99.28
2284.00,99.30
2283.00,99.34
2282.00,99.37
2281.00,99.37
2280.00,99.37
2279.00,99.36
2278.00,99.36
2277.00,99.33
2276.00,99.30
2275.00,99.28
2274.00,99.27
2273.00,99.27
2272.00,99.28
2271.00,99.28
2270.00,99.27
2269.00,99.27
2268.00,99.25
2267.00,99.24
2266.00,99.24
2265.00,99.24
2264.00,99.24
2263.00,99.23
2262.00,99.19
2261.00,99.14
2260.00,99.10
2259.00,99.09
2258.00,99.12
2257.00,99.17
2256.00,99.21
2255.00,99.23
2254.00,99.22
2253.00,99.19
2252.00,99.14
2251.00,99.08
2250.00,99.03
2249.00,99.01
2248.00,99.00
2247.00,99.01
2246.00,99.03
2245.00,99.06
2244.00,99.08
2243.00,99.09
2242.00,99.09
2241.00,99.09
2240.00,99.08
2239.00,99.08
2238.00,99.07
2237.00,99.05
2236.00,99.01
2235.00,98.98
2234.00,98.96
2233.00,98.96
2232.00,98.99
2231.00,99.03
2230.00,99.05
2229.00,99.06
2228.00,99.06
2227.00,99.05
2226.00,99.03
2225.00,98.99
2224.00,98.97
2223.00,98.98
2222.00,99.00
2221.00,99.02
2220.00,99.01
2219.00,99.00
2218.00,98.97
2217.00,98.93
2216.00,98.90
2215.00,98.89
2214.00,98.91
2213.00,98.92
2212.00,98.92
2211.00,98.89
2210.00,98.86
2209.00,98.82
2208.00,98.79
2207.00,98.78
2206.00,98.83
2205.00,98.92
2204.00,98.99
2203.00,99.00
2202.00,98.95
2201.00,98.87
2200.00,98.80
2199.00,98.76
2198.00,98.75
2197.00,98.77
2196.00,98.79
2195.00,98.80
2194.00,98.79
2193.00,98.78
2192.00,98.76
2191.00,98.74
2190.00,98.73
2189.00,98.72
2188.00,98.74
2187.00,98.74
2186.00,98.73
2185.00,98.69
2184.00,98.66
2183.00,98.66
2182.00,98.68
2181.00,98.70
2180.00,98.67
2179.00,98.61
2178.00,98.55
2177.00,98.52
2176.00,98.53
2175.00,98.57
2174.00,98.60
2173.00,98.61
2172.00,98.60
2171.00,98.59
2170.00,98.58
2169.00,98.57
2168.00,98.56
2167.00,98.52
2166.00,98.46
2165.00,98.39
2164.00,98.33
2163.00,98.30
2162.00,98.32
2161.00,98.41
2160.00,98.53
2159.00,98.66
2158.00,98.74
2157.00,98.77
2156.00,98.79
2155.00,98.80
2154.00,98.81
2153.00,98.81
2152.00,98.80
2151.00,98.80
2150.00,98.81
2149.00,98.82
2148.00,98.84
2147.00,98.87
2146.00,98.90
2145.00,98.90
2144.00,98.89
2143.00,98.88
2142.00,98.88
2141.00,98.89
2140.00,98.91
2139.00,98.93
2138.00,98.96
2137.00,99.00
2136.00,99.07
2135.00,99.13
2134.00,99.16
2133.00,99.16
2132.00,99.16
2131.00,99.16
2130.00,99.14
2129.00,99.10
2128.00,99.06
2127.00,99.04
2126.00,99.05
2125.00,99.07
2124.00,99.08
2123.00,99.07
2122.00,99.07
2121.00,99.07
2120.00,99.10
2119.00,99.14
2118.00,99.16
2117.00,99.15
2116.00,99.11
2115.00,99.07
2114.00,99.04
2113.00,99.01
2112.00,98.99
2111.00,98.98
2110.00,98.98
2109.00,98.99
2108.00,98.98
2107.00,98.97
2106.00,98.95
2105.00,98.93
2104.00,98.93
2103.00,98.93
2102.00,98.93
2101.00,98.93
2100.00,98.95
2099.00,98.97
2098.00,98.99
2097.00,99.00
2096.00,99.01
2095.00,99.02
2094.00,99.03
2093.00,99.05
2092.00,99.06
2091.00,99.06
2090.00,99.03
2089.00,98.99
2088.00,98.97
2087.00,98.97
2086.00,98.99
2085.00,99.02
2084.00,99.03
2083.00,99.02
2082.00,98.98
2081.00,98.93
2080.00,98.92
2079.00,98.92
2078.00,98.93
2077.00,98.90
2076.00,98.86
2075.00,98.85
2074.00,98.87
2073.00,98.92
2072.00,98.96
2071.00,98.98
2070.00,98.98
2069.00,98.96
2068.00,98.95
2067.00,98.94
2066.00,98.94
2065.00,98.94
2064.00,98.93
2063.00,98.92
2062.00,98.91
2061.00,98.90
2060.00,98.91
2059.00,98.94
2058.00,98.97
2057.00,98.98
2056.00,98.95
2055.00,98.90
2054.00,98.83
2053.00,98.77
2052.00,98.73
2051.00,98.72
2050.00,98.73
2049.00,98.76
2048.00,98.78
2047.00,98.78
2046.00,98.75
2045.00,98.72
2044.00,98.67
2043.00,98.64
2042.00,98.62
2041.00,98.62
2040.00,98.61
2039.00,98.59
2038.00,98.56
2037.00,98.54
2036.00,98.53
2035.00,98.52
2034.00,98.48
2033.00,98.43
2032.00,98.43
2031.00,98.48
2030.00,98.58
2029.00,98.67
2028.00,98.74
2027.00,98.78
2026.00,98.76
2025.00,98.69
2024.00,98.60
2023.00,98.55
2022.00,98.54
2021.00,98.54
2020.00,98.56
2019.00,98.60
2018.00,98.67
2017.00,98.76
2016.00,98.83
2015.00,98.88
2014.00,98.88
2013.00,98.84
2012.00,98.76
2011.00,98.68
2010.00,98.63
2009.00,98.63
2008.00,98.67
2007.00,98.72
2006.00,98.74
2005.00,98.72
2004.00,98.68
2003.00,98.68
2002.00,98.72
2001.00,98.78
2000.00,98.85
1999.00,98.92
1998.00,98.97
1997.00,99.00
1996.00,98.99
1995.00,98.95
1994.00,98.87
1993.00,98.79
1992.00,98.72
1991.00,98.69
1990.00,98.70
1989.00,98.72
1988.00,98.74
1987.00,98.73
1986.00,98.68
1985.00,98.63
1984.00,98.59
1983.00,98.56
1982.00,98.51
1981.00,98.44
1980.00,98.38
1979.00,98.37
1978.00,98.42
1977.00,98.51
1976.00,98.60
1975.00,98.69
1974.00,98.77
1973.00,98.82
1972.00,98.83
1971.00,98.82
1970.00,98.79
1969.00,98.76
1968.00,98.79
1967.00,98.87
1966.00,98.99
1965.00,99.08
1964.00,99.12
1963.00,99.08
1962.00,99.01
1961.00,98.96
1960.00,98.98
1959.00,99.06
1958.00,99.13
1957.00,99.14
1956.00,99.09
1955.00,99.03
1954.00,98.99
1953.00,98.97
1952.00,98.97
1951.00,98.98
1950.00,99.00
1949.00,99.01
1948.00,99.02
1947.00,99.05
1946.00,99.09
1945.00,99.13
1944.00,99.15
1943.00,99.16
1942.00,99.15
1941.00,99.13
1940.00,99.13
1939.00,99.14
1938.00,99.14
1937.00,99.13
1936.00,99.11
1935.00,99.10
1934.00,99.11
1933.00,99.13
1932.00,99.13
1931.00,99.13
1930.00,99.14
1929.00,99.16
1928.00,99.19
1927.00,99.22
1926.00,99.25
1925.00,99.26
1924.00,99.25
1923.00,99.24
1922.00,99.25
1921.00,99.27
1920.00,99.28
1919.00,99.26
1918.00,99.23
1917.00,99.21
1916.00,99.21
1915.00,99.23
1914.00,99.26
1913.00,99.29
1912.00,99.29
1911.00,99.28
1910.00,99.26
1909.00,99.25
1908.00,99.27
1907.00,99.31
1906.00,99.35
1905.00,99.36
1904.00,99.36
1903.00,99.34
1902.00,99.32
1901.00,99.31
1900.00,99.31
1899.00,99.32
1898.00,99.33
1897.00,99.35
1896.00,99.35
1895.00,99.34
1894.00,99.31
1893.00,99.28
1892.00,99.26
1891.00,99.26
1890.00,99.28
1889.00,99.29
1888.00,99.31
1887.00,99.32
1886.00,99.34
1885.00,99.36
1884.00,99.39
1883.00,99.41
1882.00,99.42
1881.00,99.40
1880.00,99.36
1879.00,99.33
1878.00,99.33
1877.00,99.36
1876.00,99.40
1875.00,99.44
1874.00,99.45
1873.00,99.44
1872.00,99.41
1871.00,99.39
1870.00,99.38
1869.00,99.37
1868.00,99.36
1867.00,99.35
1866.00,99.34
1865.00,99.34
1864.00,99.35
1863.00,99.37
1862.00,99.39
1861.00,99.41
1860.00,99.42
1859.00,99.42
1858.00,99.41
1857.00,99.41
1856.00,99.40
1855.00,99.39
1854.00,99.40
1853.00,99.41
1852.00,99.42
1851.00,99.43
1850.00,99.44
1849.00,99.43
1848.00,99.42
1847.00,99.41
1846.00,99.41
1845.00,99.43
1844.00,99.44
1843.00,99.44
1842.00,99.45
1841.00,99.46
1840.00,99.47
1839.00,99.48
1838.00,99.48
1837.00,99.47
1836.00,99.45
1835.00,99.43
1834.00,99.41
1833.00,99.39
1832.00,99.38
1831.00,99.39
1830.00,99.40
1829.00,99.40
1828.00,99.39
1827.00,99.38
1826.00,99.38
1825.00,99.39
1824.00,99.40
1823.00,99.41
1822.00,99.42
1821.00,99.41
1820.00,99.41
1819.00,99.40
1818.00,99.42
1817.00,99.44
1816.00,99.46
1815.00,99.46
1814.00,99.45
1813.00,99.43
1812.00,99.42
1811.00,99.42
1810.00,99.42
1809.00,99.43
1808.00,99.43
1807.00,99.43
1806.00,99.43
1805.00,99.44
1804.00,99.45
1803.00,99.46
1802.00,99.46
1801.00,99.45
1800.00,99.43
1799.00,99.43
1798.00,99.43
1797.00,99.44
1796.00,99.45
1795.00,99.46
1794.00,99.46
1793.00,99.45
1792.00,99.43
1791.00,99.42
1790.00,99.43
1789.00,99.44
1788.00,99.45
1787.00,99.45
1786.00,99.44
1785.00,99.43
1784.00,99.42
1783.00,99.41
1782.00,99.41
1781.00,99.40
1780.00,99.40
1779.00,99.40
1778.00,99.39
1777.00,99.39
1776.00,99.37
1775.00,99.36
1774.00,99.36
1773.00,99.36
1772.00,99.37
1771.00,99.38
1770.00,99.39
1769.00,99.39
1768.00,99.38
1767.00,99.37
1766.00,99.38
1765.00,99.38
1764.00,99.38
1763.00,99.37
1762.00,99.34
1761.00,99.31
1760.00,99.30
1759.00,99.30
1758.00,99.32
1757.00,99.32
1756.00,99.32
1755.00,99.31
1754.00,99.31
1753.00,99.31
1752.00,99.30
1751.00,99.30
1750.00,99.30
1749.00,99.30
1748.00,99.30
1747.00,99.29
1746.00,99.27
1745.00,99.25
1744.00,99.24
1743.00,99.23
1742.00,99.23
1741.00,99.22
1740.00,99.21
1739.00,99.21
1738.00,99.23
1737.00,99.24
1736.00,99.23
1735.00,99.23
1734.00,99.22
1733.00,99.23
1732.00,99.23
1731.00,99.23
1730.00,99.23
1729.00,99.22
1728.00,99.21
1727.00,99.21
1726.00,99.20
1725.00,99.20
1724.00,99.19
1723.00,99.18
1722.00,99.18
1721.00,99.17
1720.00,99.18
1719.00,99.18
1718.00,99.20
1717.00,99.19
1716.00,99.16
1715.00,99.13
1714.00,99.12
1713.00,99.12
1712.00,99.13
1711.00,99.13
1710.00,99.12
1709.00,99.11
1708.00,99.08
1707.00,99.06
1706.00,99.05
1705.00,99.04
1704.00,99.05
1703.00,99.05
1702.00,99.04
1701.00,99.00
1700.00,98.96
1699.00,98.94
1698.00,98.93
1697.00,98.92
1696.00,98.91
1695.00,98.90
1694.00,98.90
1693.00,98.90
1692.00,98.88
1691.00,98.86
1690.00,98.84
1689.00,98.81
1688.00,98.78
1687.00,98.75
1686.00,98.72
1685.00,98.69
1684.00,98.67
1683.00,98.66
1682.00,98.65
1681.00,98.63
1680.00,98.60
1679.00,98.57
1678.00,98.53
1677.00,98.49
1676.00,98.44
1675.00,98.41
1674.00,98.40
1673.00,98.39
1672.00,98.37
1671.00,98.34
1670.00,98.31
1669.00,98.28
1668.00,98.26
1667.00,98.25
1666.00,98.24
1665.00,98.22
1664.00,98.18
1663.00,98.12
1662.00,98.06
1661.00,98.01
1660.00,97.98
1659.00,97.95
1658.00,97.92
1657.00,97.90
1656.00,97.87
1655.00,97.83
1654.00,97.81
1653.00,97.78
1652.00,97.76
1651.00,97.75
1650.00,97.73
1649.00,97.71
1648.00,97.70
1647.00,97.70
1646.00,97.71
1645.00,97.70
1644.00,97.69
1643.00,97.67
1642.00,97.66
1641.00,97.66
1640.00,97.66
1639.00,97.66
1638.00,97.66
1637.00,97.65
1636.00,97.67
1635.00,97.70
1634.00,97.73
1633.00,97.74
1632.00,97.74
1631.00,97.74
1630.00,97.75
1629.00,97.76
1628.00,97.78
1627.00,97.80
1626.00,97.82
1625.00,97.84
1624.00,97.86
1623.00,97.88
1622.00,97.92
1621.00,97.95
1620.00,97.98
1619.00,97.99
1618.00,98.01
1617.00,98.02
1616.00,98.05
1615.00,98.08
1614.00,98.10
1613.00,98.11
1612.00,98.14
1611.00,98.17
1610.00,98.21
1609.00,98.23
1608.00,98.24
1607.00,98.26
1606.00,98.28
1605.00,98.32
1604.00,98.35
1603.00,98.37
1602.00,98.39
1601.00,98.39
1600.00,98.40
1599.00,98.42
1598.00,98.44
1597.00,98.47
1596.00,98.48
1595.00,98.49
1594.00,98.50
1593.00,98.52
1592.00,98.53
1591.00,98.55
1590.00,98.58
1589.00,98.60
1588.00,98.61
1587.00,98.62
1586.00,98.63
1585.00,98.64
1584.00,98.66
1583.00,98.68
1582.00,98.72
1581.00,98.75
1580.00,98.78
1579.00,98.80
1578.00,98.81
1577.00,98.81
1576.00,98.80
1575.00,98.80
1574.00,98.82
1573.00,98.84
1572.00,98.84
1571.00,98.83
1570.00,98.82
1569.00,98.82
1568.00,98.83
1567.00,98.84
1566.00,98.85
1565.00,98.86
1564.00,98.86
1563.00,98.85
1562.00,98.85
1561.00,98.86
1560.00,98.87
1559.00,98.90
1558.00,98.90
1557.00,98.89
1556.00,98.87
1555.00,98.87
1554.00,98.87
1553.00,98.88
1552.00,98.89
1551.00,98.90
1550.00,98.91
1549.00,98.92
1548.00,98.92
1547.00,98.91
1546.00,98.91
1545.00,98.92
1544.00,98.93
1543.00,98.94
1542.00,98.93
1541.00,98.93
1540.00,98.92
1539.00,98.92
1538.00,98.91
1537.00,98.90
1536.00,98.88
1535.00,98.85
1534.00,98.83
1533.00,98.83
1532.00,98.85
1531.00,98.88
1530.00,98.91
1529.00,98.93
1528.00,98.94
1527.00,98.95
1526.00,98.94
1525.00,98.94
1524.00,98.93
1523.00,98.91
1522.00,98.90
1521.00,98.89
1520.00,98.89
1519.00,98.90
1518.00,98.92
1517.00,98.92
1516.00,98.90
1515.00,98.88
1514.00,98.86
1513.00,98.86
1512.00,98.86
1511.00,98.85
1510.00,98.85
1509.00,98.84
1508.00,98.83
1507.00,98.82
1506.00,98.79
1505.00,98.78
1504.00,98.78
1503.00,98.79
1502.00,98.78
1501.00,98.77
1500.00,98.75
1499.00,98.73
1498.00,98.70
1497.00,98.67
1496.00,98.64
1495.00,98.61
1494.00,98.59
1493.00,98.55
1492.00,98.51
1491.00,98.47
1490.00,98.44
1489.00,98.41
1488.00,98.37
1487.00,98.33
1486.00,98.28
1485.00,98.23
1484.00,98.17
1483.00,98.10
1482.00,98.03
1481.00,97.96
1480.00,97.90
1479.00,97.85
1478.00,97.80
1477.00,97.74
1476.00,97.68
1475.00,97.61
1474.00,97.53
1473.00,97.45
1472.00,97.37
1471.00,97.31
1470.00,97.26
1469.00,97.21
1468.00,97.16
1467.00,97.10
1466.00,97.05
1465.00,96.99
1464.00,96.94
1463.00,96.90
1462.00,96.86
1461.00,96.83
1460.00,96.79
1459.00,96.74
1458.00,96.69
1457.00,96.64
1456.00,96.61
1455.00,96.59
1454.00,96.56
1453.00,96.53
1452.00,96.49
1451.00,96.45
1450.00,96.40
1449.00,96.36
1448.00,96.32
1447.00,96.28
1446.00,96.25
1445.00,96.22
1444.00,96.18
1443.00,96.14
1442.00,96.10
1441.00,96.07
1440.00,96.03
1439.00,96.00
1438.00,95.97
1437.00,95.94
1436.00,95.93
1435.00,95.92
1434.00,95.91
1433.00,95.89
1432.00,95.88
1431.00,95.88
1430.00,95.89
1429.00,95.90
1428.00,95.89
1427.00,95.86
1426.00,95.82
1425.00,95.78
1424.00,95.76
1423.00,95.75
1422.00,95.75
1421.00,95.74
1420.00,95.73
1419.00,95.72
1418.00,95.73
1417.00,95.74
1416.00,95.75
1415.00,95.76
1414.00,95.77
1413.00,95.76
1412.00,95.76
1411.00,95.76
1410.00,95.78
1409.00,95.79
1408.00,95.81
1407.00,95.82
1406.00,95.83
1405.00,95.84
1404.00,95.85
1403.00,95.86
1402.00,95.85
1401.00,95.83
1400.00,95.81
1399.00,95.80
1398.00,95.79
1397.00,95.78
1396.00,95.77
1395.00,95.76
1394.00,95.75
1393.00,95.73
1392.00,95.70
1391.00,95.65
1390.00,95.60
1389.00,95.55
1388.00,95.51
1387.00,95.46
1386.00,95.38
1385.00,95.28
1384.00,95.16
1383.00,95.04
1382.00,94.92
1381.00,94.81
1380.00,94.70
1379.00,94.60
1378.00,94.49
1377.00,94.39
1376.00,94.28
1375.00,94.19
1374.00,94.12
1373.00,94.07
1372.00,94.04
1371.00,94.01
1370.00,93.98
1369.00,93.95
1368.00,93.93
1367.00,93.91
1366.00,93.90
1365.00,93.90
1364.00,93.92
1363.00,93.96
1362.00,94.00
1361.00,94.06
1360.00,94.11
1359.00,94.17
1358.00,94.23
1357.00,94.29
1356.00,94.36
1355.00,94.41
1354.00,94.47
1353.00,94.51
1352.00,94.54
1351.00,94.58
1350.00,94.60
1349.00,94.62
1348.00,94.61
1347.00,94.59
1346.00,94.57
1345.00,94.56
1344.00,94.56
1343.00,94.56
1342.00,94.55
1341.00,94.53
1340.00,94.49
1339.00,94.45
1338.00,94.41
1337.00,94.39
1336.00,94.38
1335.00,94.38
1334.00,94.38
1333.00,94.38
1332.00,94.38
1331.00,94.39
1330.00,94.39
1329.00,94.40
1328.00,94.40
1327.00,94.40
1326.00,94.40
1325.00,94.39
1324.00,94.38
1323.00,94.37
1322.00,94.35
1321.00,94.31
1320.00,94.25
1319.00,94.17
1318.00,94.09
1317.00,94.01
1316.00,93.95
1315.00,93.92
1314.00,93.93
1313.00,93.95
1312.00,94.00
1311.00,94.05
1310.00,94.11
1309.00,94.18
1308.00,94.26
1307.00,94.33
1306.00,94.40
1305.00,94.46
1304.00,94.52
1303.00,94.58
1302.00,94.65
1301.00,94.73
1300.00,94.80
1299.00,94.87
1298.00,94.94
1297.00,95.02
1296.00,95.10
1295.00,95.18
1294.00,95.26
1293.00,95.34
1292.00,95.43
1291.00,95.51
1290.00,95.58
1289.00,95.65
1288.00,95.70
1287.00,95.73
1286.00,95.75
1285.00,95.75
1284.00,95.75
1283.00,95.73
1282.00,95.71
1281.00,95.67
1280.00,95.62
1279.00,95.59
1278.00,95.58
1277.00,95.58
1276.00,95.59
1275.00,95.59
1274.00,95.58
1273.00,95.56
1272.00,95.52
1271.00,95.48
1270.00,95.45
1269.00,95.41
1268.00,95.38
1267.00,95.35
1266.00,95.33
1265.00,95.32
1264.00,95.33
1263.00,95.33
1262.00,95.35
1261.00,95.36
1260.00,95.38
1259.00,95.41
1258.00,95.45
1257.00,95.49
1256.00,95.54
1255.00,95.58
1254.00,95.62
1253.00,95.65
1252.00,95.70
1251.00,95.74
1250.00,95.79
1249.00,95.83
1248.00,95.86
1247.00,95.88
1246.00,95.89
1245.00,95.88
1244.00,95.88
1243.00,95.87
1242.00,95.87
1241.00,95.87
1240.00,95.87
1239.00,95.87
1238.00,95.86
1237.00,95.85
1236.00,95.83
1235.00,95.83
1234.00,95.83
1233.00,95.85
1232.00,95.89
1231.00,95.92
1230.00,95.95
1229.00,95.96
1228.00,95.97
1227.00,96.01
1226.00,96.05
1225.00,96.11
1224.00,96.19
1223.00,96.28
1222.00,96.38
1221.00,96.48
1220.00,96.57
1219.00,96.65
1218.00,96.71
1217.00,96.76
1216.00,96.78
1215.00,96.80
1214.00,96.81
1213.00,96.81
1212.00,96.81
1211.00,96.78
1210.00,96.74
1209.00,96.67
1208.00,96.61
1207.00,96.53
1206.00,96.44
1205.00,96.32
1204.00,96.21
1203.00,96.13
1202.00,96.08
1201.00,96.05
1200.00,96.04
1199.00,96.03
1198.00,96.04
1197.00,96.08
1196.00,96.16
1195.00,96.27
1194.00,96.38
1193.00,96.49
1192.00,96.60
1191.00,96.71
1190.00,96.83
1189.00,96.94
1188.00,97.03
1187.00,97.09
1186.00,97.11
1185.00,97.09
1184.00,97.06
1183.00,97.01
1182.00,96.93
1181.00,96.84
1180.00,96.74
1179.00,96.64
1178.00,96.53
1177.00,96.41
1176.00,96.27
1175.00,96.11
1174.00,95.92
1173.00,95.69
1172.00,95.46
1171.00,95.22
1170.00,94.96
1169.00,94.67
1168.00,94.36
1167.00,94.04
1166.00,93.72
1165.00,93.40
1164.00,93.08
1163.00,92.77
1162.00,92.46
1161.00,92.18
1160.00,91.95
1159.00,91.77
1158.00,91.65
1157.00,91.58
1156.00,91.55
1155.00,91.57
1154.00,91.63
1153.00,91.72
1152.00,91.84
1151.00,91.98
1150.00,92.13
1149.00,92.28
1148.00,92.44
1147.00,92.59
1146.00,92.72
1145.00,92.84
1144.00,92.95
1143.00,93.05
1142.00,93.11
1141.00,93.13
1140.00,93.12
1139.00,93.09
1138.00,93.02
1137.00,92.90
1136.00,92.73
1135.00,92.54
1134.00,92.36
1133.00,92.20
1132.00,92.06
1131.00,91.90
1130.00,91.70
1129.00,91.48
1128.00,91.24
1127.00,91.00
1126.00,90.78
1125.00,90.57
1124.00,90.35
1123.00,90.13
1122.00,89.89
1121.00,89.63
1120.00,89.37
1119.00,89.14
1118.00,88.95
1117.00,88.76
1116.00,88.56
1115.00,88.38
1114.00,88.22
1113.00,88.09
1112.00,87.99
1111.00,87.90
1110.00,87.83
1109.00,87.74
1108.00,87.64
1107.00,87.55
1106.00,87.46
1105.00,87.36
1104.00,87.22
1103.00,87.04
1102.00,86.84
1101.00,86.63
1100.00,86.41
1099.00,86.20
1098.00,86.00
1097.00,85.81
1096.00,85.65
1095.00,85.52
1094.00,85.41
1093.00,85.29
1092.00,85.15
1091.00,85.01
1090.00,84.89
1089.00,84.77
1088.00,84.65
1087.00,84.54
1086.00,84.41
1085.00,84.26
1084.00,84.07
1083.00,83.88
1082.00,83.71
1081.00,83.55
1080.00,83.35
1079.00,83.12
1078.00,82.87
1077.00,82.62
1076.00,82.38
1075.00,82.14
1074.00,81.92
1073.00,81.70
1072.00,81.48
1071.00,81.25
1070.00,81.01
1069.00,80.78
1068.00,80.56
1067.00,80.37
1066.00,80.20
1065.00,80.01
1064.00,79.79
1063.00,79.56
1062.00,79.32
1061.00,79.10
1060.00,78.91
1059.00,78.76
1058.00,78.63
1057.00,78.51
1056.00,78.39
1055.00,78.29
1054.00,78.21
1053.00,78.15
1052.00,78.08
1051.00,78.02
1050.00,77.96
1049.00,77.90
1048.00,77.84
1047.00,77.77
1046.00,77.71
1045.00,77.64
1044.00,77.58
1043.00,77.53
1042.00,77.46
1041.00,77.37
1040.00,77.28
1039.00,77.23
1038.00,77.19
1037.00,77.12
1036.00,77.01
1035.00,76.87
1034.00,76.71
1033.00,76.53
1032.00,76.33
1031.00,76.12
1030.00,75.90
1029.00,75.69
1028.00,75.48
1027.00,75.30
1026.00,75.12
1025.00,74.94
1024.00,74.76
1023.00,74.61
1022.00,74.51
1021.00,74.42
1020.00,74.34
1019.00,74.27
1018.00,74.22
1017.00,74.21
1016.00,74.24
1015.00,74.32
1014.00,74.45
1013.00,74.61
1012.00,74.80
1011.00,75.02
1010.00,75.23
1009.00,75.44
1008.00,75.63
1007.00,75.81
1006.00,75.96
1005.00,76.07
1004.00,76.14
1003.00,76.16
1002.00,76.14
1001.00,76.07
1000.00,75.97
999.00,75.86
998.00,75.77
997.00,75.70
996.00,75.65
995.00,75.64
994.00,75.66
993.00,75.71
992.00,75.81
991.00,75.96
990.00,76.16
989.00,76.41
988.00,76.69
987.00,77.03
986.00,77.42
985.00,77.83
984.00,78.27
983.00,78.71
982.00,79.16
981.00,79.61
980.00,80.05
979.00,80.47
978.00,80.87
977.00,81.25
976.00,81.60
975.00,81.92
974.00,82.21
973.00,82.49
972.00,82.75
971.00,82.99
970.00,83.20
969.00,83.39
968.00,83.58
967.00,83.75
966.00,83.92
965.00,84.08
964.00,84.24
963.00,84.41
962.00,84.59
961.00,84.80
960.00,85.01
959.00,85.22
958.00,85.42
957.00,85.61
956.00,85.81
955.00,86.03
954.00,86.26
953.00,86.48
952.00,86.69
951.00,86.90
950.00,87.11
949.00,87.30
948.00,87.46
947.00,87.60
946.00,87.74
945.00,87.88
944.00,88.03
943.00,88.20
942.00,88.36
941.00,88.50
940.00,88.60
939.00,88.68
938.00,88.77
937.00,88.88
936.00,88.98
935.00,89.07
934.00,89.15
933.00,89.22
932.00,89.28
931.00,89.35
930.00,89.42
929.00,89.49
928.00,89.56
927.00,89.64
926.00,89.74
925.00,89.85
924.00,89.94
923.00,90.01
922.00,90.07
921.00,90.15
920.00,90.23
919.00,90.30
918.00,90.34
917.00,90.34
916.00,90.33
915.00,90.32
914.00,90.30
913.00,90.27
912.00,90.24
911.00,90.19
910.00,90.13
909.00,90.04
908.00,89.92
907.00,89.78
906.00,89.62
905.00,89.45
904.00,89.29
903.00,89.12
902.00,88.95
901.00,88.76
900.00,88.57
899.00,88.41
898.00,88.27
897.00,88.15
896.00,88.05
895.00,87.98
894.00,87.97
893.00,88.01
892.00,88.10
891.00,88.24
890.00,88.40
889.00,88.59
888.00,88.79
887.00,89.01
886.00,89.25
885.00,89.48
884.00,89.70
883.00,89.90
882.00,90.06
881.00,90.22
880.00,90.37
879.00,90.54
878.00,90.72
877.00,90.88
876.00,91.01
875.00,91.11
874.00,91.20
873.00,91.28
872.00,91.38
871.00,91.48
870.00,91.59
869.00,91.67
868.00,91.73
867.00,91.77
866.00,91.81
865.00,91.82
864.00,91.82
863.00,91.82
862.00,91.84
861.00,91.89
860.00,91.97
859.00,92.03
858.00,92.07
857.00,92.09
856.00,92.10
855.00,92.10
854.00,92.11
853.00,92.13
852.00,92.18
851.00,92.23
850.00,92.26
849.00,92.27
848.00,92.27
847.00,92.27
846.00,92.26
845.00,92.25
844.00,92.23
843.00,92.19
842.00,92.16
841.00,92.14
840.00,92.14
839.00,92.15
838.00,92.16
837.00,92.13
836.00,92.09
835.00,92.05
834.00,92.04
833.00,92.05
832.00,92.07
831.00,92.08
830.00,92.06
829.00,92.04
828.00,92.01
827.00,92.00
826.00,91.99
825.00,91.96
824.00,91.91
823.00,91.88
822.00,91.89
821.00,91.91
820.00,91.90
819.00,91.87
818.00,91.84
817.00,91.83
816.00,91.81
815.00,91.78
814.00,91.76
813.00,91.76
812.00,91.77
811.00,91.76
810.00,91.72
809.00,91.68
808.00,91.62
807.00,91.57
806.00,91.51
805.00,91.46
804.00,91.42
803.00,91.42
802.00,91.42
801.00,91.43
800.00,91.42
799.00,91.40
798.00,91.37
797.00,91.33
796.00,91.28
795.00,91.23
794.00,91.22
793.00,91.23
792.00,91.24
791.00,91.25
790.00,91.24
789.00,91.23
788.00,91.19
787.00,91.13
786.00,91.05
785.00,90.99
784.00,90.95
783.00,90.93
782.00,90.91
781.00,90.90
780.00,90.87
779.00,90.81
778.00,90.73
777.00,90.65
776.00,90.60
775.00,90.59
774.00,90.59
773.00,90.58
772.00,90.55
771.00,90.49
770.00,90.42
769.00,90.35
768.00,90.31
767.00,90.28
766.00,90.23
765.00,90.18
764.00,90.14
763.00,90.13
762.00,90.12
761.00,90.09
760.00,90.04
759.00,89.99
758.00,89.94
757.00,89.88
756.00,89.82
755.00,89.79
754.00,89.77
753.00,89.73
752.00,89.66
751.00,89.58
750.00,89.51
749.00,89.47
748.00,89.45
747.00,89.43
746.00,89.42
745.00,89.37
744.00,89.31
743.00,89.26
742.00,89.23
741.00,89.20
740.00,89.17
739.00,89.12
738.00,89.06
737.00,88.99
736.00,88.90
735.00,88.82
734.00,88.75
733.00,88.70
732.00,88.66
731.00,88.64
730.00,88.62
729.00,88.57
728.00,88.48
727.00,88.38
726.00,88.29
725.00,88.24
724.00,88.21
723.00,88.19
722.00,88.17
721.00,88.13
720.00,88.06
719.00,87.98
718.00,87.89
717.00,87.81
716.00,87.74
715.00,87.69
714.00,87.63
713.00,87.59
712.00,87.56
711.00,87.56
710.00,87.55
709.00,87.53
708.00,87.50
707.00,87.46
706.00,87.43
705.00,87.41
704.00,87.40
703.00,87.39
702.00,87.39
701.00,87.37
700.00,87.31
699.00,87.21
698.00,87.12
697.00,87.04
696.00,86.99
695.00,86.96
694.00,86.94
693.00,86.93
692.00,86.92
691.00,86.95
690.00,87.00
689.00,87.04
688.00,87.05
687.00,87.04
686.00,87.01
685.00,86.91
684.00,86.74
683.00,86.54
682.00,86.36
681.00,86.20
680.00,86.02
679.00,85.78
678.00,85.48
677.00,85.15
676.00,84.81
675.00,84.46
674.00,84.11
673.00,83.75
672.00,83.45
671.00,83.23
670.00,83.06
669.00,82.90
668.00,82.72
667.00,82.49
666.00,82.29
665.00,82.18
664.00,82.14
663.00,82.17
662.00,82.25
661.00,82.32
660.00,82.33
659.00,82.32
658.00,82.33
657.00,82.35
656.00,82.36
655.00,82.38
654.00,82.43
653.00,82.48
652.00,82.53
651.00,82.57
650.00,82.62
649.00,82.65
648.00,82.64
647.00,82.59
646.00,82.53
645.00,82.48
644.00,82.45
643.00,82.44
642.00,82.40
641.00,82.31
640.00,82.18
639.00,82.08
638.00,82.02
637.00,81.91
636.00,81.70
635.00,81.45
634.00,81.28
633.00,81.24
632.00,81.29
631.00,81.39
630.00,81.49
629.00,81.55
628.00,81.56
627.00,81.54
626.00,81.52
625.00,81.43
624.00,81.20
623.00,80.89
622.00,80.64
621.00,80.52
620.00,80.48
619.00,80.42
618.00,80.32
617.00,80.25
616.00,80.22
615.00,80.19
614.00,80.11
613.00,79.99
612.00,79.94
611.00,79.96
610.00,79.93
609.00,79.75
608.00,79.48
607.00,79.28
606.00,79.17
605.00,79.07
604.00,78.91
603.00,78.72
602.00,78.59
601.00,78.55
600.00,78.64
599.00,78.87
598.00,79.15
597.00,79.33
596.00,79.35
595.00,79.22
594.00,79.00
593.00,78.78
592.00,78.66
591.00,78.74
590.00,78.91
589.00,78.97
588.00,78.83
587.00,78.64
586.00,78.48
585.00,78.28
584.00,78.01
583.00,77.84
582.00,77.86
581.00,77.90
580.00,77.84
579.00,77.82
578.00,78.00
577.00,78.19
576.00,78.06
575.00,77.67
574.00,77.39
573.00,77.30
572.00,77.19
571.00,76.97
570.00,76.82
569.00,76.87
568.00,77.08
567.00,77.30
566.00,77.46
565.00,77.62
564.00,77.83
563.00,78.08
562.00,78.27
561.00,78.25
560.00,77.99
559.00,77.61
558.00,77.22
557.00,76.83
556.00,76.41
555.00,76.04
554.00,75.80
553.00,75.73
552.00,75.88
551.00,76.15
550.00,76.33
