Created as New Dataset,17.3 Tussah wild blended with camel hair
cm-1,%T
4000.00,99.50
3999.00,99.52
3998.00,99.54
3997.00,99.56
3996.00,99.58
3995.00,99.60
3994.00,99.60
3993.00,99.60
3992.00,99.60
3991.00,99.61
3990.00,99.61
3989.00,99.62
3988.00,99.61
3987.00,99.60
3986.00,99.59
3985.00,99.59
3984.00,99.59
3983.00,99.59
3982.00,99.58
3981.00,99.57
3980.00,99.56
3979.00,99.56
3978.00,99.57
3977.00,99.58
3976.00,99.58
3975.00,99.57
3974.00,99.57
3973.00,99.57
3972.00,99.57
3971.00,99.57
3970.00,99.57
3969.00,99.58
3968.00,99.59
3967.00,99.60
3966.00,99.62
3965.00,99.64
3964.00,99.65
3963.00,99.64
3962.00,99.62
3961.00,99.60
3960.00,99.59
3959.00,99.57
3958.00,99.56
3957.00,99.55
3956.00,99.54
3955.00,99.53
3954.00,99.54
3953.00,99.54
3952.00,99.56
3951.00,99.58
3950.00,99.60
3949.00,99.63
3948.00,99.64
3947.00,99.64
3946.00,99.63
3945.00,99.60
3944.00,99.57
3943.00,99.54
3942.00,99.53
3941.00,99.54
3940.00,99.56
3939.00,99.57
3938.00,99.57
3937.00,99.56
3936.00,99.57
3935.00,99.59
3934.00,99.63
3933.00,99.66
3932.00,99.66
3931.00,99.63
3930.00,99.60
3929.00,99.58
3928.00,99.58
3927.00,99.58
3926.00,99.59
3925.00,99.58
3924.00,99.57
3923.00,99.55
3922.00,99.55
3921.00,99.55
3920.00,99.56
3919.00,99.57
3918.00,99.57
3917.00,99.56
3916.00,99.55
3915.00,99.55
3914.00,99.56
3913.00,99.57
3912.00,99.57
3911.00,99.57
3910.00,99.57
3909.00,99.56
3908.00,99.57
3907.00,99.58
3906.00,99.58
3905.00,99.59
3904.00,99.59
3903.00,99.61
3902.00,99.64
3901.00,99.65
3900.00,99.65
3899.00,99.63
3898.00,99.60
3897.00,99.59
3896.00,99.58
3895.00,99.59
3894.00,99.59
3893.00,99.60
3892.00,99.59
3891.00,99.59
3890.00,99.60
3889.00,99.62
3888.00,99.63
3887.00,99.62
3886.00,99.60
3885.00,99.59
3884.00,99.61
3883.00,99.63
3882.00,99.64
3881.00,99.64
3880.00,99.61
3879.00,99.60
3878.00,99.60
3877.00,99.61
3876.00,99.61
3875.00,99.61
3874.00,99.60
3873.00,99.62
3872.00,99.65
3871.00,99.66
3870.00,99.64
3869.00,99.60
3868.00,99.57
3867.00,99.55
3866.00,99.54
3865.00,99.53
3864.00,99.53
3863.00,99.54
3862.00,99.55
3861.00,99.56
3860.00,99.57
3859.00,99.57
3858.00,99.58
3857.00,99.59
3856.00,99.62
3855.00,99.64
3854.00,99.64
3853.00,99.63
3852.00,99.63
3851.00,99.64
3850.00,99.62
3849.00,99.59
3848.00,99.57
3847.00,99.56
3846.00,99.57
3845.00,99.58
3844.00,99.59
3843.00,99.61
3842.00,99.63
3841.00,99.66
3840.00,99.67
3839.00,99.67
3838.00,99.64
3837.00,99.61
3836.00,99.59
3835.00,99.58
3834.00,99.58
3833.00,99.58
3832.00,99.57
3831.00,99.57
3830.00,99.56
3829.00,99.56
3828.00,99.56
3827.00,99.56
3826.00,99.56
3825.00,99.57
3824.00,99.59
3823.00,99.60
3822.00,99.59
3821.00,99.57
3820.00,99.56
3819.00,99.56
3818.00,99.55
3817.00,99.52
3816.00,99.49
3815.00,99.48
3814.00,99.49
3813.00,99.51
3812.00,99.51
3811.00,99.50
3810.00,99.50
3809.00,99.51
3808.00,99.52
3807.00,99.53
3806.00,99.54
3805.00,99.56
3804.00,99.60
3803.00,99.60
3802.00,99.57
3801.00,99.53
3800.00,99.52
3799.00,99.53
3798.00,99.54
3797.00,99.53
3796.00,99.52
3795.00,99.51
3794.00,99.52
3793.00,99.53
3792.00,99.54
3791.00,99.53
3790.00,99.52
3789.00,99.50
3788.00,99.50
3787.00,99.50
3786.00,99.50
3785.00,99.50
3784.00,99.49
3783.00,99.49
3782.00,99.48
3781.00,99.47
3780.00,99.45
3779.00,99.43
3778.00,99.44
3777.00,99.45
3776.00,99.47
3775.00,99.48
3774.00,99.48
3773.00,99.48
3772.00,99.47
3771.00,99.45
3770.00,99.42
3769.00,99.41
3768.00,99.42
3767.00,99.42
3766.00,99.41
3765.00,99.39
3764.00,99.39
3763.00,99.41
3762.00,99.43
3761.00,99.45
3760.00,99.46
3759.00,99.45
3758.00,99.44
3757.00,99.43
3756.00,99.43
3755.00,99.46
3754.00,99.50
3753.00,99.56
3752.00,99.60
3751.00,99.57
3750.00,99.51
3749.00,99.47
3748.00,99.46
3747.00,99.46
3746.00,99.47
3745.00,99.44
3744.00,99.41
3743.00,99.42
3742.00,99.45
3741.00,99.47
3740.00,99.48
3739.00,99.48
3738.00,99.48
3737.00,99.48
3736.00,99.48
3735.00,99.48
3734.00,99.48
3733.00,99.47
3732.00,99.45
3731.00,99.42
3730.00,99.41
3729.00,99.41
3728.00,99.42
3727.00,99.41
3726.00,99.40
3725.00,99.39
3724.00,99.38
3723.00,99.37
3722.00,99.37
3721.00,99.37
3720.00,99.38
3719.00,99.39
3718.00,99.39
3717.00,99.38
3716.00,99.38
3715.00,99.38
3714.00,99.38
3713.00,99.37
3712.00,99.34
3711.00,99.32
3710.00,99.31
3709.00,99.30
3708.00,99.29
3707.00,99.27
3706.00,99.26
3705.00,99.26
3704.00,99.26
3703.00,99.27
3702.00,99.27
3701.00,99.27
3700.00,99.27
3699.00,99.26
3698.00,99.25
3697.00,99.23
3696.00,99.21
3695.00,99.20
3694.00,99.21
3693.00,99.23
3692.00,99.27
3691.00,99.30
3690.00,99.30
3689.00,99.27
3688.00,99.23
3687.00,99.21
3686.00,99.20
3685.00,99.19
3684.00,99.18
3683.00,99.17
3682.00,99.15
3681.00,99.15
3680.00,99.15
3679.00,99.17
3678.00,99.20
3677.00,99.21
3676.00,99.17
3675.00,99.12
3674.00,99.09
3673.00,99.08
3672.00,99.07
3671.00,99.03
3670.00,98.97
3669.00,98.92
3668.00,98.90
3667.00,98.90
3666.00,98.89
3665.00,98.85
3664.00,98.81
3663.00,98.78
3662.00,98.76
3661.00,98.76
3660.00,98.76
3659.00,98.75
3658.00,98.72
3657.00,98.68
3656.00,98.65
3655.00,98.65
3654.00,98.65
3653.00,98.67
3652.00,98.66
3651.00,98.64
3650.00,98.58
3649.00,98.52
3648.00,98.49
3647.00,98.48
3646.00,98.45
3645.00,98.40
3644.00,98.35
3643.00,98.31
3642.00,98.27
3641.00,98.24
3640.00,98.21
3639.00,98.18
3638.00,98.16
3637.00,98.13
3636.00,98.10
3635.00,98.06
3634.00,98.01
3633.00,97.98
3632.00,97.98
3631.00,97.97
3630.00,97.95
3629.00,97.89
3628.00,97.85
3627.00,97.85
3626.00,97.86
3625.00,97.86
3624.00,97.84
3623.00,97.83
3622.00,97.81
3621.00,97.78
3620.00,97.74
3619.00,97.68
3618.00,97.65
3617.00,97.64
3616.00,97.63
3615.00,97.61
3614.00,97.57
3613.00,97.51
3612.00,97.44
3611.00,97.38
3610.00,97.31
3609.00,97.24
3608.00,97.18
3607.00,97.15
3606.00,97.14
3605.00,97.14
3604.00,97.13
3603.00,97.11
3602.00,97.09
3601.00,97.05
3600.00,97.02
3599.00,96.98
3598.00,96.94
3597.00,96.89
3596.00,96.85
3595.00,96.82
3594.00,96.80
3593.00,96.77
3592.00,96.73
3591.00,96.68
3590.00,96.65
3589.00,96.62
3588.00,96.60
3587.00,96.59
3586.00,96.57
3585.00,96.53
3584.00,96.47
3583.00,96.40
3582.00,96.34
3581.00,96.30
3580.00,96.27
3579.00,96.26
3578.00,96.24
3577.00,96.23
3576.00,96.20
3575.00,96.17
3574.00,96.11
3573.00,96.04
3572.00,95.98
3571.00,95.93
3570.00,95.91
3569.00,95.91
3568.00,95.89
3567.00,95.86
3566.00,95.80
3565.00,95.75
3564.00,95.70
3563.00,95.67
3562.00,95.65
3561.00,95.62
3560.00,95.58
3559.00,95.53
3558.00,95.48
3557.00,95.42
3556.00,95.37
3555.00,95.31
3554.00,95.26
3553.00,95.22
3552.00,95.20
3551.00,95.18
3550.00,95.15
3549.00,95.10
3548.00,95.05
3547.00,95.00
3546.00,94.95
3545.00,94.90
3544.00,94.88
3543.00,94.86
3542.00,94.85
3541.00,94.84
3540.00,94.82
3539.00,94.78
3538.00,94.74
3537.00,94.71
3536.00,94.68
3535.00,94.65
3534.00,94.61
3533.00,94.56
3532.00,94.50
3531.00,94.43
3530.00,94.37
3529.00,94.32
3528.00,94.29
3527.00,94.28
3526.00,94.28
3525.00,94.25
3524.00,94.22
3523.00,94.18
3522.00,94.14
3521.00,94.10
3520.00,94.06
3519.00,94.02
3518.00,93.97
3517.00,93.93
3516.00,93.90
3515.00,93.86
3514.00,93.83
3513.00,93.79
3512.00,93.76
3511.00,93.73
3510.00,93.69
3509.00,93.66
3508.00,93.63
3507.00,93.61
3506.00,93.58
3505.00,93.55
3504.00,93.52
3503.00,93.49
3502.00,93.44
3501.00,93.40
3500.00,93.35
3499.00,93.31
3498.00,93.29
3497.00,93.27
3496.00,93.26
3495.00,93.25
3494.00,93.22
3493.00,93.19
3492.00,93.14
3491.00,93.09
3490.00,93.05
3489.00,93.01
3488.00,92.97
3487.00,92.93
3486.00,92.90
3485.00,92.87
3484.00,92.86
3483.00,92.85
3482.00,92.83
3481.00,92.81
3480.00,92.79
3479.00,92.76
3478.00,92.72
3477.00,92.68
3476.00,92.63
3475.00,92.61
3474.00,92.60
3473.00,92.59
3472.00,92.59
3471.00,92.57
3470.00,92.55
3469.00,92.53
3468.00,92.50
3467.00,92.46
3466.00,92.42
3465.00,92.37
3464.00,92.34
3463.00,92.31
3462.00,92.29
3461.00,92.27
3460.00,92.25
3459.00,92.22
3458.00,92.19
3457.00,92.16
3456.00,92.12
3455.00,92.08
3454.00,92.05
3453.00,92.04
3452.00,92.03
3451.00,92.02
3450.00,91.99
3449.00,91.96
3448.00,91.91
3447.00,91.87
3446.00,91.84
3445.00,91.82
3444.00,91.80
3443.00,91.78
3442.00,91.74
3441.00,91.70
3440.00,91.66
3439.00,91.63
3438.00,91.61
3437.00,91.60
3436.00,91.58
3435.00,91.56
3434.00,91.52
3433.00,91.48
3432.00,91.43
3431.00,91.39
3430.00,91.36
3429.00,91.32
3428.00,91.27
3427.00,91.23
3426.00,91.18
3425.00,91.15
3424.00,91.14
3423.00,91.13
3422.00,91.10
3421.00,91.06
3420.00,91.01
3419.00,90.96
3418.00,90.93
3417.00,90.91
3416.00,90.88
3415.00,90.84
3414.00,90.81
3413.00,90.77
3412.00,90.75
3411.00,90.72
3410.00,90.69
3409.00,90.65
3408.00,90.60
3407.00,90.56
3406.00,90.52
3405.00,90.46
3404.00,90.40
3403.00,90.35
3402.00,90.30
3401.00,90.26
3400.00,90.23
3399.00,90.20
3398.00,90.19
3397.00,90.18
3396.00,90.17
3395.00,90.15
3394.00,90.12
3393.00,90.08
3392.00,90.04
3391.00,90.01
3390.00,89.98
3389.00,89.95
3388.00,89.91
3387.00,89.88
3386.00,89.83
3385.00,89.79
3384.00,89.76
3383.00,89.74
3382.00,89.72
3381.00,89.70
3380.00,89.66
3379.00,89.62
3378.00,89.56
3377.00,89.50
3376.00,89.45
3375.00,89.42
3374.00,89.40
3373.00,89.38
3372.00,89.35
3371.00,89.31
3370.00,89.27
3369.00,89.23
3368.00,89.19
3367.00,89.13
3366.00,89.07
3365.00,89.02
3364.00,88.97
3363.00,88.93
3362.00,88.90
3361.00,88.87
3360.00,88.84
3359.00,88.80
3358.00,88.76
3357.00,88.71
3356.00,88.65
3355.00,88.60
3354.00,88.55
3353.00,88.49
3352.00,88.42
3351.00,88.35
3350.00,88.28
3349.00,88.20
3348.00,88.14
3347.00,88.07
3346.00,88.01
3345.00,87.95
3344.00,87.90
3343.00,87.87
3342.00,87.85
3341.00,87.82
3340.00,87.76
3339.00,87.69
3338.00,87.62
3337.00,87.54
3336.00,87.47
3335.00,87.41
3334.00,87.34
3333.00,87.27
3332.00,87.19
3331.00,87.11
3330.00,87.05
3329.00,86.99
3328.00,86.92
3327.00,86.83
3326.00,86.74
3325.00,86.66
3324.00,86.59
3323.00,86.54
3322.00,86.47
3321.00,86.39
3320.00,86.30
3319.00,86.21
3318.00,86.14
3317.00,86.06
3316.00,85.97
3315.00,85.85
3314.00,85.74
3313.00,85.63
3312.00,85.55
3311.00,85.48
3310.00,85.40
3309.00,85.30
3308.00,85.21
3307.00,85.12
3306.00,85.03
3305.00,84.94
3304.00,84.83
3303.00,84.72
3302.00,84.60
3301.00,84.49
3300.00,84.39
3299.00,84.30
3298.00,84.20
3297.00,84.10
3296.00,83.98
3295.00,83.86
3294.00,83.75
3293.00,83.64
3292.00,83.54
3291.00,83.43
3290.00,83.31
3289.00,83.20
3288.00,83.08
3287.00,82.97
3286.00,82.86
3285.00,82.76
3284.00,82.68
3283.00,82.62
3282.00,82.58
3281.00,82.54
3280.00,82.49
3279.00,82.44
3278.00,82.39
3277.00,82.35
3276.00,82.31
3275.00,82.28
3274.00,82.26
3273.00,82.26
3272.00,82.27
3271.00,82.29
3270.00,82.31
3269.00,82.35
3268.00,82.39
3267.00,82.45
3266.00,82.53
3265.00,82.62
3264.00,82.70
3263.00,82.79
3262.00,82.86
3261.00,82.95
3260.00,83.04
3259.00,83.16
3258.00,83.28
3257.00,83.40
3256.00,83.51
3255.00,83.61
3254.00,83.71
3253.00,83.80
3252.00,83.90
3251.00,84.00
3250.00,84.10
3249.00,84.21
3248.00,84.31
3247.00,84.40
3246.00,84.49
3245.00,84.57
3244.00,84.64
3243.00,84.71
3242.00,84.79
3241.00,84.88
3240.00,84.98
3239.00,85.07
3238.00,85.15
3237.00,85.23
3236.00,85.31
3235.00,85.39
3234.00,85.46
3233.00,85.52
3232.00,85.58
3231.00,85.63
3230.00,85.68
3229.00,85.73
3228.00,85.79
3227.00,85.84
3226.00,85.91
3225.00,85.97
3224.00,86.03
3223.00,86.09
3222.00,86.15
3221.00,86.21
3220.00,86.29
3219.00,86.35
3218.00,86.40
3217.00,86.43
3216.00,86.48
3215.00,86.53
3214.00,86.58
3213.00,86.63
3212.00,86.67
3211.00,86.72
3210.00,86.77
3209.00,86.83
3208.00,86.89
3207.00,86.94
3206.00,87.00
3205.00,87.05
3204.00,87.10
3203.00,87.16
3202.00,87.21
3201.00,87.26
3200.00,87.32
3199.00,87.38
3198.00,87.45
3197.00,87.52
3196.00,87.57
3195.00,87.63
3194.00,87.68
3193.00,87.74
3192.00,87.81
3191.00,87.87
3190.00,87.93
3189.00,87.99
3188.00,88.05
3187.00,88.11
3186.00,88.18
3185.00,88.26
3184.00,88.33
3183.00,88.40
3182.00,88.47
3181.00,88.52
3180.00,88.57
3179.00,88.62
3178.00,88.68
3177.00,88.74
3176.00,88.80
3175.00,88.84
3174.00,88.88
3173.00,88.93
3172.00,88.98
3171.00,89.03
3170.00,89.09
3169.00,89.14
3168.00,89.19
3167.00,89.26
3166.00,89.34
3165.00,89.42
3164.00,89.50
3163.00,89.57
3162.00,89.64
3161.00,89.69
3160.00,89.72
3159.00,89.76
3158.00,89.80
3157.00,89.86
3156.00,89.92
3155.00,89.99
3154.00,90.05
3153.00,90.10
3152.00,90.15
3151.00,90.20
3150.00,90.24
3149.00,90.28
3148.00,90.32
3147.00,90.36
3146.00,90.41
3145.00,90.46
3144.00,90.52
3143.00,90.57
3142.00,90.60
3141.00,90.63
3140.00,90.66
3139.00,90.69
3138.00,90.72
3137.00,90.75
3136.00,90.78
3135.00,90.82
3134.00,90.85
3133.00,90.89
3132.00,90.93
3131.00,90.97
3130.00,90.99
3129.00,91.01
3128.00,91.01
3127.00,91.02
3126.00,91.03
3125.00,91.05
3124.00,91.07
3123.00,91.11
3122.00,91.15
3121.00,91.19
3120.00,91.23
3119.00,91.26
3118.00,91.28
3117.00,91.29
3116.00,91.28
3115.00,91.27
3114.00,91.26
3113.00,91.24
3112.00,91.23
3111.00,91.21
3110.00,91.21
3109.00,91.21
3108.00,91.21
3107.00,91.20
3106.00,91.18
3105.00,91.18
3104.00,91.17
3103.00,91.17
3102.00,91.16
3101.00,91.15
3100.00,91.15
3099.00,91.15
3098.00,91.15
3097.00,91.14
3096.00,91.13
3095.00,91.12
3094.00,91.11
3093.00,91.09
3092.00,91.07
3091.00,91.06
3090.00,91.05
3089.00,91.04
3088.00,91.02
3087.00,91.00
3086.00,90.97
3085.00,90.94
3084.00,90.90
3083.00,90.89
3082.00,90.88
3081.00,90.88
3080.00,90.88
3079.00,90.88
3078.00,90.88
3077.00,90.87
3076.00,90.86
3075.00,90.86
3074.00,90.87
3073.00,90.87
3072.00,90.87
3071.00,90.87
3070.00,90.87
3069.00,90.87
3068.00,90.88
3067.00,90.89
3066.00,90.88
3065.00,90.88
3064.00,90.88
3063.00,90.90
3062.00,90.94
3061.00,90.97
3060.00,91.01
3059.00,91.05
3058.00,91.09
3057.00,91.13
3056.00,91.17
3055.00,91.22
3054.00,91.26
3053.00,91.30
3052.00,91.34
3051.00,91.37
3050.00,91.40
3049.00,91.43
3048.00,91.46
3047.00,91.49
3046.00,91.54
3045.00,91.59
3044.00,91.65
3043.00,91.71
3042.00,91.76
3041.00,91.81
3040.00,91.84
3039.00,91.88
3038.00,91.91
3037.00,91.95
3036.00,92.00
3035.00,92.05
3034.00,92.11
3033.00,92.17
3032.00,92.23
3031.00,92.28
3030.00,92.32
3029.00,92.34
3028.00,92.36
3027.00,92.38
3026.00,92.42
3025.00,92.46
3024.00,92.50
3023.00,92.53
3022.00,92.56
3021.00,92.60
3020.00,92.65
3019.00,92.71
3018.00,92.76
3017.00,92.80
3016.00,92.83
3015.00,92.85
3014.00,92.87
3013.00,92.89
3012.00,92.90
3011.00,92.90
3010.00,92.89
3009.00,92.88
3008.00,92.87
3007.00,92.87
3006.00,92.87
3005.00,92.87
3004.00,92.86
3003.00,92.86
3002.00,92.85
3001.00,92.84
3000.00,92.82
2999.00,92.80
2998.00,92.77
2997.00,92.76
2996.00,92.74
2995.00,92.73
2994.00,92.71
2993.00,92.67
2992.00,92.62
2991.00,92.57
2990.00,92.53
2989.00,92.49
2988.00,92.46
2987.00,92.41
2986.00,92.36
2985.00,92.31
2984.00,92.26
2983.00,92.22
2982.00,92.18
2981.00,92.14
2980.00,92.10
2979.00,92.06
2978.00,92.01
2977.00,91.96
2976.00,91.92
2975.00,91.90
2974.00,91.87
2973.00,91.84
2972.00,91.80
2971.00,91.76
2970.00,91.72
2969.00,91.68
2968.00,91.64
2967.00,91.62
2966.00,91.61
2965.00,91.62
2964.00,91.64
2963.00,91.66
2962.00,91.68
2961.00,91.70
2960.00,91.72
2959.00,91.74
2958.00,91.78
2957.00,91.80
2956.00,91.82
2955.00,91.81
2954.00,91.80
2953.00,91.80
2952.00,91.81
2951.00,91.83
2950.00,91.85
2949.00,91.85
2948.00,91.84
2947.00,91.81
2946.00,91.78
2945.00,91.74
2944.00,91.67
2943.00,91.59
2942.00,91.51
2941.00,91.44
2940.00,91.40
2939.00,91.36
2938.00,91.30
2937.00,91.23
2936.00,91.15
2935.00,91.08
2934.00,91.03
2933.00,90.98
2932.00,90.94
2931.00,90.90
2930.00,90.88
2929.00,90.88
2928.00,90.88
2927.00,90.91
2926.00,90.95
2925.00,91.00
2924.00,91.06
2923.00,91.12
2922.00,91.16
2921.00,91.19
2920.00,91.21
2919.00,91.24
2918.00,91.30
2917.00,91.41
2916.00,91.56
2915.00,91.72
2914.00,91.87
2913.00,92.00
2912.00,92.11
2911.00,92.21
2910.00,92.32
2909.00,92.43
2908.00,92.54
2907.00,92.63
2906.00,92.70
2905.00,92.77
2904.00,92.82
2903.00,92.87
2902.00,92.90
2901.00,92.93
2900.00,92.96
2899.00,92.98
2898.00,93.01
2897.00,93.05
2896.00,93.10
2895.00,93.14
2894.00,93.18
2893.00,93.22
2892.00,93.25
2891.00,93.29
2890.00,93.32
2889.00,93.33
2888.00,93.33
2887.00,93.32
2886.00,93.32
2885.00,93.32
2884.00,93.33
2883.00,93.33
2882.00,93.32
2881.00,93.31
2880.00,93.29
2879.00,93.27
2878.00,93.25
2877.00,93.23
2876.00,93.22
2875.00,93.22
2874.00,93.22
2873.00,93.22
2872.00,93.22
2871.00,93.24
2870.00,93.27
2869.00,93.32
2868.00,93.37
2867.00,93.41
2866.00,93.44
2865.00,93.47
2864.00,93.51
2863.00,93.54
2862.00,93.57
2861.00,93.59
2860.00,93.59
2859.00,93.59
2858.00,93.58
2857.00,93.57
2856.00,93.56
2855.00,93.54
2854.00,93.52
2853.00,93.50
2852.00,93.52
2851.00,93.55
2850.00,93.62
2849.00,93.71
2848.00,93.82
2847.00,93.95
2846.00,94.07
2845.00,94.18
2844.00,94.28
2843.00,94.37
2842.00,94.46
2841.00,94.54
2840.00,94.61
2839.00,94.67
2838.00,94.70
2837.00,94.72
2836.00,94.73
2835.00,94.75
2834.00,94.77
2833.00,94.79
2832.00,94.80
2831.00,94.81
2830.00,94.84
2829.00,94.87
2828.00,94.91
2827.00,94.95
2826.00,94.97
2825.00,94.99
2824.00,95.00
2823.00,95.01
2822.00,95.02
2821.00,95.02
2820.00,95.03
2819.00,95.05
2818.00,95.06
2817.00,95.07
2816.00,95.09
2815.00,95.11
2814.00,95.14
2813.00,95.17
2812.00,95.19
2811.00,95.21
2810.00,95.23
2809.00,95.24
2808.00,95.25
2807.00,95.26
2806.00,95.28
2805.00,95.29
2804.00,95.30
2803.00,95.31
2802.00,95.31
2801.00,95.32
2800.00,95.33
2799.00,95.33
2798.00,95.34
2797.00,95.36
2796.00,95.37
2795.00,95.38
2794.00,95.39
2793.00,95.41
2792.00,95.42
2791.00,95.44
2790.00,95.46
2789.00,95.46
2788.00,95.46
2787.00,95.46
2786.00,95.47
2785.00,95.48
2784.00,95.49
2783.00,95.50
2782.00,95.50
2781.00,95.51
2780.00,95.53
2779.00,95.56
2778.00,95.59
2777.00,95.61
2776.00,95.62
2775.00,95.63
2774.00,95.63
2773.00,95.63
2772.00,95.64
2771.00,95.66
2770.00,95.69
2769.00,95.72
2768.00,95.74
2767.00,95.75
2766.00,95.75
2765.00,95.75
2764.00,95.75
2763.00,95.74
2762.00,95.74
2761.00,95.73
2760.00,95.74
2759.00,95.77
2758.00,95.80
2757.00,95.82
2756.00,95.84
2755.00,95.85
2754.00,95.86
2753.00,95.87
2752.00,95.87
2751.00,95.89
2750.00,95.91
2749.00,95.93
2748.00,95.95
2747.00,95.96
2746.00,95.96
2745.00,95.95
2744.00,95.94
2743.00,95.94
2742.00,95.95
2741.00,95.97
2740.00,95.98
2739.00,96.00
2738.00,96.02
2737.00,96.04
2736.00,96.05
2735.00,96.06
2734.00,96.07
2733.00,96.07
2732.00,96.08
2731.00,96.09
2730.00,96.11
2729.00,96.11
2728.00,96.11
2727.00,96.11
2726.00,96.11
2725.00,96.13
2724.00,96.14
2723.00,96.16
2722.00,96.18
2721.00,96.19
2720.00,96.20
2719.00,96.21
2718.00,96.23
2717.00,96.25
2716.00,96.26
2715.00,96.26
2714.00,96.26
2713.00,96.27
2712.00,96.27
2711.00,96.27
2710.00,96.27
2709.00,96.28
2708.00,96.29
2707.00,96.31
2706.00,96.32
2705.00,96.33
2704.00,96.34
2703.00,96.34
2702.00,96.35
2701.00,96.37
2700.00,96.39
2699.00,96.39
2698.00,96.39
2697.00,96.38
2696.00,96.37
2695.00,96.37
2694.00,96.37
2693.00,96.38
2692.00,96.40
2691.00,96.42
2690.00,96.43
2689.00,96.43
2688.00,96.43
2687.00,96.44
2686.00,96.44
2685.00,96.44
2684.00,96.43
2683.00,96.43
2682.00,96.43
2681.00,96.44
2680.00,96.45
2679.00,96.47
2678.00,96.48
2677.00,96.48
2676.00,96.48
2675.00,96.49
2674.00,96.49
2673.00,96.50
2672.00,96.52
2671.00,96.53
2670.00,96.54
2669.00,96.54
2668.00,96.54
2667.00,96.54
2666.00,96.54
2665.00,96.54
2664.00,96.54
2663.00,96.54
2662.00,96.54
2661.00,96.55
2660.00,96.56
2659.00,96.56
2658.00,96.54
2657.00,96.52
2656.00,96.51
2655.00,96.50
2654.00,96.49
2653.00,96.49
2652.00,96.49
2651.00,96.50
2650.00,96.51
2649.00,96.50
2648.00,96.49
2647.00,96.48
2646.00,96.47
2645.00,96.46
2644.00,96.44
2643.00,96.43
2642.00,96.43
2641.00,96.43
2640.00,96.44
2639.00,96.43
2638.00,96.41
2637.00,96.39
2636.00,96.37
2635.00,96.36
2634.00,96.36
2633.00,96.37
2632.00,96.38
2631.00,96.38
2630.00,96.37
2629.00,96.37
2628.00,96.36
2627.00,96.37
2626.00,96.37
2625.00,96.37
2624.00,96.37
2623.00,96.36
2622.00,96.35
2621.00,96.34
2620.00,96.34
2619.00,96.33
2618.00,96.33
2617.00,96.33
2616.00,96.33
2615.00,96.33
2614.00,96.33
2613.00,96.33
2612.00,96.34
2611.00,96.35
2610.00,96.36
2609.00,96.36
2608.00,96.36
2607.00,96.38
2606.00,96.39
2605.00,96.39
2604.00,96.37
2603.00,96.33
2602.00,96.31
2601.00,96.30
2600.00,96.31
2599.00,96.33
2598.00,96.34
2597.00,96.34
2596.00,96.35
2595.00,96.37
2594.00,96.38
2593.00,96.37
2592.00,96.35
2591.00,96.33
2590.00,96.31
2589.00,96.30
2588.00,96.29
2587.00,96.28
2586.00,96.28
2585.00,96.29
2584.00,96.32
2583.00,96.35
2582.00,96.37
2581.00,96.38
2580.00,96.37
2579.00,96.37
2578.00,96.37
2577.00,96.36
2576.00,96.36
2575.00,96.35
2574.00,96.36
2573.00,96.38
2572.00,96.40
2571.00,96.42
2570.00,96.43
2569.00,96.43
2568.00,96.42
2567.00,96.42
2566.00,96.40
2565.00,96.38
2564.00,96.36
2563.00,96.36
2562.00,96.37
2561.00,96.40
2560.00,96.43
2559.00,96.44
2558.00,96.42
2557.00,96.40
2556.00,96.38
2555.00,96.38
2554.00,96.39
2553.00,96.39
2552.00,96.39
2551.00,96.39
2550.00,96.39
2549.00,96.40
2548.00,96.40
2547.00,96.41
2546.00,96.41
2545.00,96.42
2544.00,96.43
2543.00,96.44
2542.00,96.44
2541.00,96.45
2540.00,96.44
2539.00,96.44
2538.00,96.44
2537.00,96.44
2536.00,96.44
2535.00,96.45
2534.00,96.46
2533.00,96.46
2532.00,96.46
2531.00,96.46
2530.00,96.45
2529.00,96.42
2528.00,96.40
2527.00,96.37
2526.00,96.36
2525.00,96.35
2524.00,96.36
2523.00,96.39
2522.00,96.41
2521.00,96.42
2520.00,96.41
2519.00,96.40
2518.00,96.40
2517.00,96.42
2516.00,96.46
2515.00,96.50
2514.00,96.52
2513.00,96.53
2512.00,96.54
2511.00,96.55
2510.00,96.54
2509.00,96.53
2508.00,96.50
2507.00,96.48
2506.00,96.47
2505.00,96.47
2504.00,96.48
2503.00,96.49
2502.00,96.51
2501.00,96.52
2500.00,96.52
2499.00,96.52
2498.00,96.52
2497.00,96.52
2496.00,96.52
2495.00,96.52
2494.00,96.52
2493.00,96.52
2492.00,96.52
2491.00,96.52
2490.00,96.53
2489.00,96.53
2488.00,96.53
2487.00,96.53
2486.00,96.52
2485.00,96.50
2484.00,96.48
2483.00,96.47
2482.00,96.48
2481.00,96.50
2480.00,96.53
2479.00,96.56
2478.00,96.58
2477.00,96.58
2476.00,96.57
2475.00,96.55
2474.00,96.54
2473.00,96.53
2472.00,96.52
2471.00,96.52
2470.00,96.53
2469.00,96.54
2468.00,96.57
2467.00,96.59
2466.00,96.62
2465.00,96.63
2464.00,96.63
2463.00,96.63
2462.00,96.64
2461.00,96.64
2460.00,96.63
2459.00,96.61
2458.00,96.58
2457.00,96.56
2456.00,96.55
2455.00,96.54
2454.00,96.55
2453.00,96.56
2452.00,96.57
2451.00,96.59
2450.00,96.62
2449.00,96.65
2448.00,96.66
2447.00,96.67
2446.00,96.66
2445.00,96.64
2444.00,96.63
2443.00,96.61
2442.00,96.61
2441.00,96.61
2440.00,96.62
2439.00,96.63
2438.00,96.64
2437.00,96.65
2436.00,96.66
2435.00,96.66
2434.00,96.66
2433.00,96.65
2432.00,96.64
2431.00,96.65
2430.00,96.65
2429.00,96.66
2428.00,96.67
2427.00,96.68
2426.00,96.69
2425.00,96.69
2424.00,96.68
2423.00,96.68
2422.00,96.69
2421.00,96.70
2420.00,96.71
2419.00,96.72
2418.00,96.74
2417.00,96.75
2416.00,96.75
2415.00,96.75
2414.00,96.77
2413.00,96.78
2412.00,96.79
2411.00,96.78
2410.00,96.77
2409.00,96.76
2408.00,96.76
2407.00,96.77
2406.00,96.79
2405.00,96.81
2404.00,96.82
2403.00,96.82
2402.00,96.84
2401.00,96.85
2400.00,96.87
2399.00,96.88
2398.00,96.89
2397.00,96.89
2396.00,96.90
2395.00,96.91
2394.00,96.92
2393.00,96.93
2392.00,96.95
2391.00,96.96
2390.00,96.97
2389.00,96.97
2388.00,96.98
2387.00,96.98
2386.00,96.99
2385.00,97.00
2384.00,97.01
2383.00,97.02
2382.00,97.04
2381.00,97.06
2380.00,97.10
2379.00,97.16
2378.00,97.22
2377.00,97.26
2376.00,97.28
2375.00,97.29
2374.00,97.31
2373.00,97.31
2372.00,97.31
2371.00,97.29
2370.00,97.27
2369.00,97.25
2368.00,97.24
2367.00,97.26
2366.00,97.30
2365.00,97.34
2364.00,97.35
2363.00,97.33
2362.00,97.28
2361.00,97.25
2360.00,97.26
2359.00,97.30
2358.00,97.34
2357.00,97.34
2356.00,97.31
2355.00,97.29
2354.00,97.28
2353.00,97.29
2352.00,97.31
2351.00,97.33
2350.00,97.34
2349.00,97.34
2348.00,97.32
2347.00,97.30
2346.00,97.28
2345.00,97.29
2344.00,97.30
2343.00,97.32
2342.00,97.34
2341.00,97.34
2340.00,97.31
2339.00,97.28
2338.00,97.24
2337.00,97.22
2336.00,97.21
2335.00,97.21
2334.00,97.20
2333.00,97.19
2332.00,97.18
2331.00,97.18
2330.00,97.19
2329.00,97.19
2328.00,97.17
2327.00,97.13
2326.00,97.06
2325.00,96.98
2324.00,96.94
2323.00,96.95
2322.00,96.97
2321.00,96.98
2320.00,96.97
2319.00,96.95
2318.00,96.93
2317.00,96.91
2316.00,96.90
2315.00,96.90
2314.00,96.90
2313.00,96.90
2312.00,96.90
2311.00,96.92
2310.00,96.94
2309.00,96.95
2308.00,96.95
2307.00,96.95
2306.00,96.93
2305.00,96.91
2304.00,96.88
2303.00,96.85
2302.00,96.81
2301.00,96.78
2300.00,96.75
2299.00,96.72
2298.00,96.69
2297.00,96.65
2296.00,96.63
2295.00,96.61
2294.00,96.59
2293.00,96.54
2292.00,96.48
2291.00,96.43
2290.00,96.40
2289.00,96.38
2288.00,96.37
2287.00,96.36
2286.00,96.34
2285.00,96.32
2284.00,96.30
2283.00,96.30
2282.00,96.31
2281.00,96.31
2280.00,96.32
2279.00,96.31
2278.00,96.30
2277.00,96.26
2276.00,96.23
2275.00,96.19
2274.00,96.16
2273.00,96.14
2272.00,96.12
2271.00,96.13
2270.00,96.14
2269.00,96.14
2268.00,96.12
2267.00,96.12
2266.00,96.12
2265.00,96.11
2264.00,96.12
2263.00,96.14
2262.00,96.15
2261.00,96.14
2260.00,96.11
2259.00,96.08
2258.00,96.07
2257.00,96.07
2256.00,96.09
2255.00,96.10
2254.00,96.12
2253.00,96.10
2252.00,96.04
2251.00,95.98
2250.00,95.95
2249.00,95.94
2248.00,95.95
2247.00,95.97
2246.00,95.99
2245.00,96.00
2244.00,95.98
2243.00,95.93
2242.00,95.88
2241.00,95.84
2240.00,95.82
2239.00,95.81
2238.00,95.81
2237.00,95.82
2236.00,95.82
2235.00,95.82
2234.00,95.80
2233.00,95.78
2232.00,95.77
2231.00,95.77
2230.00,95.77
2229.00,95.78
2228.00,95.80
2227.00,95.82
2226.00,95.81
2225.00,95.76
2224.00,95.70
2223.00,95.64
2222.00,95.59
2221.00,95.55
2220.00,95.55
2219.00,95.58
2218.00,95.63
2217.00,95.65
2216.00,95.64
2215.00,95.60
2214.00,95.56
2213.00,95.51
2212.00,95.47
2211.00,95.48
2210.00,95.51
2209.00,95.53
2208.00,95.54
2207.00,95.53
2206.00,95.52
2205.00,95.51
2204.00,95.51
2203.00,95.50
2202.00,95.47
2201.00,95.40
2200.00,95.34
2199.00,95.31
2198.00,95.29
2197.00,95.27
2196.00,95.24
2195.00,95.22
2194.00,95.21
2193.00,95.20
2192.00,95.19
2191.00,95.20
2190.00,95.22
2189.00,95.22
2188.00,95.18
2187.00,95.14
2186.00,95.12
2185.00,95.12
2184.00,95.16
2183.00,95.22
2182.00,95.26
2181.00,95.27
2180.00,95.23
2179.00,95.18
2178.00,95.13
2177.00,95.11
2176.00,95.12
2175.00,95.15
2174.00,95.17
2173.00,95.16
2172.00,95.12
2171.00,95.08
2170.00,95.04
2169.00,95.00
2168.00,94.95
2167.00,94.90
2166.00,94.86
2165.00,94.82
2164.00,94.77
2163.00,94.68
2162.00,94.57
2161.00,94.51
2160.00,94.57
2159.00,94.77
2158.00,95.01
2157.00,95.21
2156.00,95.35
2155.00,95.44
2154.00,95.48
2153.00,95.47
2152.00,95.42
2151.00,95.37
2150.00,95.35
2149.00,95.36
2148.00,95.40
2147.00,95.46
2146.00,95.51
2145.00,95.54
2144.00,95.58
2143.00,95.65
2142.00,95.73
2141.00,95.77
2140.00,95.78
2139.00,95.81
2138.00,95.85
2137.00,95.88
2136.00,95.91
2135.00,95.95
2134.00,96.01
2133.00,96.07
2132.00,96.10
2131.00,96.12
2130.00,96.14
2129.00,96.15
2128.00,96.17
2127.00,96.18
2126.00,96.19
2125.00,96.20
2124.00,96.22
2123.00,96.25
2122.00,96.24
2121.00,96.19
2120.00,96.12
2119.00,96.05
2118.00,96.02
2117.00,96.01
2116.00,95.99
2115.00,95.96
2114.00,95.93
2113.00,95.92
2112.00,95.94
2111.00,95.99
2110.00,96.02
2109.00,96.02
2108.00,95.99
2107.00,95.97
2106.00,95.97
2105.00,95.95
2104.00,95.92
2103.00,95.89
2102.00,95.89
2101.00,95.92
2100.00,95.96
2099.00,96.00
2098.00,96.04
2097.00,96.06
2096.00,96.09
2095.00,96.11
2094.00,96.12
2093.00,96.11
2092.00,96.09
2091.00,96.06
2090.00,96.03
2089.00,95.99
2088.00,95.97
2087.00,95.98
2086.00,96.00
2085.00,96.03
2084.00,96.07
2083.00,96.10
2082.00,96.09
2081.00,96.05
2080.00,95.99
2079.00,95.95
2078.00,95.93
2077.00,95.89
2076.00,95.86
2075.00,95.83
2074.00,95.83
2073.00,95.83
2072.00,95.82
2071.00,95.81
2070.00,95.81
2069.00,95.83
2068.00,95.87
2067.00,95.92
2066.00,95.96
2065.00,95.96
2064.00,95.92
2063.00,95.87
2062.00,95.84
2061.00,95.86
2060.00,95.90
2059.00,95.94
2058.00,95.97
2057.00,95.96
2056.00,95.94
2055.00,95.91
2054.00,95.85
2053.00,95.75
2052.00,95.64
2051.00,95.58
2050.00,95.55
2049.00,95.54
2048.00,95.52
2047.00,95.49
2046.00,95.46
2045.00,95.44
2044.00,95.42
2043.00,95.40
2042.00,95.37
2041.00,95.32
2040.00,95.26
2039.00,95.23
2038.00,95.23
2037.00,95.23
2036.00,95.21
2035.00,95.21
2034.00,95.22
2033.00,95.22
2032.00,95.22
2031.00,95.19
2030.00,95.17
2029.00,95.16
2028.00,95.18
2027.00,95.22
2026.00,95.24
2025.00,95.21
2024.00,95.18
2023.00,95.19
2022.00,95.20
2021.00,95.20
2020.00,95.18
2019.00,95.17
2018.00,95.20
2017.00,95.23
2016.00,95.26
2015.00,95.30
2014.00,95.31
2013.00,95.30
2012.00,95.28
2011.00,95.29
2010.00,95.35
2009.00,95.41
2008.00,95.49
2007.00,95.56
2006.00,95.62
2005.00,95.62
2004.00,95.61
2003.00,95.62
2002.00,95.67
2001.00,95.70
2000.00,95.69
1999.00,95.66
1998.00,95.65
1997.00,95.66
1996.00,95.69
1995.00,95.71
1994.00,95.70
1993.00,95.68
1992.00,95.67
1991.00,95.68
1990.00,95.68
1989.00,95.66
1988.00,95.63
1987.00,95.60
1986.00,95.59
1985.00,95.57
1984.00,95.56
1983.00,95.54
1982.00,95.50
1981.00,95.42
1980.00,95.34
1979.00,95.29
1978.00,95.30
1977.00,95.36
1976.00,95.43
1975.00,95.50
1974.00,95.53
1973.00,95.52
1972.00,95.52
1971.00,95.56
1970.00,95.61
1969.00,95.64
1968.00,95.67
1967.00,95.71
1966.00,95.78
1965.00,95.84
1964.00,95.90
1963.00,95.98
1962.00,96.07
1961.00,96.16
1960.00,96.22
1959.00,96.25
1958.00,96.27
1957.00,96.26
1956.00,96.22
1955.00,96.19
1954.00,96.18
1953.00,96.18
1952.00,96.18
1951.00,96.21
1950.00,96.25
1949.00,96.27
1948.00,96.28
1947.00,96.32
1946.00,96.36
1945.00,96.38
1944.00,96.37
1943.00,96.37
1942.00,96.39
1941.00,96.45
1940.00,96.50
1939.00,96.53
1938.00,96.54
1937.00,96.53
1936.00,96.49
1935.00,96.48
1934.00,96.48
1933.00,96.49
1932.00,96.51
1931.00,96.53
1930.00,96.55
1929.00,96.56
1928.00,96.55
1927.00,96.56
1926.00,96.59
1925.00,96.62
1924.00,96.65
1923.00,96.68
1922.00,96.70
1921.00,96.71
1920.00,96.72
1919.00,96.74
1918.00,96.76
1917.00,96.75
1916.00,96.73
1915.00,96.72
1914.00,96.73
1913.00,96.75
1912.00,96.78
1911.00,96.81
1910.00,96.81
1909.00,96.79
1908.00,96.77
1907.00,96.79
1906.00,96.82
1905.00,96.84
1904.00,96.86
1903.00,96.88
1902.00,96.90
1901.00,96.90
1900.00,96.89
1899.00,96.88
1898.00,96.87
1897.00,96.87
1896.00,96.87
1895.00,96.89
1894.00,96.93
1893.00,96.96
1892.00,96.98
1891.00,97.01
1890.00,97.02
1889.00,97.01
1888.00,97.01
1887.00,97.01
1886.00,97.01
1885.00,97.00
1884.00,96.98
1883.00,96.97
1882.00,96.99
1881.00,97.01
1880.00,97.02
1879.00,97.03
1878.00,97.05
1877.00,97.06
1876.00,97.06
1875.00,97.05
1874.00,97.05
1873.00,97.04
1872.00,97.04
1871.00,97.07
1870.00,97.13
1869.00,97.16
1868.00,97.16
1867.00,97.14
1866.00,97.12
1865.00,97.11
1864.00,97.10
1863.00,97.12
1862.00,97.13
1861.00,97.14
1860.00,97.15
1859.00,97.17
1858.00,97.21
1857.00,97.23
1856.00,97.23
1855.00,97.22
1854.00,97.21
1853.00,97.19
1852.00,97.17
1851.00,97.17
1850.00,97.18
1849.00,97.20
1848.00,97.21
1847.00,97.25
1846.00,97.29
1845.00,97.33
1844.00,97.34
1843.00,97.35
1842.00,97.35
1841.00,97.34
1840.00,97.31
1839.00,97.30
1838.00,97.30
1837.00,97.32
1836.00,97.32
1835.00,97.33
1834.00,97.34
1833.00,97.35
1832.00,97.38
1831.00,97.39
1830.00,97.39
1829.00,97.36
1828.00,97.35
1827.00,97.39
1826.00,97.45
1825.00,97.47
1824.00,97.46
1823.00,97.45
1822.00,97.44
1821.00,97.41
1820.00,97.38
1819.00,97.37
1818.00,97.38
1817.00,97.40
1816.00,97.41
1815.00,97.41
1814.00,97.42
1813.00,97.41
1812.00,97.41
1811.00,97.42
1810.00,97.44
1809.00,97.45
1808.00,97.45
1807.00,97.45
1806.00,97.45
1805.00,97.44
1804.00,97.46
1803.00,97.50
1802.00,97.55
1801.00,97.58
1800.00,97.57
1799.00,97.54
1798.00,97.52
1797.00,97.50
1796.00,97.50
1795.00,97.51
1794.00,97.53
1793.00,97.51
1792.00,97.49
1791.00,97.49
1790.00,97.51
1789.00,97.53
1788.00,97.53
1787.00,97.53
1786.00,97.52
1785.00,97.51
1784.00,97.50
1783.00,97.49
1782.00,97.49
1781.00,97.46
1780.00,97.42
1779.00,97.41
1778.00,97.43
1777.00,97.45
1776.00,97.44
1775.00,97.43
1774.00,97.42
1773.00,97.37
1772.00,97.31
1771.00,97.32
1770.00,97.40
1769.00,97.46
1768.00,97.46
1767.00,97.43
1766.00,97.41
1765.00,97.41
1764.00,97.41
1763.00,97.42
1762.00,97.41
1761.00,97.39
1760.00,97.35
1759.00,97.33
1758.00,97.33
1757.00,97.31
1756.00,97.27
1755.00,97.24
1754.00,97.22
1753.00,97.17
1752.00,97.10
1751.00,97.04
1750.00,97.01
1749.00,97.00
1748.00,96.98
1747.00,96.98
1746.00,96.98
1745.00,96.96
1744.00,96.94
1743.00,96.93
1742.00,96.93
1741.00,96.92
1740.00,96.86
1739.00,96.79
1738.00,96.76
1737.00,96.75
1736.00,96.72
1735.00,96.65
1734.00,96.56
1733.00,96.46
1732.00,96.42
1731.00,96.45
1730.00,96.51
1729.00,96.52
1728.00,96.49
1727.00,96.45
1726.00,96.42
1725.00,96.37
1724.00,96.29
1723.00,96.22
1722.00,96.19
1721.00,96.17
1720.00,96.13
1719.00,96.04
1718.00,95.86
1717.00,95.60
1716.00,95.37
1715.00,95.26
1714.00,95.22
1713.00,95.13
1712.00,94.93
1711.00,94.70
1710.00,94.47
1709.00,94.23
1708.00,93.95
1707.00,93.62
1706.00,93.21
1705.00,92.73
1704.00,92.27
1703.00,91.89
1702.00,91.45
1701.00,90.77
1700.00,89.96
1699.00,89.31
1698.00,88.83
1697.00,88.33
1696.00,87.75
1695.00,87.24
1694.00,86.95
1693.00,86.77
1692.00,86.59
1691.00,86.33
1690.00,86.02
1689.00,85.70
1688.00,85.39
1687.00,85.06
1686.00,84.65
1685.00,84.13
1684.00,83.60
1683.00,83.27
1682.00,83.11
1681.00,82.90
1680.00,82.56
1679.00,82.18
1678.00,81.82
1677.00,81.47
1676.00,81.07
1675.00,80.65
1674.00,80.27
1673.00,79.92
1672.00,79.56
1671.00,79.17
1670.00,78.73
1669.00,78.25
1668.00,77.79
1667.00,77.39
1666.00,77.04
1665.00,76.66
1664.00,76.23
1663.00,75.78
1662.00,75.35
1661.00,74.93
1660.00,74.49
1659.00,74.04
1658.00,73.61
1657.00,73.22
1656.00,72.82
1655.00,72.37
1654.00,71.79
1653.00,71.12
1652.00,70.57
1651.00,70.22
1650.00,70.01
1649.00,69.80
1648.00,69.47
1647.00,69.04
1646.00,68.64
1645.00,68.29
1644.00,67.94
1643.00,67.61
1642.00,67.32
1641.00,67.03
1640.00,66.72
1639.00,66.43
1638.00,66.13
1637.00,65.80
1636.00,65.42
1635.00,65.09
1634.00,64.87
1633.00,64.65
1632.00,64.41
1631.00,64.16
1630.00,63.93
1629.00,63.74
1628.00,63.58
1627.00,63.46
1626.00,63.39
1625.00,63.36
1624.00,63.39
1623.00,63.49
1622.00,63.67
1621.00,63.85
1620.00,64.00
1619.00,64.16
1618.00,64.43
1617.00,64.86
1616.00,65.38
1615.00,65.89
1614.00,66.38
1613.00,66.89
1612.00,67.41
1611.00,67.98
1610.00,68.60
1609.00,69.26
1608.00,69.93
1607.00,70.59
1606.00,71.22
1605.00,71.84
1604.00,72.44
1603.00,73.03
1602.00,73.58
1601.00,74.08
1600.00,74.55
1599.00,74.98
1598.00,75.37
1597.00,75.74
1596.00,76.10
1595.00,76.45
1594.00,76.77
1593.00,77.07
1592.00,77.36
1591.00,77.63
1590.00,77.86
1589.00,78.07
1588.00,78.26
1587.00,78.43
1586.00,78.56
1585.00,78.64
1584.00,78.71
1583.00,78.75
1582.00,78.76
1581.00,78.74
1580.00,78.73
1579.00,78.70
1578.00,78.59
1577.00,78.39
1576.00,78.20
1575.00,78.07
1574.00,78.03
1573.00,78.02
1572.00,77.99
1571.00,77.86
1570.00,77.65
1569.00,77.40
1568.00,77.19
1567.00,76.97
1566.00,76.71
1565.00,76.41
1564.00,76.13
1563.00,75.87
1562.00,75.60
1561.00,75.29
1560.00,74.91
1559.00,74.46
1558.00,74.04
1557.00,73.76
1556.00,73.49
1555.00,73.15
1554.00,72.76
1553.00,72.39
1552.00,72.07
1551.00,71.77
1550.00,71.43
1549.00,71.09
1548.00,70.78
1547.00,70.51
1546.00,70.24
1545.00,69.96
1544.00,69.68
1543.00,69.41
1542.00,69.12
1541.00,68.79
1540.00,68.44
1539.00,68.14
1538.00,67.92
1537.00,67.76
1536.00,67.65
1535.00,67.53
1534.00,67.39
1533.00,67.23
1532.00,67.08
1531.00,66.92
1530.00,66.74
1529.00,66.57
1528.00,66.42
1527.00,66.30
1526.00,66.18
1525.00,66.06
1524.00,65.93
1523.00,65.78
1522.00,65.58
1521.00,65.37
1520.00,65.20
1519.00,65.06
1518.00,64.92
1517.00,64.79
1516.00,64.71
1515.00,64.67
1514.00,64.67
1513.00,64.72
1512.00,64.84
1511.00,65.00
1510.00,65.15
1509.00,65.31
1508.00,65.60
1507.00,66.13
1506.00,66.71
1505.00,67.16
1504.00,67.45
1503.00,67.70
1502.00,68.01
1501.00,68.38
1500.00,68.80
1499.00,69.26
1498.00,69.77
1497.00,70.34
1496.00,70.91
1495.00,71.41
1494.00,71.84
1493.00,72.25
1492.00,72.71
1491.00,73.25
1490.00,73.88
1489.00,74.51
1488.00,75.05
1487.00,75.51
1486.00,75.91
1485.00,76.26
1484.00,76.57
1483.00,76.87
1482.00,77.18
1481.00,77.49
1480.00,77.75
1479.00,77.96
1478.00,78.16
1477.00,78.35
1476.00,78.48
1475.00,78.56
1474.00,78.59
1473.00,78.60
1472.00,78.61
1471.00,78.62
1470.00,78.62
1469.00,78.61
1468.00,78.60
1467.00,78.59
1466.00,78.58
1465.00,78.56
1464.00,78.50
1463.00,78.39
1462.00,78.26
1461.00,78.11
1460.00,77.95
1459.00,77.74
1458.00,77.45
1457.00,77.12
1456.00,76.84
1455.00,76.64
1454.00,76.50
1453.00,76.38
1452.00,76.25
1451.00,76.11
1450.00,75.99
1449.00,75.87
1448.00,75.75
1447.00,75.67
1446.00,75.62
1445.00,75.63
1444.00,75.69
1443.00,75.82
1442.00,76.00
1441.00,76.21
1440.00,76.41
1439.00,76.63
1438.00,76.90
1437.00,77.27
1436.00,77.66
1435.00,77.95
1434.00,78.14
1433.00,78.31
1432.00,78.49
1431.00,78.68
1430.00,78.88
1429.00,79.06
1428.00,79.20
1427.00,79.28
1426.00,79.34
1425.00,79.39
1424.00,79.42
1423.00,79.43
1422.00,79.41
1421.00,79.37
1420.00,79.34
1419.00,79.32
1418.00,79.30
1417.00,79.27
1416.00,79.20
1415.00,79.11
1414.00,79.01
1413.00,78.92
1412.00,78.85
1411.00,78.77
1410.00,78.70
1409.00,78.61
1408.00,78.52
1407.00,78.43
1406.00,78.35
1405.00,78.29
1404.00,78.22
1403.00,78.16
1402.00,78.11
1401.00,78.06
1400.00,78.04
1399.00,78.03
1398.00,78.03
1397.00,78.03
1396.00,78.03
1395.00,78.04
1394.00,78.05
1393.00,78.05
1392.00,78.03
1391.00,78.03
1390.00,78.04
1389.00,78.09
1388.00,78.17
1387.00,78.25
1386.00,78.33
1385.00,78.40
1384.00,78.46
1383.00,78.53
1382.00,78.61
1381.00,78.70
1380.00,78.78
1379.00,78.85
1378.00,78.91
1377.00,78.94
1376.00,78.95
1375.00,78.94
1374.00,78.92
1373.00,78.90
1372.00,78.91
1371.00,78.95
1370.00,79.06
1369.00,79.22
1368.00,79.43
1367.00,79.65
1366.00,79.85
1365.00,80.05
1364.00,80.25
1363.00,80.44
1362.00,80.61
1361.00,80.75
1360.00,80.87
1359.00,80.98
1358.00,81.09
1357.00,81.20
1356.00,81.32
1355.00,81.42
1354.00,81.51
1353.00,81.59
1352.00,81.65
1351.00,81.70
1350.00,81.75
1349.00,81.78
1348.00,81.80
1347.00,81.80
1346.00,81.79
1345.00,81.77
1344.00,81.75
1343.00,81.73
1342.00,81.73
1341.00,81.74
1340.00,81.76
1339.00,81.77
1338.00,81.78
1337.00,81.79
1336.00,81.79
1335.00,81.78
1334.00,81.79
1333.00,81.80
1332.00,81.83
1331.00,81.86
1330.00,81.88
1329.00,81.89
1328.00,81.90
1327.00,81.91
1326.00,81.93
1325.00,81.96
1324.00,81.97
1323.00,81.96
1322.00,81.93
1321.00,81.89
1320.00,81.84
1319.00,81.79
1318.00,81.75
1317.00,81.71
1316.00,81.68
1315.00,81.65
1314.00,81.63
1313.00,81.64
1312.00,81.68
1311.00,81.71
1310.00,81.75
1309.00,81.79
1308.00,81.83
1307.00,81.88
1306.00,81.93
1305.00,81.97
1304.00,82.01
1303.00,82.06
1302.00,82.12
1301.00,82.18
1300.00,82.24
1299.00,82.29
1298.00,82.33
1297.00,82.36
1296.00,82.37
1295.00,82.37
1294.00,82.38
1293.00,82.38
1292.00,82.38
1291.00,82.38
1290.00,82.37
1289.00,82.37
1288.00,82.35
1287.00,82.34
1286.00,82.31
1285.00,82.29
1284.00,82.26
1283.00,82.22
1282.00,82.18
1281.00,82.13
1280.00,82.08
1279.00,82.03
1278.00,81.97
1277.00,81.89
1276.00,81.80
1275.00,81.71
1274.00,81.62
1273.00,81.54
1272.00,81.44
1271.00,81.35
1270.00,81.25
1269.00,81.16
1268.00,81.06
1267.00,80.97
1266.00,80.87
1265.00,80.77
1264.00,80.66
1263.00,80.54
1262.00,80.43
1261.00,80.32
1260.00,80.20
1259.00,80.09
1258.00,79.97
1257.00,79.86
1256.00,79.73
1255.00,79.60
1254.00,79.47
1253.00,79.32
1252.00,79.16
1251.00,78.97
1250.00,78.79
1249.00,78.60
1248.00,78.42
1247.00,78.23
1246.00,78.04
1245.00,77.84
1244.00,77.65
1243.00,77.47
1242.00,77.31
1241.00,77.17
1240.00,77.05
1239.00,76.95
1238.00,76.89
1237.00,76.85
1236.00,76.82
1235.00,76.80
1234.00,76.81
1233.00,76.83
1232.00,76.85
1231.00,76.89
1230.00,76.92
1229.00,76.96
1228.00,77.00
1227.00,77.05
1226.00,77.09
1225.00,77.13
1224.00,77.18
1223.00,77.22
1222.00,77.27
1221.00,77.34
1220.00,77.42
1219.00,77.51
1218.00,77.63
1217.00,77.78
1216.00,77.95
1215.00,78.15
1214.00,78.36
1213.00,78.59
1212.00,78.81
1211.00,79.04
1210.00,79.27
1209.00,79.50
1208.00,79.73
1207.00,79.94
1206.00,80.14
1205.00,80.33
1204.00,80.50
1203.00,80.66
1202.00,80.83
1201.00,81.01
1200.00,81.18
1199.00,81.34
1198.00,81.48
1197.00,81.61
1196.00,81.71
1195.00,81.80
1194.00,81.87
1193.00,81.94
1192.00,82.01
1191.00,82.07
1190.00,82.13
1189.00,82.19
1188.00,82.25
1187.00,82.29
1186.00,82.32
1185.00,82.33
1184.00,82.30
1183.00,82.25
1182.00,82.17
1181.00,82.07
1180.00,81.95
1179.00,81.82
1178.00,81.66
1177.00,81.50
1176.00,81.34
1175.00,81.19
1174.00,81.05
1173.00,80.93
1172.00,80.84
1171.00,80.78
1170.00,80.75
1169.00,80.73
1168.00,80.74
1167.00,80.77
1166.00,80.83
1165.00,80.91
1164.00,80.99
1163.00,81.08
1162.00,81.16
1161.00,81.26
1160.00,81.38
1159.00,81.54
1158.00,81.71
1157.00,81.88
1156.00,82.05
1155.00,82.21
1154.00,82.37
1153.00,82.53
1152.00,82.69
1151.00,82.85
1150.00,82.99
1149.00,83.13
1148.00,83.27
1147.00,83.40
1146.00,83.53
1145.00,83.66
1144.00,83.77
1143.00,83.88
1142.00,83.99
1141.00,84.08
1140.00,84.15
1139.00,84.21
1138.00,84.26
1137.00,84.30
1136.00,84.31
1135.00,84.32
1134.00,84.35
1133.00,84.38
1132.00,84.42
1131.00,84.43
1130.00,84.42
1129.00,84.41
1128.00,84.41
1127.00,84.43
1126.00,84.45
1125.00,84.47
1124.00,84.49
1123.00,84.51
1122.00,84.53
1121.00,84.54
1120.00,84.54
1119.00,84.53
1118.00,84.53
1117.00,84.55
1116.00,84.57
1115.00,84.58
1114.00,84.57
1113.00,84.55
1112.00,84.52
1111.00,84.48
1110.00,84.46
1109.00,84.45
1108.00,84.44
1107.00,84.43
1106.00,84.43
1105.00,84.44
1104.00,84.45
1103.00,84.46
1102.00,84.49
1101.00,84.51
1100.00,84.54
1099.00,84.55
1098.00,84.55
1097.00,84.56
1096.00,84.56
1095.00,84.54
1094.00,84.49
1093.00,84.42
1092.00,84.36
1091.00,84.29
1090.00,84.20
1089.00,84.10
1088.00,83.97
1087.00,83.85
1086.00,83.73
1085.00,83.62
1084.00,83.49
1083.00,83.35
1082.00,83.20
1081.00,83.08
1080.00,83.01
1079.00,82.97
1078.00,82.95
1077.00,82.93
1076.00,82.88
1075.00,82.82
1074.00,82.76
1073.00,82.72
1072.00,82.70
1071.00,82.69
1070.00,82.69
1069.00,82.70
1068.00,82.71
1067.00,82.71
1066.00,82.70
1065.00,82.68
1064.00,82.65
1063.00,82.62
1062.00,82.59
1061.00,82.57
1060.00,82.53
1059.00,82.46
1058.00,82.36
1057.00,82.27
1056.00,82.18
1055.00,82.11
1054.00,82.06
1053.00,81.99
1052.00,81.92
1051.00,81.86
1050.00,81.82
1049.00,81.82
1048.00,81.85
1047.00,81.90
1046.00,81.94
1045.00,81.98
1044.00,82.02
1043.00,82.07
1042.00,82.13
1041.00,82.21
1040.00,82.30
1039.00,82.40
1038.00,82.51
1037.00,82.64
1036.00,82.78
1035.00,82.94
1034.00,83.08
1033.00,83.20
1032.00,83.30
1031.00,83.39
1030.00,83.51
1029.00,83.63
1028.00,83.75
1027.00,83.85
1026.00,83.94
1025.00,84.03
1024.00,84.13
1023.00,84.24
1022.00,84.34
1021.00,84.44
1020.00,84.54
1019.00,84.65
1018.00,84.76
1017.00,84.87
1016.00,84.95
1015.00,85.02
1014.00,85.10
1013.00,85.21
1012.00,85.33
1011.00,85.44
1010.00,85.56
1009.00,85.68
1008.00,85.82
1007.00,85.96
1006.00,86.07
1005.00,86.16
1004.00,86.24
1003.00,86.31
1002.00,86.37
1001.00,86.43
1000.00,86.48
999.00,86.53
998.00,86.58
997.00,86.65
996.00,86.74
995.00,86.83
994.00,86.91
993.00,86.99
992.00,87.06
991.00,87.12
990.00,87.17
989.00,87.23
988.00,87.30
987.00,87.38
986.00,87.44
985.00,87.47
984.00,87.49
983.00,87.49
982.00,87.50
981.00,87.50
980.00,87.49
979.00,87.47
978.00,87.43
977.00,87.38
976.00,87.30
975.00,87.18
974.00,87.02
973.00,86.81
972.00,86.57
971.00,86.30
970.00,85.99
969.00,85.67
968.00,85.34
967.00,85.05
966.00,84.84
965.00,84.74
964.00,84.73
963.00,84.82
962.00,84.97
961.00,85.17
960.00,85.41
959.00,85.65
958.00,85.89
957.00,86.12
956.00,86.33
955.00,86.52
954.00,86.68
953.00,86.80
952.00,86.91
951.00,87.00
950.00,87.08
949.00,87.14
948.00,87.20
947.00,87.26
946.00,87.32
945.00,87.35
944.00,87.36
943.00,87.36
942.00,87.36
941.00,87.35
940.00,87.34
939.00,87.33
938.00,87.31
937.00,87.29
936.00,87.25
935.00,87.22
934.00,87.18
933.00,87.14
932.00,87.12
931.00,87.09
930.00,87.06
929.00,87.03
928.00,87.01
927.00,87.01
926.00,87.04
925.00,87.08
924.00,87.14
923.00,87.21
922.00,87.26
921.00,87.32
920.00,87.38
919.00,87.46
918.00,87.54
917.00,87.64
916.00,87.72
915.00,87.80
914.00,87.85
913.00,87.88
912.00,87.89
911.00,87.89
910.00,87.89
909.00,87.87
908.00,87.85
907.00,87.82
906.00,87.78
905.00,87.73
904.00,87.69
903.00,87.65
902.00,87.62
901.00,87.60
900.00,87.60
899.00,87.62
898.00,87.65
897.00,87.69
896.00,87.72
895.00,87.74
894.00,87.75
893.00,87.76
892.00,87.76
891.00,87.77
890.00,87.79
889.00,87.80
888.00,87.81
887.00,87.80
886.00,87.78
885.00,87.76
884.00,87.77
883.00,87.77
882.00,87.76
881.00,87.72
880.00,87.67
879.00,87.64
878.00,87.63
877.00,87.64
876.00,87.64
875.00,87.63
874.00,87.60
873.00,87.58
872.00,87.58
871.00,87.58
870.00,87.59
869.00,87.62
868.00,87.65
867.00,87.67
866.00,87.69
865.00,87.70
864.00,87.69
863.00,87.66
862.00,87.60
861.00,87.52
860.00,87.43
859.00,87.36
858.00,87.29
857.00,87.22
856.00,87.13
855.00,87.02
854.00,86.91
853.00,86.83
852.00,86.77
851.00,86.74
850.00,86.73
849.00,86.72
848.00,86.71
847.00,86.67
846.00,86.62
845.00,86.55
844.00,86.48
843.00,86.41
842.00,86.34
841.00,86.25
840.00,86.15
839.00,86.05
838.00,85.96
837.00,85.89
836.00,85.83
835.00,85.76
834.00,85.66
833.00,85.56
832.00,85.46
831.00,85.38
830.00,85.29
829.00,85.23
828.00,85.22
827.00,85.24
826.00,85.28
825.00,85.28
824.00,85.26
823.00,85.21
822.00,85.17
821.00,85.15
820.00,85.14
819.00,85.12
818.00,85.07
817.00,85.01
816.00,84.95
815.00,84.90
814.00,84.85
813.00,84.81
812.00,84.76
811.00,84.71
810.00,84.63
809.00,84.54
808.00,84.43
807.00,84.34
806.00,84.27
805.00,84.23
804.00,84.21
803.00,84.20
802.00,84.16
801.00,84.10
800.00,84.01
799.00,83.91
798.00,83.83
797.00,83.75
796.00,83.69
795.00,83.65
794.00,83.61
793.00,83.56
792.00,83.47
791.00,83.35
790.00,83.19
789.00,83.03
788.00,82.89
787.00,82.76
786.00,82.63
785.00,82.49
784.00,82.32
783.00,82.14
782.00,81.96
781.00,81.82
780.00,81.72
779.00,81.65
778.00,81.60
777.00,81.56
776.00,81.51
775.00,81.47
774.00,81.42
773.00,81.37
772.00,81.30
771.00,81.24
770.00,81.16
769.00,81.07
768.00,80.98
767.00,80.90
766.00,80.83
765.00,80.75
764.00,80.65
763.00,80.55
762.00,80.46
761.00,80.37
760.00,80.29
759.00,80.23
758.00,80.15
757.00,80.06
756.00,79.94
755.00,79.83
754.00,79.71
753.00,79.60
752.00,79.48
751.00,79.37
750.00,79.28
749.00,79.22
748.00,79.18
747.00,79.15
746.00,79.14
745.00,79.12
744.00,79.10
743.00,79.04
742.00,78.95
741.00,78.83
740.00,78.73
739.00,78.67
738.00,78.64
737.00,78.59
736.00,78.50
735.00,78.39
734.00,78.27
733.00,78.12
732.00,77.94
731.00,77.77
730.00,77.65
729.00,77.55
728.00,77.44
727.00,77.32
726.00,77.17
725.00,77.00
724.00,76.81
723.00,76.61
722.00,76.40
721.00,76.17
720.00,75.93
719.00,75.68
718.00,75.42
717.00,75.15
716.00,74.88
715.00,74.62
714.00,74.37
713.00,74.11
712.00,73.83
711.00,73.56
710.00,73.30
709.00,73.05
708.00,72.78
707.00,72.51
706.00,72.27
705.00,72.04
704.00,71.81
703.00,71.57
702.00,71.36
701.00,71.18
700.00,71.03
699.00,70.91
698.00,70.80
697.00,70.69
696.00,70.59
695.00,70.52
694.00,70.48
693.00,70.43
692.00,70.37
691.00,70.29
690.00,70.22
689.00,70.14
688.00,70.07
687.00,70.02
686.00,70.00
685.00,69.97
684.00,69.91
683.00,69.82
682.00,69.72
681.00,69.63
680.00,69.55
679.00,69.48
678.00,69.43
677.00,69.38
676.00,69.35
675.00,69.37
674.00,69.41
673.00,69.40
672.00,69.32
671.00,69.21
670.00,69.11
669.00,69.01
668.00,68.93
667.00,68.88
666.00,68.88
665.00,68.87
664.00,68.82
663.00,68.72
662.00,68.61
661.00,68.51
660.00,68.43
659.00,68.43
658.00,68.48
657.00,68.52
656.00,68.50
655.00,68.47
654.00,68.45
653.00,68.40
652.00,68.30
651.00,68.21
650.00,68.19
649.00,68.22
648.00,68.27
647.00,68.31
646.00,68.32
645.00,68.24
644.00,68.07
643.00,67.93
642.00,67.92
641.00,68.02
640.00,68.08
639.00,68.04
638.00,67.93
637.00,67.79
636.00,67.66
635.00,67.59
634.00,67.58
633.00,67.57
632.00,67.49
631.00,67.34
630.00,67.12
629.00,66.82
628.00,66.48
627.00,66.23
626.00,66.14
625.00,66.11
624.00,66.06
623.00,66.03
622.00,66.06
621.00,65.99
620.00,65.70
619.00,65.29
618.00,64.98
617.00,64.85
616.00,64.83
615.00,64.84
614.00,64.79
613.00,64.62
612.00,64.47
611.00,64.58
610.00,65.00
609.00,65.51
608.00,65.85
607.00,65.95
606.00,65.88
605.00,65.69
604.00,65.36
603.00,64.83
602.00,64.15
601.00,63.62
600.00,63.61
599.00,64.24
598.00,65.08
597.00,65.59
596.00,65.67
595.00,65.66
594.00,65.78
593.00,65.85
592.00,65.67
591.00,65.33
590.00,65.05
589.00,64.85
588.00,64.68
587.00,64.63
586.00,64.78
585.00,65.03
584.00,65.26
583.00,65.41
582.00,65.39
581.00,65.18
580.00,64.97
579.00,65.02
578.00,65.17
577.00,64.99
576.00,64.52
575.00,64.21
574.00,64.07
573.00,63.57
572.00,62.63
571.00,61.97
570.00,62.15
569.00,62.85
568.00,63.55
567.00,64.13
566.00,64.56
565.00,64.61
564.00,64.28
563.00,63.93
562.00,63.85
561.00,63.79
560.00,63.51
559.00,63.07
558.00,62.58
557.00,61.98
556.00,61.44
555.00,61.44
554.00,62.03
553.00,62.58
552.00,62.53
551.00,62.12
550.00,61.80
