Created as New Dataset,18.1 Wild, two colors,m from India (light)
cm-1,%T
4000.00,101.28
3999.00,101.29
3998.00,101.29
3997.00,101.28
3996.00,101.28
3995.00,101.28
3994.00,101.29
3993.00,101.29
3992.00,101.30
3991.00,101.29
3990.00,101.28
3989.00,101.26
3988.00,101.24
3987.00,101.21
3986.00,101.20
3985.00,101.20
3984.00,101.21
3983.00,101.24
3982.00,101.26
3981.00,101.28
3980.00,101.27
3979.00,101.25
3978.00,101.22
3977.00,101.20
3976.00,101.19
3975.00,101.19
3974.00,101.19
3973.00,101.20
3972.00,101.20
3971.00,101.19
3970.00,101.20
3969.00,101.21
3968.00,101.23
3967.00,101.24
3966.00,101.25
3965.00,101.25
3964.00,101.24
3963.00,101.23
3962.00,101.24
3961.00,101.26
3960.00,101.27
3959.00,101.27
3958.00,101.25
3957.00,101.22
3956.00,101.20
3955.00,101.20
3954.00,101.22
3953.00,101.24
3952.00,101.26
3951.00,101.28
3950.00,101.29
3949.00,101.30
3948.00,101.30
3947.00,101.30
3946.00,101.29
3945.00,101.28
3944.00,101.28
3943.00,101.27
3942.00,101.27
3941.00,101.27
3940.00,101.29
3939.00,101.31
3938.00,101.32
3937.00,101.32
3936.00,101.31
3935.00,101.28
3934.00,101.27
3933.00,101.25
3932.00,101.24
3931.00,101.22
3930.00,101.20
3929.00,101.18
3928.00,101.17
3927.00,101.17
3926.00,101.18
3925.00,101.20
3924.00,101.20
3923.00,101.20
3922.00,101.19
3921.00,101.19
3920.00,101.18
3919.00,101.18
3918.00,101.19
3917.00,101.19
3916.00,101.19
3915.00,101.19
3914.00,101.20
3913.00,101.21
3912.00,101.22
3911.00,101.21
3910.00,101.19
3909.00,101.17
3908.00,101.15
3907.00,101.14
3906.00,101.16
3905.00,101.18
3904.00,101.20
3903.00,101.20
3902.00,101.18
3901.00,101.17
3900.00,101.15
3899.00,101.15
3898.00,101.14
3897.00,101.13
3896.00,101.13
3895.00,101.13
3894.00,101.15
3893.00,101.17
3892.00,101.18
3891.00,101.18
3890.00,101.17
3889.00,101.16
3888.00,101.16
3887.00,101.17
3886.00,101.18
3885.00,101.17
3884.00,101.16
3883.00,101.16
3882.00,101.18
3881.00,101.20
3880.00,101.19
3879.00,101.17
3878.00,101.15
3877.00,101.13
3876.00,101.13
3875.00,101.13
3874.00,101.10
3873.00,101.06
3872.00,101.03
3871.00,101.02
3870.00,101.04
3869.00,101.06
3868.00,101.08
3867.00,101.09
3866.00,101.11
3865.00,101.12
3864.00,101.13
3863.00,101.13
3862.00,101.13
3861.00,101.12
3860.00,101.11
3859.00,101.10
3858.00,101.08
3857.00,101.06
3856.00,101.04
3855.00,101.02
3854.00,101.01
3853.00,101.00
3852.00,101.02
3851.00,101.06
3850.00,101.12
3849.00,101.16
3848.00,101.19
3847.00,101.19
3846.00,101.17
3845.00,101.14
3844.00,101.10
3843.00,101.07
3842.00,101.04
3841.00,101.04
3840.00,101.05
3839.00,101.07
3838.00,101.08
3837.00,101.09
3836.00,101.10
3835.00,101.11
3834.00,101.11
3833.00,101.12
3832.00,101.11
3831.00,101.10
3830.00,101.09
3829.00,101.09
3828.00,101.09
3827.00,101.07
3826.00,101.04
3825.00,101.00
3824.00,100.98
3823.00,100.99
3822.00,101.01
3821.00,101.01
3820.00,101.00
3819.00,100.99
3818.00,101.02
3817.00,101.07
3816.00,101.13
3815.00,101.15
3814.00,101.15
3813.00,101.14
3812.00,101.13
3811.00,101.11
3810.00,101.08
3809.00,101.05
3808.00,101.04
3807.00,101.03
3806.00,101.01
3805.00,100.99
3804.00,100.97
3803.00,100.98
3802.00,101.00
3801.00,101.01
3800.00,101.00
3799.00,100.99
3798.00,101.01
3797.00,101.04
3796.00,101.07
3795.00,101.09
3794.00,101.10
3793.00,101.11
3792.00,101.11
3791.00,101.11
3790.00,101.11
3789.00,101.11
3788.00,101.12
3787.00,101.12
3786.00,101.13
3785.00,101.13
3784.00,101.12
3783.00,101.11
3782.00,101.11
3781.00,101.11
3780.00,101.12
3779.00,101.12
3778.00,101.12
3777.00,101.11
3776.00,101.11
3775.00,101.10
3774.00,101.08
3773.00,101.06
3772.00,101.05
3771.00,101.06
3770.00,101.07
3769.00,101.07
3768.00,101.08
3767.00,101.09
3766.00,101.10
3765.00,101.10
3764.00,101.08
3763.00,101.06
3762.00,101.04
3761.00,101.03
3760.00,101.03
3759.00,101.02
3758.00,100.99
3757.00,100.96
3756.00,100.92
3755.00,100.88
3754.00,100.87
3753.00,100.89
3752.00,100.93
3751.00,100.95
3750.00,100.93
3749.00,100.90
3748.00,100.86
3747.00,100.84
3746.00,100.86
3745.00,100.88
3744.00,100.89
3743.00,100.87
3742.00,100.87
3741.00,100.88
3740.00,100.89
3739.00,100.90
3738.00,100.89
3737.00,100.89
3736.00,100.90
3735.00,100.91
3734.00,100.92
3733.00,100.94
3732.00,100.95
3731.00,100.97
3730.00,100.99
3729.00,101.00
3728.00,101.02
3727.00,101.03
3726.00,101.02
3725.00,101.00
3724.00,100.97
3723.00,100.96
3722.00,100.95
3721.00,100.95
3720.00,100.96
3719.00,100.97
3718.00,100.96
3717.00,100.93
3716.00,100.90
3715.00,100.87
3714.00,100.87
3713.00,100.88
3712.00,100.87
3711.00,100.86
3710.00,100.84
3709.00,100.86
3708.00,100.89
3707.00,100.93
3706.00,100.94
3705.00,100.93
3704.00,100.93
3703.00,100.93
3702.00,100.95
3701.00,100.97
3700.00,100.97
3699.00,100.96
3698.00,100.93
3697.00,100.91
3696.00,100.90
3695.00,100.89
3694.00,100.88
3693.00,100.87
3692.00,100.84
3691.00,100.82
3690.00,100.80
3689.00,100.80
3688.00,100.81
3687.00,100.83
3686.00,100.87
3685.00,100.91
3684.00,100.93
3683.00,100.94
3682.00,100.92
3681.00,100.88
3680.00,100.83
3679.00,100.76
3678.00,100.70
3677.00,100.65
3676.00,100.61
3675.00,100.60
3674.00,100.60
3673.00,100.62
3672.00,100.66
3671.00,100.72
3670.00,100.76
3669.00,100.76
3668.00,100.74
3667.00,100.72
3666.00,100.71
3665.00,100.71
3664.00,100.70
3663.00,100.68
3662.00,100.66
3661.00,100.65
3660.00,100.63
3659.00,100.62
3658.00,100.61
3657.00,100.59
3656.00,100.57
3655.00,100.54
3654.00,100.52
3653.00,100.50
3652.00,100.49
3651.00,100.47
3650.00,100.45
3649.00,100.42
3648.00,100.42
3647.00,100.42
3646.00,100.43
3645.00,100.43
3644.00,100.43
3643.00,100.44
3642.00,100.45
3641.00,100.45
3640.00,100.45
3639.00,100.46
3638.00,100.46
3637.00,100.44
3636.00,100.41
3635.00,100.38
3634.00,100.37
3633.00,100.36
3632.00,100.34
3631.00,100.32
3630.00,100.30
3629.00,100.29
3628.00,100.28
3627.00,100.27
3626.00,100.27
3625.00,100.28
3624.00,100.26
3623.00,100.23
3622.00,100.19
3621.00,100.16
3620.00,100.13
3619.00,100.10
3618.00,100.07
3617.00,100.03
3616.00,100.00
3615.00,99.99
3614.00,100.00
3613.00,100.01
3612.00,100.01
3611.00,100.01
3610.00,100.00
3609.00,100.00
3608.00,100.01
3607.00,100.01
3606.00,100.01
3605.00,99.99
3604.00,99.95
3603.00,99.92
3602.00,99.89
3601.00,99.89
3600.00,99.90
3599.00,99.90
3598.00,99.90
3597.00,99.90
3596.00,99.90
3595.00,99.89
3594.00,99.87
3593.00,99.82
3592.00,99.76
3591.00,99.71
3590.00,99.67
3589.00,99.67
3588.00,99.66
3587.00,99.64
3586.00,99.61
3585.00,99.59
3584.00,99.60
3583.00,99.63
3582.00,99.67
3581.00,99.68
3580.00,99.67
3579.00,99.65
3578.00,99.62
3577.00,99.60
3576.00,99.59
3575.00,99.59
3574.00,99.58
3573.00,99.56
3572.00,99.52
3571.00,99.47
3570.00,99.41
3569.00,99.36
3568.00,99.35
3567.00,99.36
3566.00,99.36
3565.00,99.36
3564.00,99.35
3563.00,99.35
3562.00,99.35
3561.00,99.36
3560.00,99.35
3559.00,99.34
3558.00,99.32
3557.00,99.29
3556.00,99.27
3555.00,99.24
3554.00,99.23
3553.00,99.21
3552.00,99.19
3551.00,99.16
3550.00,99.13
3549.00,99.11
3548.00,99.09
3547.00,99.07
3546.00,99.05
3545.00,99.02
3544.00,99.01
3543.00,99.00
3542.00,98.99
3541.00,98.97
3540.00,98.94
3539.00,98.91
3538.00,98.90
3537.00,98.89
3536.00,98.89
3535.00,98.88
3534.00,98.86
3533.00,98.83
3532.00,98.80
3531.00,98.78
3530.00,98.77
3529.00,98.76
3528.00,98.73
3527.00,98.70
3526.00,98.67
3525.00,98.67
3524.00,98.67
3523.00,98.67
3522.00,98.64
3521.00,98.60
3520.00,98.56
3519.00,98.55
3518.00,98.56
3517.00,98.59
3516.00,98.60
3515.00,98.59
3514.00,98.57
3513.00,98.54
3512.00,98.50
3511.00,98.48
3510.00,98.46
3509.00,98.45
3508.00,98.44
3507.00,98.44
3506.00,98.44
3505.00,98.44
3504.00,98.43
3503.00,98.42
3502.00,98.40
3501.00,98.38
3500.00,98.37
3499.00,98.37
3498.00,98.37
3497.00,98.36
3496.00,98.34
3495.00,98.32
3494.00,98.29
3493.00,98.27
3492.00,98.25
3491.00,98.22
3490.00,98.19
3489.00,98.17
3488.00,98.17
3487.00,98.19
3486.00,98.20
3485.00,98.20
3484.00,98.20
3483.00,98.19
3482.00,98.18
3481.00,98.16
3480.00,98.14
3479.00,98.12
3478.00,98.10
3477.00,98.08
3476.00,98.08
3475.00,98.08
3474.00,98.07
3473.00,98.06
3472.00,98.04
3471.00,98.03
3470.00,98.00
3469.00,97.97
3468.00,97.93
3467.00,97.91
3466.00,97.90
3465.00,97.91
3464.00,97.91
3463.00,97.91
3462.00,97.91
3461.00,97.90
3460.00,97.88
3459.00,97.85
3458.00,97.82
3457.00,97.81
3456.00,97.81
3455.00,97.80
3454.00,97.78
3453.00,97.76
3452.00,97.73
3451.00,97.71
3450.00,97.71
3449.00,97.72
3448.00,97.73
3447.00,97.73
3446.00,97.71
3445.00,97.69
3444.00,97.67
3443.00,97.66
3442.00,97.65
3441.00,97.63
3440.00,97.61
3439.00,97.59
3438.00,97.58
3437.00,97.57
3436.00,97.56
3435.00,97.54
3434.00,97.52
3433.00,97.49
3432.00,97.46
3431.00,97.44
3430.00,97.43
3429.00,97.43
3428.00,97.43
3427.00,97.42
3426.00,97.39
3425.00,97.36
3424.00,97.34
3423.00,97.32
3422.00,97.31
3421.00,97.29
3420.00,97.27
3419.00,97.26
3418.00,97.26
3417.00,97.26
3416.00,97.27
3415.00,97.27
3414.00,97.25
3413.00,97.22
3412.00,97.18
3411.00,97.15
3410.00,97.11
3409.00,97.09
3408.00,97.07
3407.00,97.05
3406.00,97.03
3405.00,97.01
3404.00,96.99
3403.00,96.98
3402.00,96.96
3401.00,96.94
3400.00,96.91
3399.00,96.89
3398.00,96.88
3397.00,96.88
3396.00,96.88
3395.00,96.87
3394.00,96.85
3393.00,96.82
3392.00,96.78
3391.00,96.75
3390.00,96.74
3389.00,96.73
3388.00,96.74
3387.00,96.73
3386.00,96.73
3385.00,96.71
3384.00,96.69
3383.00,96.65
3382.00,96.62
3381.00,96.59
3380.00,96.56
3379.00,96.55
3378.00,96.53
3377.00,96.51
3376.00,96.49
3375.00,96.46
3374.00,96.44
3373.00,96.43
3372.00,96.41
3371.00,96.40
3370.00,96.37
3369.00,96.35
3368.00,96.34
3367.00,96.33
3366.00,96.32
3365.00,96.30
3364.00,96.28
3363.00,96.25
3362.00,96.23
3361.00,96.21
3360.00,96.18
3359.00,96.14
3358.00,96.10
3357.00,96.06
3356.00,96.04
3355.00,96.02
3354.00,96.00
3353.00,95.96
3352.00,95.93
3351.00,95.90
3350.00,95.87
3349.00,95.85
3348.00,95.82
3347.00,95.77
3346.00,95.71
3345.00,95.66
3344.00,95.63
3343.00,95.61
3342.00,95.59
3341.00,95.57
3340.00,95.54
3339.00,95.51
3338.00,95.48
3337.00,95.45
3336.00,95.40
3335.00,95.36
3334.00,95.31
3333.00,95.26
3332.00,95.20
3331.00,95.13
3330.00,95.06
3329.00,95.00
3328.00,94.96
3327.00,94.95
3326.00,94.95
3325.00,94.93
3324.00,94.87
3323.00,94.77
3322.00,94.67
3321.00,94.58
3320.00,94.51
3319.00,94.48
3318.00,94.44
3317.00,94.40
3316.00,94.35
3315.00,94.28
3314.00,94.21
3313.00,94.14
3312.00,94.07
3311.00,94.00
3310.00,93.92
3309.00,93.85
3308.00,93.78
3307.00,93.72
3306.00,93.65
3305.00,93.58
3304.00,93.50
3303.00,93.43
3302.00,93.36
3301.00,93.29
3300.00,93.21
3299.00,93.13
3298.00,93.04
3297.00,92.94
3296.00,92.84
3295.00,92.73
3294.00,92.62
3293.00,92.53
3292.00,92.43
3291.00,92.34
3290.00,92.25
3289.00,92.16
3288.00,92.07
3287.00,91.96
3286.00,91.86
3285.00,91.76
3284.00,91.66
3283.00,91.56
3282.00,91.48
3281.00,91.42
3280.00,91.37
3279.00,91.33
3278.00,91.29
3277.00,91.25
3276.00,91.21
3275.00,91.19
3274.00,91.17
3273.00,91.15
3272.00,91.14
3271.00,91.14
3270.00,91.15
3269.00,91.17
3268.00,91.19
3267.00,91.22
3266.00,91.26
3265.00,91.30
3264.00,91.36
3263.00,91.42
3262.00,91.48
3261.00,91.54
3260.00,91.62
3259.00,91.71
3258.00,91.80
3257.00,91.90
3256.00,91.98
3255.00,92.06
3254.00,92.11
3253.00,92.17
3252.00,92.24
3251.00,92.31
3250.00,92.39
3249.00,92.47
3248.00,92.54
3247.00,92.61
3246.00,92.67
3245.00,92.73
3244.00,92.80
3243.00,92.87
3242.00,92.94
3241.00,93.00
3240.00,93.05
3239.00,93.10
3238.00,93.15
3237.00,93.22
3236.00,93.29
3235.00,93.36
3234.00,93.42
3233.00,93.46
3232.00,93.51
3231.00,93.55
3230.00,93.58
3229.00,93.60
3228.00,93.63
3227.00,93.67
3226.00,93.71
3225.00,93.77
3224.00,93.83
3223.00,93.89
3222.00,93.92
3221.00,93.93
3220.00,93.94
3219.00,93.96
3218.00,94.00
3217.00,94.06
3216.00,94.12
3215.00,94.19
3214.00,94.24
3213.00,94.26
3212.00,94.28
3211.00,94.31
3210.00,94.34
3209.00,94.38
3208.00,94.42
3207.00,94.46
3206.00,94.51
3205.00,94.56
3204.00,94.60
3203.00,94.63
3202.00,94.65
3201.00,94.68
3200.00,94.72
3199.00,94.78
3198.00,94.84
3197.00,94.89
3196.00,94.92
3195.00,94.96
3194.00,94.99
3193.00,95.01
3192.00,95.03
3191.00,95.04
3190.00,95.06
3189.00,95.09
3188.00,95.14
3187.00,95.19
3186.00,95.24
3185.00,95.28
3184.00,95.30
3183.00,95.32
3182.00,95.33
3181.00,95.35
3180.00,95.39
3179.00,95.44
3178.00,95.49
3177.00,95.53
3176.00,95.58
3175.00,95.62
3174.00,95.66
3173.00,95.69
3172.00,95.71
3171.00,95.74
3170.00,95.76
3169.00,95.78
3168.00,95.80
3167.00,95.82
3166.00,95.85
3165.00,95.89
3164.00,95.93
3163.00,95.96
3162.00,96.00
3161.00,96.03
3160.00,96.06
3159.00,96.08
3158.00,96.11
3157.00,96.13
3156.00,96.17
3155.00,96.21
3154.00,96.24
3153.00,96.27
3152.00,96.29
3151.00,96.31
3150.00,96.34
3149.00,96.36
3148.00,96.39
3147.00,96.43
3146.00,96.47
3145.00,96.49
3144.00,96.51
3143.00,96.52
3142.00,96.53
3141.00,96.53
3140.00,96.54
3139.00,96.55
3138.00,96.56
3137.00,96.57
3136.00,96.59
3135.00,96.61
3134.00,96.63
3133.00,96.66
3132.00,96.67
3131.00,96.68
3130.00,96.68
3129.00,96.68
3128.00,96.68
3127.00,96.69
3126.00,96.69
3125.00,96.69
3124.00,96.68
3123.00,96.67
3122.00,96.67
3121.00,96.68
3120.00,96.70
3119.00,96.72
3118.00,96.73
3117.00,96.73
3116.00,96.72
3115.00,96.71
3114.00,96.70
3113.00,96.70
3112.00,96.71
3111.00,96.71
3110.00,96.70
3109.00,96.69
3108.00,96.68
3107.00,96.67
3106.00,96.66
3105.00,96.65
3104.00,96.64
3103.00,96.63
3102.00,96.61
3101.00,96.60
3100.00,96.58
3099.00,96.57
3098.00,96.56
3097.00,96.54
3096.00,96.53
3095.00,96.51
3094.00,96.51
3093.00,96.51
3092.00,96.51
3091.00,96.50
3090.00,96.49
3089.00,96.48
3088.00,96.47
3087.00,96.46
3086.00,96.45
3085.00,96.44
3084.00,96.43
3083.00,96.44
3082.00,96.44
3081.00,96.43
3080.00,96.39
3079.00,96.35
3078.00,96.32
3077.00,96.29
3076.00,96.28
3075.00,96.28
3074.00,96.29
3073.00,96.30
3072.00,96.32
3071.00,96.33
3070.00,96.33
3069.00,96.32
3068.00,96.31
3067.00,96.30
3066.00,96.30
3065.00,96.32
3064.00,96.36
3063.00,96.40
3062.00,96.43
3061.00,96.44
3060.00,96.44
3059.00,96.46
3058.00,96.48
3057.00,96.52
3056.00,96.55
3055.00,96.58
3054.00,96.60
3053.00,96.63
3052.00,96.66
3051.00,96.69
3050.00,96.73
3049.00,96.77
3048.00,96.80
3047.00,96.82
3046.00,96.83
3045.00,96.84
3044.00,96.86
3043.00,96.89
3042.00,96.93
3041.00,96.97
3040.00,97.00
3039.00,97.03
3038.00,97.07
3037.00,97.11
3036.00,97.14
3035.00,97.14
3034.00,97.14
3033.00,97.15
3032.00,97.17
3031.00,97.21
3030.00,97.24
3029.00,97.27
3028.00,97.29
3027.00,97.31
3026.00,97.34
3025.00,97.36
3024.00,97.36
3023.00,97.36
3022.00,97.35
3021.00,97.35
3020.00,97.37
3019.00,97.40
3018.00,97.42
3017.00,97.45
3016.00,97.47
3015.00,97.48
3014.00,97.48
3013.00,97.48
3012.00,97.48
3011.00,97.49
3010.00,97.50
3009.00,97.51
3008.00,97.51
3007.00,97.51
3006.00,97.49
3005.00,97.48
3004.00,97.48
3003.00,97.47
3002.00,97.47
3001.00,97.45
3000.00,97.43
2999.00,97.39
2998.00,97.36
2997.00,97.34
2996.00,97.33
2995.00,97.32
2994.00,97.30
2993.00,97.27
2992.00,97.22
2991.00,97.18
2990.00,97.15
2989.00,97.11
2988.00,97.08
2987.00,97.06
2986.00,97.04
2985.00,97.03
2984.00,97.02
2983.00,97.00
2982.00,96.98
2981.00,96.97
2980.00,96.95
2979.00,96.94
2978.00,96.94
2977.00,96.93
2976.00,96.92
2975.00,96.92
2974.00,96.91
2973.00,96.92
2972.00,96.92
2971.00,96.91
2970.00,96.91
2969.00,96.90
2968.00,96.90
2967.00,96.92
2966.00,96.95
2965.00,96.98
2964.00,97.01
2963.00,97.04
2962.00,97.05
2961.00,97.07
2960.00,97.10
2959.00,97.13
2958.00,97.16
2957.00,97.19
2956.00,97.20
2955.00,97.21
2954.00,97.21
2953.00,97.21
2952.00,97.19
2951.00,97.18
2950.00,97.16
2949.00,97.15
2948.00,97.13
2947.00,97.12
2946.00,97.10
2945.00,97.07
2944.00,97.03
2943.00,96.98
2942.00,96.93
2941.00,96.88
2940.00,96.84
2939.00,96.80
2938.00,96.76
2937.00,96.71
2936.00,96.66
2935.00,96.61
2934.00,96.58
2933.00,96.55
2932.00,96.52
2931.00,96.50
2930.00,96.48
2929.00,96.46
2928.00,96.46
2927.00,96.46
2926.00,96.48
2925.00,96.51
2924.00,96.53
2923.00,96.57
2922.00,96.61
2921.00,96.65
2920.00,96.69
2919.00,96.72
2918.00,96.77
2917.00,96.83
2916.00,96.90
2915.00,96.98
2914.00,97.05
2913.00,97.12
2912.00,97.19
2911.00,97.25
2910.00,97.29
2909.00,97.33
2908.00,97.37
2907.00,97.42
2906.00,97.47
2905.00,97.50
2904.00,97.53
2903.00,97.56
2902.00,97.58
2901.00,97.60
2900.00,97.62
2899.00,97.63
2898.00,97.64
2897.00,97.65
2896.00,97.66
2895.00,97.66
2894.00,97.66
2893.00,97.67
2892.00,97.68
2891.00,97.70
2890.00,97.72
2889.00,97.75
2888.00,97.77
2887.00,97.79
2886.00,97.80
2885.00,97.80
2884.00,97.78
2883.00,97.77
2882.00,97.76
2881.00,97.75
2880.00,97.74
2879.00,97.73
2878.00,97.71
2877.00,97.69
2876.00,97.68
2875.00,97.67
2874.00,97.66
2873.00,97.65
2872.00,97.65
2871.00,97.66
2870.00,97.68
2869.00,97.71
2868.00,97.74
2867.00,97.78
2866.00,97.81
2865.00,97.83
2864.00,97.84
2863.00,97.84
2862.00,97.83
2861.00,97.83
2860.00,97.82
2859.00,97.81
2858.00,97.80
2857.00,97.79
2856.00,97.78
2855.00,97.76
2854.00,97.75
2853.00,97.75
2852.00,97.76
2851.00,97.78
2850.00,97.82
2849.00,97.88
2848.00,97.94
2847.00,98.01
2846.00,98.08
2845.00,98.13
2844.00,98.18
2843.00,98.21
2842.00,98.24
2841.00,98.28
2840.00,98.31
2839.00,98.34
2838.00,98.37
2837.00,98.39
2836.00,98.41
2835.00,98.43
2834.00,98.44
2833.00,98.46
2832.00,98.47
2831.00,98.48
2830.00,98.49
2829.00,98.49
2828.00,98.49
2827.00,98.50
2826.00,98.52
2825.00,98.54
2824.00,98.55
2823.00,98.56
2822.00,98.56
2821.00,98.57
2820.00,98.57
2819.00,98.59
2818.00,98.60
2817.00,98.60
2816.00,98.60
2815.00,98.60
2814.00,98.60
2813.00,98.61
2812.00,98.63
2811.00,98.64
2810.00,98.64
2809.00,98.63
2808.00,98.62
2807.00,98.62
2806.00,98.63
2805.00,98.65
2804.00,98.66
2803.00,98.68
2802.00,98.69
2801.00,98.70
2800.00,98.70
2799.00,98.69
2798.00,98.68
2797.00,98.69
2796.00,98.70
2795.00,98.71
2794.00,98.72
2793.00,98.73
2792.00,98.74
2791.00,98.75
2790.00,98.76
2789.00,98.77
2788.00,98.79
2787.00,98.79
2786.00,98.79
2785.00,98.79
2784.00,98.80
2783.00,98.81
2782.00,98.83
2781.00,98.83
2780.00,98.83
2779.00,98.82
2778.00,98.81
2777.00,98.80
2776.00,98.79
2775.00,98.78
2774.00,98.80
2773.00,98.82
2772.00,98.85
2771.00,98.87
2770.00,98.87
2769.00,98.87
2768.00,98.86
2767.00,98.86
2766.00,98.86
2765.00,98.87
2764.00,98.87
2763.00,98.87
2762.00,98.86
2761.00,98.86
2760.00,98.87
2759.00,98.89
2758.00,98.90
2757.00,98.92
2756.00,98.93
2755.00,98.94
2754.00,98.95
2753.00,98.95
2752.00,98.95
2751.00,98.96
2750.00,98.97
2749.00,98.97
2748.00,98.97
2747.00,98.98
2746.00,98.99
2745.00,99.01
2744.00,99.02
2743.00,99.02
2742.00,99.01
2741.00,99.01
2740.00,99.00
2739.00,99.01
2738.00,99.01
2737.00,99.02
2736.00,99.03
2735.00,99.04
2734.00,99.05
2733.00,99.06
2732.00,99.06
2731.00,99.07
2730.00,99.08
2729.00,99.08
2728.00,99.07
2727.00,99.06
2726.00,99.05
2725.00,99.05
2724.00,99.06
2723.00,99.08
2722.00,99.11
2721.00,99.15
2720.00,99.18
2719.00,99.20
2718.00,99.22
2717.00,99.22
2716.00,99.21
2715.00,99.20
2714.00,99.19
2713.00,99.20
2712.00,99.21
2711.00,99.23
2710.00,99.24
2709.00,99.23
2708.00,99.21
2707.00,99.19
2706.00,99.18
2705.00,99.18
2704.00,99.19
2703.00,99.21
2702.00,99.23
2701.00,99.24
2700.00,99.25
2699.00,99.26
2698.00,99.27
2697.00,99.27
2696.00,99.26
2695.00,99.24
2694.00,99.23
2693.00,99.22
2692.00,99.22
2691.00,99.22
2690.00,99.23
2689.00,99.24
2688.00,99.24
2687.00,99.24
2686.00,99.23
2685.00,99.23
2684.00,99.23
2683.00,99.24
2682.00,99.25
2681.00,99.26
2680.00,99.27
2679.00,99.27
2678.00,99.27
2677.00,99.28
2676.00,99.29
2675.00,99.30
2674.00,99.31
2673.00,99.31
2672.00,99.31
2671.00,99.31
2670.00,99.31
2669.00,99.31
2668.00,99.31
2667.00,99.31
2666.00,99.32
2665.00,99.32
2664.00,99.32
2663.00,99.31
2662.00,99.31
2661.00,99.30
2660.00,99.30
2659.00,99.29
2658.00,99.28
2657.00,99.28
2656.00,99.29
2655.00,99.30
2654.00,99.30
2653.00,99.29
2652.00,99.28
2651.00,99.27
2650.00,99.26
2649.00,99.25
2648.00,99.25
2647.00,99.25
2646.00,99.25
2645.00,99.25
2644.00,99.25
2643.00,99.24
2642.00,99.24
2641.00,99.23
2640.00,99.23
2639.00,99.23
2638.00,99.23
2637.00,99.22
2636.00,99.20
2635.00,99.18
2634.00,99.17
2633.00,99.17
2632.00,99.18
2631.00,99.19
2630.00,99.19
2629.00,99.17
2628.00,99.14
2627.00,99.11
2626.00,99.08
2625.00,99.08
2624.00,99.09
2623.00,99.11
2622.00,99.14
2621.00,99.16
2620.00,99.16
2619.00,99.16
2618.00,99.14
2617.00,99.13
2616.00,99.12
2615.00,99.12
2614.00,99.11
2613.00,99.11
2612.00,99.12
2611.00,99.12
2610.00,99.12
2609.00,99.12
2608.00,99.11
2607.00,99.10
2606.00,99.08
2605.00,99.06
2604.00,99.05
2603.00,99.05
2602.00,99.06
2601.00,99.10
2600.00,99.14
2599.00,99.17
2598.00,99.18
2597.00,99.18
2596.00,99.17
2595.00,99.16
2594.00,99.14
2593.00,99.12
2592.00,99.11
2591.00,99.10
2590.00,99.10
2589.00,99.11
2588.00,99.11
2587.00,99.12
2586.00,99.12
2585.00,99.11
2584.00,99.09
2583.00,99.07
2582.00,99.06
2581.00,99.07
2580.00,99.07
2579.00,99.08
2578.00,99.09
2577.00,99.10
2576.00,99.12
2575.00,99.12
2574.00,99.11
2573.00,99.10
2572.00,99.09
2571.00,99.10
2570.00,99.10
2569.00,99.10
2568.00,99.10
2567.00,99.09
2566.00,99.09
2565.00,99.10
2564.00,99.12
2563.00,99.13
2562.00,99.14
2561.00,99.14
2560.00,99.14
2559.00,99.15
2558.00,99.16
2557.00,99.17
2556.00,99.18
2555.00,99.18
2554.00,99.17
2553.00,99.17
2552.00,99.18
2551.00,99.19
2550.00,99.18
2549.00,99.17
2548.00,99.16
2547.00,99.17
2546.00,99.17
2545.00,99.17
2544.00,99.16
2543.00,99.14
2542.00,99.14
2541.00,99.16
2540.00,99.18
2539.00,99.18
2538.00,99.18
2537.00,99.17
2536.00,99.17
2535.00,99.17
2534.00,99.18
2533.00,99.17
2532.00,99.15
2531.00,99.12
2530.00,99.09
2529.00,99.08
2528.00,99.09
2527.00,99.13
2526.00,99.15
2525.00,99.15
2524.00,99.14
2523.00,99.14
2522.00,99.13
2521.00,99.12
2520.00,99.11
2519.00,99.11
2518.00,99.11
2517.00,99.12
2516.00,99.12
2515.00,99.13
2514.00,99.14
2513.00,99.15
2512.00,99.16
2511.00,99.18
2510.00,99.19
2509.00,99.21
2508.00,99.22
2507.00,99.22
2506.00,99.22
2505.00,99.21
2504.00,99.21
2503.00,99.22
2502.00,99.22
2501.00,99.21
2500.00,99.20
2499.00,99.18
2498.00,99.16
2497.00,99.14
2496.00,99.13
2495.00,99.12
2494.00,99.13
2493.00,99.16
2492.00,99.19
2491.00,99.23
2490.00,99.23
2489.00,99.21
2488.00,99.18
2487.00,99.16
2486.00,99.16
2485.00,99.17
2484.00,99.18
2483.00,99.17
2482.00,99.17
2481.00,99.17
2480.00,99.19
2479.00,99.21
2478.00,99.22
2477.00,99.24
2476.00,99.24
2475.00,99.24
2474.00,99.22
2473.00,99.19
2472.00,99.17
2471.00,99.17
2470.00,99.18
2469.00,99.20
2468.00,99.20
2467.00,99.21
2466.00,99.21
2465.00,99.20
2464.00,99.20
2463.00,99.21
2462.00,99.21
2461.00,99.20
2460.00,99.20
2459.00,99.19
2458.00,99.18
2457.00,99.17
2456.00,99.17
2455.00,99.18
2454.00,99.19
2453.00,99.19
2452.00,99.19
2451.00,99.19
2450.00,99.19
2449.00,99.19
2448.00,99.18
2447.00,99.17
2446.00,99.16
2445.00,99.16
2444.00,99.18
2443.00,99.20
2442.00,99.22
2441.00,99.23
2440.00,99.23
2439.00,99.23
2438.00,99.23
2437.00,99.21
2436.00,99.19
2435.00,99.18
2434.00,99.16
2433.00,99.15
2432.00,99.14
2431.00,99.15
2430.00,99.17
2429.00,99.18
2428.00,99.19
2427.00,99.20
2426.00,99.21
2425.00,99.23
2424.00,99.25
2423.00,99.27
2422.00,99.28
2421.00,99.28
2420.00,99.27
2419.00,99.26
2418.00,99.26
2417.00,99.26
2416.00,99.27
2415.00,99.28
2414.00,99.29
2413.00,99.31
2412.00,99.32
2411.00,99.31
2410.00,99.29
2409.00,99.28
2408.00,99.28
2407.00,99.29
2406.00,99.31
2405.00,99.31
2404.00,99.30
2403.00,99.29
2402.00,99.31
2401.00,99.33
2400.00,99.35
2399.00,99.36
2398.00,99.36
2397.00,99.36
2396.00,99.36
2395.00,99.37
2394.00,99.39
2393.00,99.40
2392.00,99.40
2391.00,99.40
2390.00,99.40
2389.00,99.42
2388.00,99.45
2387.00,99.48
2386.00,99.51
2385.00,99.54
2384.00,99.57
2383.00,99.58
2382.00,99.58
2381.00,99.58
2380.00,99.60
2379.00,99.63
2378.00,99.68
2377.00,99.72
2376.00,99.75
2375.00,99.75
2374.00,99.73
2373.00,99.71
2372.00,99.72
2371.00,99.75
2370.00,99.77
2369.00,99.77
2368.00,99.74
2367.00,99.68
2366.00,99.64
2365.00,99.64
2364.00,99.69
2363.00,99.78
2362.00,99.83
2361.00,99.81
2360.00,99.76
2359.00,99.74
2358.00,99.76
2357.00,99.78
2356.00,99.78
2355.00,99.78
2354.00,99.78
2353.00,99.76
2352.00,99.74
2351.00,99.72
2350.00,99.74
2349.00,99.78
2348.00,99.83
2347.00,99.86
2346.00,99.86
2345.00,99.84
2344.00,99.83
2343.00,99.83
2342.00,99.81
2341.00,99.77
2340.00,99.73
2339.00,99.69
2338.00,99.68
2337.00,99.69
2336.00,99.71
2335.00,99.72
2334.00,99.71
2333.00,99.68
2332.00,99.65
2331.00,99.62
2330.00,99.58
2329.00,99.52
2328.00,99.47
2327.00,99.46
2326.00,99.48
2325.00,99.50
2324.00,99.51
2323.00,99.50
2322.00,99.46
2321.00,99.42
2320.00,99.39
2319.00,99.39
2318.00,99.39
2317.00,99.40
2316.00,99.41
2315.00,99.44
2314.00,99.47
2313.00,99.48
2312.00,99.47
2311.00,99.44
2310.00,99.41
2309.00,99.38
2308.00,99.37
2307.00,99.37
2306.00,99.39
2305.00,99.39
2304.00,99.37
2303.00,99.32
2302.00,99.26
2301.00,99.19
2300.00,99.15
2299.00,99.15
2298.00,99.17
2297.00,99.21
2296.00,99.22
2295.00,99.21
2294.00,99.18
2293.00,99.13
2292.00,99.09
2291.00,99.05
2290.00,99.01
2289.00,98.99
2288.00,98.98
2287.00,98.98
2286.00,98.97
2285.00,98.96
2284.00,98.94
2283.00,98.94
2282.00,98.95
2281.00,98.95
2280.00,98.93
2279.00,98.91
2278.00,98.88
2277.00,98.86
2276.00,98.84
2275.00,98.83
2274.00,98.82
2273.00,98.82
2272.00,98.80
2271.00,98.78
2270.00,98.78
2269.00,98.79
2268.00,98.82
2267.00,98.85
2266.00,98.84
2265.00,98.82
2264.00,98.79
2263.00,98.76
2262.00,98.75
2261.00,98.74
2260.00,98.74
2259.00,98.74
2258.00,98.75
2257.00,98.76
2256.00,98.76
2255.00,98.77
2254.00,98.78
2253.00,98.80
2252.00,98.80
2251.00,98.78
2250.00,98.72
2249.00,98.65
2248.00,98.61
2247.00,98.59
2246.00,98.59
2245.00,98.60
2244.00,98.63
2243.00,98.67
2242.00,98.69
2241.00,98.68
2240.00,98.65
2239.00,98.62
2238.00,98.62
2237.00,98.64
2236.00,98.67
2235.00,98.68
2234.00,98.67
2233.00,98.63
2232.00,98.60
2231.00,98.58
2230.00,98.58
2229.00,98.56
2228.00,98.52
2227.00,98.47
2226.00,98.44
2225.00,98.42
2224.00,98.39
2223.00,98.37
2222.00,98.38
2221.00,98.39
2220.00,98.39
2219.00,98.37
2218.00,98.36
2217.00,98.36
2216.00,98.36
2215.00,98.35
2214.00,98.33
2213.00,98.32
2212.00,98.33
2211.00,98.33
2210.00,98.34
2209.00,98.35
2208.00,98.38
2207.00,98.42
2206.00,98.42
2205.00,98.40
2204.00,98.35
2203.00,98.31
2202.00,98.27
2201.00,98.24
2200.00,98.23
2199.00,98.23
2198.00,98.22
2197.00,98.19
2196.00,98.15
2195.00,98.13
2194.00,98.13
2193.00,98.15
2192.00,98.19
2191.00,98.22
2190.00,98.24
2189.00,98.23
2188.00,98.18
2187.00,98.12
2186.00,98.07
2185.00,98.04
2184.00,98.05
2183.00,98.07
2182.00,98.07
2181.00,98.06
2180.00,98.03
2179.00,98.02
2178.00,98.02
2177.00,98.00
2176.00,97.95
2175.00,97.92
2174.00,97.93
2173.00,97.96
2172.00,97.99
2171.00,97.97
2170.00,97.93
2169.00,97.91
2168.00,97.92
2167.00,97.92
2166.00,97.89
2165.00,97.79
2164.00,97.68
2163.00,97.57
2162.00,97.50
2161.00,97.49
2160.00,97.57
2159.00,97.72
2158.00,97.87
2157.00,97.97
2156.00,98.03
2155.00,98.08
2154.00,98.12
2153.00,98.15
2152.00,98.20
2151.00,98.25
2150.00,98.31
2149.00,98.33
2148.00,98.32
2147.00,98.31
2146.00,98.33
2145.00,98.39
2144.00,98.46
2143.00,98.53
2142.00,98.58
2141.00,98.59
2140.00,98.59
2139.00,98.58
2138.00,98.57
2137.00,98.57
2136.00,98.60
2135.00,98.64
2134.00,98.67
2133.00,98.67
2132.00,98.65
2131.00,98.65
2130.00,98.67
2129.00,98.71
2128.00,98.73
2127.00,98.74
2126.00,98.76
2125.00,98.80
2124.00,98.83
2123.00,98.84
2122.00,98.82
2121.00,98.78
2120.00,98.76
2119.00,98.78
2118.00,98.82
2117.00,98.83
2116.00,98.82
2115.00,98.80
2114.00,98.78
2113.00,98.76
2112.00,98.76
2111.00,98.76
2110.00,98.76
2109.00,98.75
2108.00,98.75
2107.00,98.75
2106.00,98.75
2105.00,98.74
2104.00,98.72
2103.00,98.69
2102.00,98.68
2101.00,98.67
2100.00,98.68
2099.00,98.69
2098.00,98.71
2097.00,98.75
2096.00,98.79
2095.00,98.83
2094.00,98.85
2093.00,98.84
2092.00,98.82
2091.00,98.80
2090.00,98.78
2089.00,98.76
2088.00,98.73
2087.00,98.72
2086.00,98.74
2085.00,98.76
2084.00,98.77
2083.00,98.76
2082.00,98.72
2081.00,98.69
2080.00,98.65
2079.00,98.64
2078.00,98.64
2077.00,98.64
2076.00,98.64
2075.00,98.65
2074.00,98.64
2073.00,98.63
2072.00,98.61
2071.00,98.60
2070.00,98.60
2069.00,98.60
2068.00,98.61
2067.00,98.62
2066.00,98.63
2065.00,98.62
2064.00,98.61
2063.00,98.60
2062.00,98.59
2061.00,98.58
2060.00,98.56
2059.00,98.54
2058.00,98.51
2057.00,98.45
2056.00,98.42
2055.00,98.41
2054.00,98.43
2053.00,98.43
2052.00,98.41
2051.00,98.39
2050.00,98.35
2049.00,98.30
2048.00,98.25
2047.00,98.25
2046.00,98.28
2045.00,98.32
2044.00,98.30
2043.00,98.24
2042.00,98.16
2041.00,98.10
2040.00,98.08
2039.00,98.08
2038.00,98.05
2037.00,97.96
2036.00,97.85
2035.00,97.79
2034.00,97.84
2033.00,97.96
2032.00,98.09
2031.00,98.18
2030.00,98.23
2029.00,98.23
2028.00,98.20
2027.00,98.16
2026.00,98.12
2025.00,98.07
2024.00,98.04
2023.00,98.06
2022.00,98.12
2021.00,98.18
2020.00,98.21
2019.00,98.22
2018.00,98.22
2017.00,98.21
2016.00,98.16
2015.00,98.09
2014.00,98.03
2013.00,98.01
2012.00,98.01
2011.00,98.04
2010.00,98.09
2009.00,98.17
2008.00,98.28
2007.00,98.38
2006.00,98.44
2005.00,98.47
2004.00,98.49
2003.00,98.51
2002.00,98.52
2001.00,98.51
2000.00,98.47
1999.00,98.44
1998.00,98.41
1997.00,98.38
1996.00,98.35
1995.00,98.32
1994.00,98.29
1993.00,98.28
1992.00,98.29
1991.00,98.32
1990.00,98.34
1989.00,98.35
1988.00,98.34
1987.00,98.33
1986.00,98.31
1985.00,98.29
1984.00,98.27
1983.00,98.26
1982.00,98.23
1981.00,98.16
1980.00,98.09
1979.00,98.06
1978.00,98.10
1977.00,98.14
1976.00,98.15
1975.00,98.15
1974.00,98.18
1973.00,98.23
1972.00,98.30
1971.00,98.38
1970.00,98.45
1969.00,98.51
1968.00,98.56
1967.00,98.60
1966.00,98.63
1965.00,98.61
1964.00,98.56
1963.00,98.54
1962.00,98.56
1961.00,98.60
1960.00,98.65
1959.00,98.68
1958.00,98.69
1957.00,98.69
1956.00,98.68
1955.00,98.66
1954.00,98.66
1953.00,98.66
1952.00,98.67
1951.00,98.70
1950.00,98.72
1949.00,98.75
1948.00,98.78
1947.00,98.82
1946.00,98.85
1945.00,98.88
1944.00,98.92
1943.00,98.96
1942.00,98.99
1941.00,98.97
1940.00,98.94
1939.00,98.91
1938.00,98.90
1937.00,98.89
1936.00,98.88
1935.00,98.90
1934.00,98.93
1933.00,98.96
1932.00,98.98
1931.00,99.00
1930.00,99.02
1929.00,99.02
1928.00,99.02
1927.00,99.01
1926.00,99.02
1925.00,99.03
1924.00,99.05
1923.00,99.07
1922.00,99.11
1921.00,99.14
1920.00,99.17
1919.00,99.17
1918.00,99.16
1917.00,99.14
1916.00,99.12
1915.00,99.12
1914.00,99.14
1913.00,99.15
1912.00,99.15
1911.00,99.15
1910.00,99.13
1909.00,99.10
1908.00,99.09
1907.00,99.10
1906.00,99.12
1905.00,99.15
1904.00,99.18
1903.00,99.22
1902.00,99.27
1901.00,99.29
1900.00,99.30
1899.00,99.29
1898.00,99.26
1897.00,99.23
1896.00,99.20
1895.00,99.18
1894.00,99.20
1893.00,99.23
1892.00,99.25
1891.00,99.25
1890.00,99.24
1889.00,99.23
1888.00,99.24
1887.00,99.28
1886.00,99.30
1885.00,99.30
1884.00,99.28
1883.00,99.26
1882.00,99.25
1881.00,99.25
1880.00,99.26
1879.00,99.28
1878.00,99.29
1877.00,99.28
1876.00,99.28
1875.00,99.30
1874.00,99.32
1873.00,99.32
1872.00,99.31
1871.00,99.30
1870.00,99.31
1869.00,99.32
1868.00,99.33
1867.00,99.35
1866.00,99.38
1865.00,99.39
1864.00,99.39
1863.00,99.40
1862.00,99.40
1861.00,99.40
1860.00,99.39
1859.00,99.38
1858.00,99.39
1857.00,99.40
1856.00,99.41
1855.00,99.43
1854.00,99.44
1853.00,99.45
1852.00,99.46
1851.00,99.47
1850.00,99.48
1849.00,99.49
1848.00,99.48
1847.00,99.47
1846.00,99.46
1845.00,99.45
1844.00,99.45
1843.00,99.46
1842.00,99.48
1841.00,99.48
1840.00,99.47
1839.00,99.47
1838.00,99.49
1837.00,99.50
1836.00,99.52
1835.00,99.53
1834.00,99.55
1833.00,99.55
1832.00,99.54
1831.00,99.51
1830.00,99.49
1829.00,99.49
1828.00,99.49
1827.00,99.51
1826.00,99.52
1825.00,99.50
1824.00,99.48
1823.00,99.47
1822.00,99.48
1821.00,99.51
1820.00,99.55
1819.00,99.57
1818.00,99.59
1817.00,99.58
1816.00,99.57
1815.00,99.56
1814.00,99.55
1813.00,99.54
1812.00,99.52
1811.00,99.52
1810.00,99.53
1809.00,99.55
1808.00,99.57
1807.00,99.59
1806.00,99.61
1805.00,99.62
1804.00,99.62
1803.00,99.63
1802.00,99.64
1801.00,99.64
1800.00,99.62
1799.00,99.60
1798.00,99.58
1797.00,99.58
1796.00,99.58
1795.00,99.61
1794.00,99.64
1793.00,99.65
1792.00,99.65
1791.00,99.64
1790.00,99.63
1789.00,99.62
1788.00,99.61
1787.00,99.61
1786.00,99.60
1785.00,99.59
1784.00,99.57
1783.00,99.57
1782.00,99.57
1781.00,99.56
1780.00,99.54
1779.00,99.54
1778.00,99.56
1777.00,99.59
1776.00,99.60
1775.00,99.61
1774.00,99.60
1773.00,99.60
1772.00,99.59
1771.00,99.58
1770.00,99.58
1769.00,99.56
1768.00,99.54
1767.00,99.53
1766.00,99.52
1765.00,99.52
1764.00,99.52
1763.00,99.52
1762.00,99.52
1761.00,99.51
1760.00,99.51
1759.00,99.51
1758.00,99.51
1757.00,99.49
1756.00,99.47
1755.00,99.45
1754.00,99.45
1753.00,99.44
1752.00,99.43
1751.00,99.43
1750.00,99.42
1749.00,99.40
1748.00,99.37
1747.00,99.34
1746.00,99.34
1745.00,99.33
1744.00,99.33
1743.00,99.33
1742.00,99.34
1741.00,99.34
1740.00,99.32
1739.00,99.31
1738.00,99.30
1737.00,99.29
1736.00,99.27
1735.00,99.25
1734.00,99.24
1733.00,99.24
1732.00,99.25
1731.00,99.27
1730.00,99.27
1729.00,99.25
1728.00,99.21
1727.00,99.19
1726.00,99.17
1725.00,99.15
1724.00,99.11
1723.00,99.07
1722.00,99.04
1721.00,99.00
1720.00,98.92
1719.00,98.83
1718.00,98.76
1717.00,98.69
1716.00,98.61
1715.00,98.55
1714.00,98.47
1713.00,98.36
1712.00,98.22
1711.00,98.07
1710.00,97.91
1709.00,97.72
1708.00,97.49
1707.00,97.23
1706.00,96.91
1705.00,96.55
1704.00,96.18
1703.00,95.84
1702.00,95.47
1701.00,94.91
1700.00,94.24
1699.00,93.73
1698.00,93.42
1697.00,93.20
1696.00,93.06
1695.00,92.98
1694.00,92.95
1693.00,92.92
1692.00,92.86
1691.00,92.79
1690.00,92.71
1689.00,92.61
1688.00,92.47
1687.00,92.31
1686.00,92.14
1685.00,91.97
1684.00,91.81
1683.00,91.67
1682.00,91.52
1681.00,91.36
1680.00,91.19
1679.00,91.02
1678.00,90.85
1677.00,90.67
1676.00,90.43
1675.00,90.17
1674.00,89.94
1673.00,89.72
1672.00,89.51
1671.00,89.28
1670.00,89.04
1669.00,88.80
1668.00,88.56
1667.00,88.34
1666.00,88.13
1665.00,87.91
1664.00,87.67
1663.00,87.42
1662.00,87.18
1661.00,86.95
1660.00,86.72
1659.00,86.49
1658.00,86.27
1657.00,86.04
1656.00,85.79
1655.00,85.52
1654.00,85.25
1653.00,84.97
1652.00,84.72
1651.00,84.53
1650.00,84.36
1649.00,84.13
1648.00,83.85
1647.00,83.57
1646.00,83.32
1645.00,83.08
1644.00,82.82
1643.00,82.56
1642.00,82.28
1641.00,82.00
1640.00,81.72
1639.00,81.43
1638.00,81.14
1637.00,80.82
1636.00,80.49
1635.00,80.19
1634.00,79.94
1633.00,79.71
1632.00,79.49
1631.00,79.27
1630.00,79.08
1629.00,78.91
1628.00,78.75
1627.00,78.61
1626.00,78.51
1625.00,78.45
1624.00,78.44
1623.00,78.50
1622.00,78.60
1621.00,78.69
1620.00,78.76
1619.00,78.85
1618.00,79.05
1617.00,79.41
1616.00,79.81
1615.00,80.15
1614.00,80.42
1613.00,80.66
1612.00,80.94
1611.00,81.25
1610.00,81.62
1609.00,82.03
1608.00,82.45
1607.00,82.87
1606.00,83.27
1605.00,83.64
1604.00,83.99
1603.00,84.33
1602.00,84.66
1601.00,84.96
1600.00,85.24
1599.00,85.49
1598.00,85.71
1597.00,85.91
1596.00,86.10
1595.00,86.29
1594.00,86.47
1593.00,86.64
1592.00,86.81
1591.00,86.98
1590.00,87.12
1589.00,87.26
1588.00,87.39
1587.00,87.51
1586.00,87.60
1585.00,87.67
1584.00,87.72
1583.00,87.76
1582.00,87.77
1581.00,87.78
1580.00,87.76
1579.00,87.72
1578.00,87.66
1577.00,87.61
1576.00,87.60
1575.00,87.60
1574.00,87.56
1573.00,87.49
1572.00,87.41
1571.00,87.32
1570.00,87.20
1569.00,87.08
1568.00,86.95
1567.00,86.81
1566.00,86.65
1565.00,86.47
1564.00,86.30
1563.00,86.12
1562.00,85.94
1561.00,85.74
1560.00,85.50
1559.00,85.29
1558.00,85.10
1557.00,84.93
1556.00,84.77
1555.00,84.59
1554.00,84.41
1553.00,84.23
1552.00,84.05
1551.00,83.87
1550.00,83.68
1549.00,83.49
1548.00,83.32
1547.00,83.15
1546.00,82.95
1545.00,82.73
1544.00,82.52
1543.00,82.32
1542.00,82.10
1541.00,81.85
1540.00,81.62
1539.00,81.45
1538.00,81.31
1537.00,81.17
1536.00,81.01
1535.00,80.82
1534.00,80.60
1533.00,80.40
1532.00,80.21
1531.00,80.04
1530.00,79.85
1529.00,79.65
1528.00,79.45
1527.00,79.26
1526.00,79.07
1525.00,78.89
1524.00,78.70
1523.00,78.49
1522.00,78.28
1521.00,78.07
1520.00,77.89
1519.00,77.69
1518.00,77.47
1517.00,77.26
1516.00,77.09
1515.00,76.96
1514.00,76.86
1513.00,76.81
1512.00,76.81
1511.00,76.83
1510.00,76.84
1509.00,76.86
1508.00,76.97
1507.00,77.28
1506.00,77.65
1505.00,77.93
1504.00,78.12
1503.00,78.29
1502.00,78.47
1501.00,78.70
1500.00,78.96
1499.00,79.23
1498.00,79.54
1497.00,79.89
1496.00,80.28
1495.00,80.64
1494.00,80.95
1493.00,81.23
1492.00,81.53
1491.00,81.87
1490.00,82.25
1489.00,82.64
1488.00,82.99
1487.00,83.30
1486.00,83.60
1485.00,83.87
1484.00,84.12
1483.00,84.37
1482.00,84.63
1481.00,84.89
1480.00,85.12
1479.00,85.32
1478.00,85.50
1477.00,85.68
1476.00,85.83
1475.00,85.95
1474.00,86.05
1473.00,86.16
1472.00,86.28
1471.00,86.40
1470.00,86.49
1469.00,86.55
1468.00,86.60
1467.00,86.64
1466.00,86.68
1465.00,86.69
1464.00,86.67
1463.00,86.61
1462.00,86.52
1461.00,86.38
1460.00,86.20
1459.00,85.97
1458.00,85.72
1457.00,85.47
1456.00,85.27
1455.00,85.11
1454.00,84.99
1453.00,84.86
1452.00,84.74
1451.00,84.62
1450.00,84.49
1449.00,84.34
1448.00,84.19
1447.00,84.08
1446.00,84.01
1445.00,84.01
1444.00,84.06
1443.00,84.18
1442.00,84.35
1441.00,84.55
1440.00,84.75
1439.00,84.95
1438.00,85.18
1437.00,85.45
1436.00,85.75
1435.00,86.00
1434.00,86.20
1433.00,86.38
1432.00,86.55
1431.00,86.71
1430.00,86.86
1429.00,86.98
1428.00,87.08
1427.00,87.14
1426.00,87.19
1425.00,87.22
1424.00,87.24
1423.00,87.25
1422.00,87.24
1421.00,87.23
1420.00,87.21
1419.00,87.17
1418.00,87.14
1417.00,87.09
1416.00,87.04
1415.00,86.98
1414.00,86.91
1413.00,86.84
1412.00,86.76
1411.00,86.67
1410.00,86.57
1409.00,86.48
1408.00,86.39
1407.00,86.30
1406.00,86.21
1405.00,86.15
1404.00,86.08
1403.00,86.03
1402.00,85.98
1401.00,85.94
1400.00,85.92
1399.00,85.91
1398.00,85.90
1397.00,85.90
1396.00,85.91
1395.00,85.93
1394.00,85.95
1393.00,85.96
1392.00,85.97
1391.00,85.98
1390.00,86.00
1389.00,86.03
1388.00,86.09
1387.00,86.15
1386.00,86.22
1385.00,86.27
1384.00,86.32
1383.00,86.36
1382.00,86.40
1381.00,86.43
1380.00,86.46
1379.00,86.48
1378.00,86.50
1377.00,86.49
1376.00,86.45
1375.00,86.38
1374.00,86.31
1373.00,86.23
1372.00,86.18
1371.00,86.18
1370.00,86.23
1369.00,86.35
1368.00,86.52
1367.00,86.70
1366.00,86.87
1365.00,87.03
1364.00,87.18
1363.00,87.32
1362.00,87.45
1361.00,87.57
1360.00,87.68
1359.00,87.78
1358.00,87.90
1357.00,88.02
1356.00,88.15
1355.00,88.28
1354.00,88.38
1353.00,88.47
1352.00,88.55
1351.00,88.62
1350.00,88.67
1349.00,88.71
1348.00,88.73
1347.00,88.74
1346.00,88.75
1345.00,88.76
1344.00,88.76
1343.00,88.76
1342.00,88.75
1341.00,88.74
1340.00,88.72
1339.00,88.71
1338.00,88.69
1337.00,88.68
1336.00,88.68
1335.00,88.68
1334.00,88.70
1333.00,88.72
1332.00,88.75
1331.00,88.78
1330.00,88.80
1329.00,88.81
1328.00,88.83
1327.00,88.85
1326.00,88.87
1325.00,88.89
1324.00,88.90
1323.00,88.89
1322.00,88.87
1321.00,88.85
1320.00,88.82
1319.00,88.78
1318.00,88.76
1317.00,88.75
1316.00,88.76
1315.00,88.78
1314.00,88.82
1313.00,88.89
1312.00,88.97
1311.00,89.04
1310.00,89.10
1309.00,89.15
1308.00,89.21
1307.00,89.28
1306.00,89.35
1305.00,89.42
1304.00,89.49
1303.00,89.54
1302.00,89.59
1301.00,89.65
1300.00,89.71
1299.00,89.77
1298.00,89.83
1297.00,89.87
1296.00,89.90
1295.00,89.92
1294.00,89.93
1293.00,89.93
1292.00,89.93
1291.00,89.92
1290.00,89.91
1289.00,89.91
1288.00,89.90
1287.00,89.88
1286.00,89.86
1285.00,89.85
1284.00,89.85
1283.00,89.84
1282.00,89.81
1281.00,89.76
1280.00,89.71
1279.00,89.65
1278.00,89.60
1277.00,89.54
1276.00,89.47
1275.00,89.38
1274.00,89.29
1273.00,89.19
1272.00,89.10
1271.00,89.01
1270.00,88.92
1269.00,88.84
1268.00,88.76
1267.00,88.68
1266.00,88.60
1265.00,88.51
1264.00,88.44
1263.00,88.37
1262.00,88.31
1261.00,88.24
1260.00,88.16
1259.00,88.06
1258.00,87.97
1257.00,87.88
1256.00,87.77
1255.00,87.66
1254.00,87.54
1253.00,87.40
1252.00,87.26
1251.00,87.11
1250.00,86.97
1249.00,86.81
1248.00,86.65
1247.00,86.47
1246.00,86.28
1245.00,86.09
1244.00,85.91
1243.00,85.75
1242.00,85.61
1241.00,85.48
1240.00,85.36
1239.00,85.27
1238.00,85.20
1237.00,85.16
1236.00,85.14
1235.00,85.13
1234.00,85.13
1233.00,85.11
1232.00,85.10
1231.00,85.09
1230.00,85.08
1229.00,85.06
1228.00,85.03
1227.00,84.99
1226.00,84.93
1225.00,84.87
1224.00,84.80
1223.00,84.74
1222.00,84.69
1221.00,84.66
1220.00,84.66
1219.00,84.70
1218.00,84.79
1217.00,84.92
1216.00,85.07
1215.00,85.26
1214.00,85.47
1213.00,85.72
1212.00,86.00
1211.00,86.29
1210.00,86.57
1209.00,86.82
1208.00,87.07
1207.00,87.33
1206.00,87.59
1205.00,87.84
1204.00,88.08
1203.00,88.30
1202.00,88.50
1201.00,88.68
1200.00,88.84
1199.00,88.99
1198.00,89.11
1197.00,89.23
1196.00,89.35
1195.00,89.46
1194.00,89.56
1193.00,89.65
1192.00,89.73
1191.00,89.81
1190.00,89.86
1189.00,89.91
1188.00,89.93
1187.00,89.94
1186.00,89.93
1185.00,89.92
1184.00,89.88
1183.00,89.83
1182.00,89.75
1181.00,89.64
1180.00,89.48
1179.00,89.29
1178.00,89.08
1177.00,88.87
1176.00,88.65
1175.00,88.43
1174.00,88.23
1173.00,88.04
1172.00,87.88
1171.00,87.74
1170.00,87.62
1169.00,87.51
1168.00,87.42
1167.00,87.35
1166.00,87.31
1165.00,87.31
1164.00,87.34
1163.00,87.40
1162.00,87.49
1161.00,87.60
1160.00,87.72
1159.00,87.86
1158.00,88.01
1157.00,88.17
1156.00,88.34
1155.00,88.50
1154.00,88.67
1153.00,88.86
1152.00,89.05
1151.00,89.23
1150.00,89.40
1149.00,89.54
1148.00,89.66
1147.00,89.76
1146.00,89.87
1145.00,89.97
1144.00,90.07
1143.00,90.16
1142.00,90.24
1141.00,90.31
1140.00,90.38
1139.00,90.42
1138.00,90.46
1137.00,90.49
1136.00,90.53
1135.00,90.58
1134.00,90.64
1133.00,90.69
1132.00,90.74
1131.00,90.78
1130.00,90.82
1129.00,90.85
1128.00,90.87
1127.00,90.88
1126.00,90.88
1125.00,90.89
1124.00,90.90
1123.00,90.91
1122.00,90.91
1121.00,90.90
1120.00,90.88
1119.00,90.88
1118.00,90.88
1117.00,90.88
1116.00,90.87
1115.00,90.86
1114.00,90.85
1113.00,90.85
1112.00,90.86
1111.00,90.87
1110.00,90.88
1109.00,90.88
1108.00,90.89
1107.00,90.88
1106.00,90.87
1105.00,90.85
1104.00,90.83
1103.00,90.83
1102.00,90.85
1101.00,90.89
1100.00,90.92
1099.00,90.94
1098.00,90.93
1097.00,90.91
1096.00,90.89
1095.00,90.87
1094.00,90.83
1093.00,90.79
1092.00,90.73
1091.00,90.65
1090.00,90.58
1089.00,90.51
1088.00,90.45
1087.00,90.38
1086.00,90.30
1085.00,90.20
1084.00,90.11
1083.00,90.02
1082.00,89.92
1081.00,89.83
1080.00,89.75
1079.00,89.69
1078.00,89.64
1077.00,89.58
1076.00,89.52
1075.00,89.48
1074.00,89.44
1073.00,89.41
1072.00,89.37
1071.00,89.34
1070.00,89.33
1069.00,89.33
1068.00,89.31
1067.00,89.27
1066.00,89.23
1065.00,89.19
1064.00,89.16
1063.00,89.13
1062.00,89.08
1061.00,89.00
1060.00,88.89
1059.00,88.78
1058.00,88.67
1057.00,88.57
1056.00,88.45
1055.00,88.33
1054.00,88.23
1053.00,88.17
1052.00,88.12
1051.00,88.10
1050.00,88.12
1049.00,88.18
1048.00,88.29
1047.00,88.43
1046.00,88.57
1045.00,88.71
1044.00,88.85
1043.00,88.99
1042.00,89.13
1041.00,89.24
1040.00,89.31
1039.00,89.37
1038.00,89.43
1037.00,89.49
1036.00,89.54
1035.00,89.56
1034.00,89.56
1033.00,89.56
1032.00,89.58
1031.00,89.63
1030.00,89.68
1029.00,89.73
1028.00,89.75
1027.00,89.78
1026.00,89.83
1025.00,89.91
1024.00,90.00
1023.00,90.08
1022.00,90.14
1021.00,90.18
1020.00,90.21
1019.00,90.24
1018.00,90.30
1017.00,90.37
1016.00,90.46
1015.00,90.54
1014.00,90.59
1013.00,90.63
1012.00,90.68
1011.00,90.75
1010.00,90.84
1009.00,90.94
1008.00,91.03
1007.00,91.13
1006.00,91.21
1005.00,91.28
1004.00,91.33
1003.00,91.36
1002.00,91.39
1001.00,91.43
1000.00,91.50
999.00,91.59
998.00,91.68
997.00,91.75
996.00,91.82
995.00,91.89
994.00,91.96
993.00,92.03
992.00,92.09
991.00,92.15
990.00,92.18
989.00,92.22
988.00,92.27
987.00,92.32
986.00,92.37
985.00,92.40
984.00,92.42
983.00,92.45
982.00,92.46
981.00,92.45
980.00,92.41
979.00,92.34
978.00,92.27
977.00,92.19
976.00,92.08
975.00,91.92
974.00,91.71
973.00,91.42
972.00,91.05
971.00,90.59
970.00,90.08
969.00,89.53
968.00,89.00
967.00,88.51
966.00,88.11
965.00,87.85
964.00,87.75
963.00,87.83
962.00,88.04
961.00,88.36
960.00,88.70
959.00,89.06
958.00,89.40
957.00,89.73
956.00,90.04
955.00,90.32
954.00,90.56
953.00,90.74
952.00,90.89
951.00,91.01
950.00,91.12
949.00,91.21
948.00,91.30
947.00,91.39
946.00,91.46
945.00,91.50
944.00,91.53
943.00,91.56
942.00,91.58
941.00,91.58
940.00,91.58
939.00,91.57
938.00,91.58
937.00,91.60
936.00,91.61
935.00,91.59
934.00,91.55
933.00,91.49
932.00,91.43
931.00,91.38
930.00,91.35
929.00,91.35
928.00,91.37
927.00,91.38
926.00,91.39
925.00,91.40
924.00,91.43
923.00,91.49
922.00,91.57
921.00,91.67
920.00,91.77
919.00,91.86
918.00,91.95
917.00,92.01
916.00,92.06
915.00,92.11
914.00,92.16
913.00,92.21
912.00,92.24
911.00,92.27
910.00,92.29
909.00,92.29
908.00,92.28
907.00,92.25
906.00,92.20
905.00,92.17
904.00,92.13
903.00,92.10
902.00,92.08
901.00,92.07
900.00,92.09
899.00,92.11
898.00,92.15
897.00,92.19
896.00,92.23
895.00,92.28
894.00,92.33
893.00,92.37
892.00,92.40
891.00,92.42
890.00,92.42
889.00,92.41
888.00,92.41
887.00,92.41
886.00,92.42
885.00,92.42
884.00,92.42
883.00,92.43
882.00,92.44
881.00,92.43
880.00,92.42
879.00,92.38
878.00,92.35
877.00,92.33
876.00,92.33
875.00,92.34
874.00,92.37
873.00,92.40
872.00,92.44
871.00,92.46
870.00,92.47
869.00,92.46
868.00,92.46
867.00,92.46
866.00,92.47
865.00,92.48
864.00,92.48
863.00,92.48
862.00,92.47
861.00,92.45
860.00,92.43
859.00,92.40
858.00,92.34
857.00,92.26
856.00,92.19
855.00,92.12
854.00,92.06
853.00,91.99
852.00,91.93
851.00,91.88
850.00,91.85
849.00,91.85
848.00,91.88
847.00,91.93
846.00,91.94
845.00,91.90
844.00,91.82
843.00,91.74
842.00,91.69
841.00,91.64
840.00,91.58
839.00,91.49
838.00,91.39
837.00,91.31
836.00,91.25
835.00,91.22
834.00,91.18
833.00,91.12
832.00,91.05
831.00,90.99
830.00,90.93
829.00,90.88
828.00,90.85
827.00,90.85
826.00,90.87
825.00,90.89
824.00,90.90
823.00,90.90
822.00,90.89
821.00,90.86
820.00,90.83
819.00,90.80
818.00,90.77
817.00,90.76
816.00,90.76
815.00,90.77
814.00,90.78
813.00,90.77
812.00,90.70
811.00,90.61
810.00,90.53
809.00,90.49
808.00,90.49
807.00,90.50
806.00,90.48
805.00,90.43
804.00,90.35
803.00,90.28
802.00,90.25
801.00,90.24
800.00,90.22
799.00,90.18
798.00,90.12
797.00,90.05
796.00,89.99
795.00,89.94
794.00,89.90
793.00,89.86
792.00,89.80
791.00,89.71
790.00,89.60
789.00,89.47
788.00,89.32
787.00,89.14
786.00,88.96
785.00,88.78
784.00,88.59
783.00,88.41
782.00,88.24
781.00,88.12
780.00,88.04
779.00,88.00
778.00,87.97
777.00,87.94
776.00,87.90
775.00,87.86
774.00,87.84
773.00,87.81
772.00,87.79
771.00,87.77
770.00,87.76
769.00,87.76
768.00,87.76
767.00,87.76
766.00,87.73
765.00,87.67
764.00,87.61
763.00,87.57
762.00,87.56
761.00,87.55
760.00,87.54
759.00,87.52
758.00,87.48
757.00,87.42
756.00,87.35
755.00,87.30
754.00,87.27
753.00,87.24
752.00,87.18
751.00,87.10
750.00,87.03
749.00,86.97
748.00,86.92
747.00,86.88
746.00,86.84
745.00,86.82
744.00,86.82
743.00,86.83
742.00,86.84
741.00,86.81
740.00,86.76
739.00,86.69
738.00,86.62
737.00,86.54
736.00,86.44
735.00,86.32
734.00,86.21
733.00,86.11
732.00,86.02
731.00,85.93
730.00,85.83
729.00,85.69
728.00,85.53
727.00,85.37
726.00,85.20
725.00,85.00
724.00,84.77
723.00,84.54
722.00,84.31
721.00,84.07
720.00,83.79
719.00,83.48
718.00,83.17
717.00,82.84
716.00,82.51
715.00,82.20
714.00,81.90
713.00,81.62
712.00,81.31
711.00,80.98
710.00,80.66
709.00,80.39
708.00,80.14
707.00,79.89
706.00,79.65
705.00,79.41
704.00,79.19
703.00,79.02
702.00,78.87
701.00,78.74
700.00,78.61
699.00,78.51
698.00,78.43
697.00,78.36
696.00,78.28
695.00,78.21
694.00,78.16
693.00,78.15
692.00,78.13
691.00,78.08
690.00,78.00
689.00,77.90
688.00,77.83
687.00,77.80
686.00,77.82
685.00,77.85
684.00,77.88
683.00,77.90
682.00,77.92
681.00,77.91
680.00,77.84
679.00,77.76
678.00,77.70
677.00,77.69
676.00,77.74
675.00,77.81
674.00,77.84
673.00,77.81
672.00,77.76
671.00,77.74
670.00,77.77
669.00,77.81
668.00,77.75
667.00,77.65
666.00,77.66
665.00,77.73
664.00,77.81
663.00,77.87
662.00,77.89
661.00,77.88
660.00,77.85
659.00,77.84
658.00,77.82
657.00,77.79
656.00,77.75
655.00,77.74
654.00,77.75
653.00,77.74
652.00,77.71
651.00,77.68
650.00,77.68
649.00,77.67
648.00,77.64
647.00,77.63
646.00,77.67
645.00,77.74
644.00,77.79
643.00,77.81
642.00,77.79
641.00,77.76
640.00,77.74
639.00,77.73
638.00,77.69
637.00,77.59
636.00,77.44
635.00,77.31
634.00,77.20
633.00,77.09
632.00,76.98
631.00,76.93
630.00,76.89
629.00,76.71
628.00,76.39
627.00,76.03
626.00,75.75
625.00,75.53
624.00,75.35
623.00,75.22
622.00,75.13
621.00,75.01
620.00,74.82
619.00,74.67
618.00,74.66
617.00,74.71
616.00,74.67
615.00,74.51
614.00,74.30
613.00,74.14
612.00,74.19
611.00,74.54
610.00,74.99
609.00,75.28
608.00,75.36
607.00,75.38
606.00,75.43
605.00,75.37
604.00,75.14
603.00,74.85
602.00,74.66
601.00,74.62
600.00,74.77
599.00,75.11
598.00,75.49
597.00,75.71
596.00,75.70
595.00,75.63
594.00,75.61
593.00,75.54
592.00,75.32
591.00,75.08
590.00,75.02
589.00,75.07
588.00,75.11
587.00,75.15
586.00,75.18
585.00,75.15
584.00,75.03
583.00,74.96
582.00,75.01
581.00,75.04
580.00,74.99
579.00,74.95
578.00,75.01
577.00,75.03
576.00,74.98
575.00,74.96
574.00,74.97
573.00,74.79
572.00,74.44
571.00,74.27
570.00,74.47
569.00,74.72
568.00,74.70
567.00,74.50
566.00,74.32
565.00,74.19
564.00,74.14
563.00,74.29
562.00,74.50
561.00,74.47
560.00,74.15
559.00,73.88
558.00,73.85
557.00,73.81
556.00,73.66
555.00,73.67
554.00,73.99
553.00,74.32
552.00,74.36
551.00,74.26
550.00,74.25
