Created as New Dataset,16.3 Bombyx mori, yarn
cm-1,%T
4000.00,99.57
3999.00,99.57
3998.00,99.56
3997.00,99.56
3996.00,99.56
3995.00,99.56
3994.00,99.57
3993.00,99.58
3992.00,99.59
3991.00,99.60
3990.00,99.59
3989.00,99.59
3988.00,99.59
3987.00,99.60
3986.00,99.60
3985.00,99.59
3984.00,99.57
3983.00,99.54
3982.00,99.53
3981.00,99.53
3980.00,99.54
3979.00,99.56
3978.00,99.57
3977.00,99.58
3976.00,99.58
3975.00,99.58
3974.00,99.58
3973.00,99.58
3972.00,99.58
3971.00,99.58
3970.00,99.59
3969.00,99.59
3968.00,99.59
3967.00,99.59
3966.00,99.59
3965.00,99.59
3964.00,99.59
3963.00,99.59
3962.00,99.60
3961.00,99.61
3960.00,99.62
3959.00,99.62
3958.00,99.62
3957.00,99.62
3956.00,99.62
3955.00,99.62
3954.00,99.63
3953.00,99.63
3952.00,99.63
3951.00,99.62
3950.00,99.61
3949.00,99.60
3948.00,99.59
3947.00,99.59
3946.00,99.59
3945.00,99.59
3944.00,99.60
3943.00,99.61
3942.00,99.61
3941.00,99.59
3940.00,99.58
3939.00,99.57
3938.00,99.57
3937.00,99.57
3936.00,99.56
3935.00,99.54
3934.00,99.52
3933.00,99.51
3932.00,99.51
3931.00,99.52
3930.00,99.53
3929.00,99.55
3928.00,99.55
3927.00,99.55
3926.00,99.55
3925.00,99.54
3924.00,99.54
3923.00,99.53
3922.00,99.53
3921.00,99.53
3920.00,99.53
3919.00,99.54
3918.00,99.54
3917.00,99.55
3916.00,99.56
3915.00,99.58
3914.00,99.59
3913.00,99.60
3912.00,99.60
3911.00,99.60
3910.00,99.59
3909.00,99.57
3908.00,99.54
3907.00,99.51
3906.00,99.50
3905.00,99.50
3904.00,99.51
3903.00,99.50
3902.00,99.50
3901.00,99.50
3900.00,99.53
3899.00,99.56
3898.00,99.57
3897.00,99.58
3896.00,99.57
3895.00,99.55
3894.00,99.54
3893.00,99.55
3892.00,99.56
3891.00,99.57
3890.00,99.56
3889.00,99.53
3888.00,99.50
3887.00,99.50
3886.00,99.51
3885.00,99.52
3884.00,99.50
3883.00,99.47
3882.00,99.46
3881.00,99.46
3880.00,99.47
3879.00,99.48
3878.00,99.47
3877.00,99.48
3876.00,99.49
3875.00,99.50
3874.00,99.50
3873.00,99.49
3872.00,99.48
3871.00,99.49
3870.00,99.51
3869.00,99.50
3868.00,99.48
3867.00,99.48
3866.00,99.50
3865.00,99.54
3864.00,99.54
3863.00,99.51
3862.00,99.49
3861.00,99.48
3860.00,99.49
3859.00,99.49
3858.00,99.48
3857.00,99.46
3856.00,99.43
3855.00,99.44
3854.00,99.44
3853.00,99.43
3852.00,99.41
3851.00,99.41
3850.00,99.43
3849.00,99.47
3848.00,99.50
3847.00,99.52
3846.00,99.53
3845.00,99.53
3844.00,99.53
3843.00,99.52
3842.00,99.50
3841.00,99.48
3840.00,99.48
3839.00,99.49
3838.00,99.50
3837.00,99.49
3836.00,99.48
3835.00,99.48
3834.00,99.48
3833.00,99.49
3832.00,99.50
3831.00,99.50
3830.00,99.50
3829.00,99.51
3828.00,99.52
3827.00,99.54
3826.00,99.53
3825.00,99.50
3824.00,99.46
3823.00,99.44
3822.00,99.45
3821.00,99.46
3820.00,99.44
3819.00,99.41
3818.00,99.40
3817.00,99.43
3816.00,99.47
3815.00,99.48
3814.00,99.47
3813.00,99.46
3812.00,99.46
3811.00,99.46
3810.00,99.45
3809.00,99.45
3808.00,99.46
3807.00,99.48
3806.00,99.47
3805.00,99.45
3804.00,99.42
3803.00,99.43
3802.00,99.46
3801.00,99.47
3800.00,99.45
3799.00,99.43
3798.00,99.43
3797.00,99.45
3796.00,99.47
3795.00,99.49
3794.00,99.51
3793.00,99.53
3792.00,99.55
3791.00,99.55
3790.00,99.55
3789.00,99.53
3788.00,99.52
3787.00,99.50
3786.00,99.50
3785.00,99.50
3784.00,99.50
3783.00,99.50
3782.00,99.49
3781.00,99.49
3780.00,99.49
3779.00,99.49
3778.00,99.49
3777.00,99.48
3776.00,99.47
3775.00,99.47
3774.00,99.47
3773.00,99.46
3772.00,99.46
3771.00,99.45
3770.00,99.45
3769.00,99.43
3768.00,99.42
3767.00,99.43
3766.00,99.44
3765.00,99.45
3764.00,99.43
3763.00,99.40
3762.00,99.37
3761.00,99.37
3760.00,99.39
3759.00,99.41
3758.00,99.42
3757.00,99.43
3756.00,99.42
3755.00,99.41
3754.00,99.38
3753.00,99.36
3752.00,99.33
3751.00,99.31
3750.00,99.30
3749.00,99.29
3748.00,99.27
3747.00,99.24
3746.00,99.26
3745.00,99.31
3744.00,99.36
3743.00,99.36
3742.00,99.35
3741.00,99.35
3740.00,99.37
3739.00,99.38
3738.00,99.38
3737.00,99.38
3736.00,99.36
3735.00,99.35
3734.00,99.34
3733.00,99.36
3732.00,99.38
3731.00,99.38
3730.00,99.38
3729.00,99.36
3728.00,99.36
3727.00,99.37
3726.00,99.38
3725.00,99.37
3724.00,99.36
3723.00,99.35
3722.00,99.35
3721.00,99.35
3720.00,99.36
3719.00,99.36
3718.00,99.36
3717.00,99.35
3716.00,99.32
3715.00,99.29
3714.00,99.28
3713.00,99.28
3712.00,99.28
3711.00,99.27
3710.00,99.26
3709.00,99.26
3708.00,99.27
3707.00,99.29
3706.00,99.30
3705.00,99.30
3704.00,99.30
3703.00,99.31
3702.00,99.32
3701.00,99.33
3700.00,99.33
3699.00,99.34
3698.00,99.34
3697.00,99.34
3696.00,99.34
3695.00,99.34
3694.00,99.32
3693.00,99.30
3692.00,99.28
3691.00,99.26
3690.00,99.24
3689.00,99.24
3688.00,99.24
3687.00,99.24
3686.00,99.23
3685.00,99.23
3684.00,99.23
3683.00,99.23
3682.00,99.23
3681.00,99.21
3680.00,99.19
3679.00,99.15
3678.00,99.10
3677.00,99.07
3676.00,99.08
3675.00,99.08
3674.00,99.08
3673.00,99.06
3672.00,99.05
3671.00,99.07
3670.00,99.09
3669.00,99.10
3668.00,99.10
3667.00,99.11
3666.00,99.12
3665.00,99.13
3664.00,99.12
3663.00,99.10
3662.00,99.08
3661.00,99.06
3660.00,99.05
3659.00,99.03
3658.00,99.02
3657.00,99.00
3656.00,98.98
3655.00,98.95
3654.00,98.92
3653.00,98.89
3652.00,98.88
3651.00,98.87
3650.00,98.84
3649.00,98.80
3648.00,98.78
3647.00,98.79
3646.00,98.80
3645.00,98.80
3644.00,98.80
3643.00,98.80
3642.00,98.81
3641.00,98.83
3640.00,98.84
3639.00,98.84
3638.00,98.83
3637.00,98.80
3636.00,98.76
3635.00,98.73
3634.00,98.69
3633.00,98.66
3632.00,98.61
3631.00,98.58
3630.00,98.58
3629.00,98.57
3628.00,98.56
3627.00,98.53
3626.00,98.52
3625.00,98.52
3624.00,98.53
3623.00,98.52
3622.00,98.50
3621.00,98.47
3620.00,98.45
3619.00,98.43
3618.00,98.41
3617.00,98.39
3616.00,98.37
3615.00,98.36
3614.00,98.34
3613.00,98.33
3612.00,98.30
3611.00,98.27
3610.00,98.25
3609.00,98.24
3608.00,98.23
3607.00,98.22
3606.00,98.21
3605.00,98.19
3604.00,98.18
3603.00,98.17
3602.00,98.16
3601.00,98.15
3600.00,98.14
3599.00,98.13
3598.00,98.12
3597.00,98.10
3596.00,98.08
3595.00,98.07
3594.00,98.06
3593.00,98.04
3592.00,98.00
3591.00,97.96
3590.00,97.94
3589.00,97.94
3588.00,97.95
3587.00,97.95
3586.00,97.93
3585.00,97.90
3584.00,97.87
3583.00,97.86
3582.00,97.85
3581.00,97.84
3580.00,97.83
3579.00,97.80
3578.00,97.78
3577.00,97.76
3576.00,97.74
3575.00,97.72
3574.00,97.70
3573.00,97.68
3572.00,97.64
3571.00,97.61
3570.00,97.56
3569.00,97.52
3568.00,97.49
3567.00,97.46
3566.00,97.44
3565.00,97.41
3564.00,97.39
3563.00,97.37
3562.00,97.36
3561.00,97.35
3560.00,97.34
3559.00,97.33
3558.00,97.31
3557.00,97.28
3556.00,97.25
3555.00,97.24
3554.00,97.23
3553.00,97.22
3552.00,97.21
3551.00,97.18
3550.00,97.14
3549.00,97.12
3548.00,97.09
3547.00,97.08
3546.00,97.06
3545.00,97.04
3544.00,97.02
3543.00,97.00
3542.00,96.98
3541.00,96.96
3540.00,96.94
3539.00,96.93
3538.00,96.92
3537.00,96.91
3536.00,96.89
3535.00,96.87
3534.00,96.84
3533.00,96.81
3532.00,96.79
3531.00,96.76
3530.00,96.73
3529.00,96.71
3528.00,96.69
3527.00,96.67
3526.00,96.65
3525.00,96.63
3524.00,96.61
3523.00,96.59
3522.00,96.57
3521.00,96.55
3520.00,96.53
3519.00,96.53
3518.00,96.53
3517.00,96.52
3516.00,96.50
3515.00,96.48
3514.00,96.45
3513.00,96.42
3512.00,96.39
3511.00,96.36
3510.00,96.36
3509.00,96.36
3508.00,96.36
3507.00,96.34
3506.00,96.30
3505.00,96.25
3504.00,96.21
3503.00,96.19
3502.00,96.18
3501.00,96.18
3500.00,96.18
3499.00,96.17
3498.00,96.16
3497.00,96.15
3496.00,96.13
3495.00,96.11
3494.00,96.09
3493.00,96.07
3492.00,96.05
3491.00,96.04
3490.00,96.03
3489.00,96.01
3488.00,95.98
3487.00,95.96
3486.00,95.94
3485.00,95.93
3484.00,95.93
3483.00,95.93
3482.00,95.93
3481.00,95.92
3480.00,95.90
3479.00,95.89
3478.00,95.87
3477.00,95.86
3476.00,95.85
3475.00,95.84
3474.00,95.81
3473.00,95.78
3472.00,95.74
3471.00,95.72
3470.00,95.71
3469.00,95.72
3468.00,95.73
3467.00,95.73
3466.00,95.72
3465.00,95.69
3464.00,95.66
3463.00,95.63
3462.00,95.62
3461.00,95.62
3460.00,95.61
3459.00,95.60
3458.00,95.57
3457.00,95.55
3456.00,95.53
3455.00,95.53
3454.00,95.52
3453.00,95.52
3452.00,95.50
3451.00,95.48
3450.00,95.45
3449.00,95.43
3448.00,95.42
3447.00,95.42
3446.00,95.42
3445.00,95.41
3444.00,95.39
3443.00,95.36
3442.00,95.33
3441.00,95.30
3440.00,95.28
3439.00,95.25
3438.00,95.23
3437.00,95.21
3436.00,95.20
3435.00,95.19
3434.00,95.18
3433.00,95.17
3432.00,95.17
3431.00,95.17
3430.00,95.16
3429.00,95.14
3428.00,95.11
3427.00,95.08
3426.00,95.05
3425.00,95.03
3424.00,95.00
3423.00,94.97
3422.00,94.94
3421.00,94.91
3420.00,94.88
3419.00,94.86
3418.00,94.83
3417.00,94.81
3416.00,94.79
3415.00,94.76
3414.00,94.74
3413.00,94.71
3412.00,94.69
3411.00,94.66
3410.00,94.64
3409.00,94.61
3408.00,94.58
3407.00,94.56
3406.00,94.53
3405.00,94.50
3404.00,94.49
3403.00,94.47
3402.00,94.46
3401.00,94.44
3400.00,94.42
3399.00,94.39
3398.00,94.36
3397.00,94.33
3396.00,94.30
3395.00,94.28
3394.00,94.25
3393.00,94.22
3392.00,94.20
3391.00,94.16
3390.00,94.13
3389.00,94.09
3388.00,94.07
3387.00,94.05
3386.00,94.05
3385.00,94.05
3384.00,94.04
3383.00,94.02
3382.00,94.00
3381.00,93.97
3380.00,93.94
3379.00,93.89
3378.00,93.85
3377.00,93.81
3376.00,93.78
3375.00,93.76
3374.00,93.74
3373.00,93.71
3372.00,93.68
3371.00,93.63
3370.00,93.59
3369.00,93.55
3368.00,93.52
3367.00,93.48
3366.00,93.44
3365.00,93.40
3364.00,93.35
3363.00,93.31
3362.00,93.27
3361.00,93.24
3360.00,93.21
3359.00,93.18
3358.00,93.15
3357.00,93.12
3356.00,93.08
3355.00,93.01
3354.00,92.94
3353.00,92.86
3352.00,92.80
3351.00,92.75
3350.00,92.70
3349.00,92.65
3348.00,92.58
3347.00,92.52
3346.00,92.45
3345.00,92.38
3344.00,92.32
3343.00,92.25
3342.00,92.18
3341.00,92.10
3340.00,92.01
3339.00,91.91
3338.00,91.81
3337.00,91.71
3336.00,91.62
3335.00,91.53
3334.00,91.43
3333.00,91.32
3332.00,91.21
3331.00,91.09
3330.00,90.98
3329.00,90.87
3328.00,90.76
3327.00,90.65
3326.00,90.53
3325.00,90.40
3324.00,90.27
3323.00,90.13
3322.00,90.00
3321.00,89.87
3320.00,89.74
3319.00,89.60
3318.00,89.46
3317.00,89.32
3316.00,89.18
3315.00,89.04
3314.00,88.90
3313.00,88.75
3312.00,88.61
3311.00,88.46
3310.00,88.31
3309.00,88.15
3308.00,87.99
3307.00,87.82
3306.00,87.66
3305.00,87.50
3304.00,87.35
3303.00,87.20
3302.00,87.04
3301.00,86.89
3300.00,86.74
3299.00,86.62
3298.00,86.50
3297.00,86.37
3296.00,86.24
3295.00,86.10
3294.00,85.97
3293.00,85.85
3292.00,85.73
3291.00,85.62
3290.00,85.52
3289.00,85.42
3288.00,85.33
3287.00,85.25
3286.00,85.19
3285.00,85.14
3284.00,85.10
3283.00,85.08
3282.00,85.07
3281.00,85.06
3280.00,85.06
3279.00,85.07
3278.00,85.09
3277.00,85.12
3276.00,85.15
3275.00,85.19
3274.00,85.25
3273.00,85.33
3272.00,85.41
3271.00,85.50
3270.00,85.59
3269.00,85.68
3268.00,85.77
3267.00,85.88
3266.00,85.99
3265.00,86.10
3264.00,86.22
3263.00,86.34
3262.00,86.47
3261.00,86.61
3260.00,86.74
3259.00,86.88
3258.00,87.01
3257.00,87.14
3256.00,87.26
3255.00,87.37
3254.00,87.47
3253.00,87.57
3252.00,87.67
3251.00,87.77
3250.00,87.88
3249.00,88.00
3248.00,88.11
3247.00,88.23
3246.00,88.33
3245.00,88.42
3244.00,88.51
3243.00,88.59
3242.00,88.68
3241.00,88.77
3240.00,88.85
3239.00,88.93
3238.00,89.00
3237.00,89.08
3236.00,89.15
3235.00,89.22
3234.00,89.30
3233.00,89.38
3232.00,89.45
3231.00,89.52
3230.00,89.60
3229.00,89.67
3228.00,89.74
3227.00,89.81
3226.00,89.86
3225.00,89.91
3224.00,89.97
3223.00,90.02
3222.00,90.08
3221.00,90.14
3220.00,90.20
3219.00,90.26
3218.00,90.32
3217.00,90.38
3216.00,90.44
3215.00,90.49
3214.00,90.55
3213.00,90.61
3212.00,90.67
3211.00,90.73
3210.00,90.79
3209.00,90.84
3208.00,90.90
3207.00,90.95
3206.00,91.00
3205.00,91.05
3204.00,91.11
3203.00,91.16
3202.00,91.21
3201.00,91.26
3200.00,91.31
3199.00,91.37
3198.00,91.43
3197.00,91.48
3196.00,91.53
3195.00,91.58
3194.00,91.65
3193.00,91.71
3192.00,91.78
3191.00,91.84
3190.00,91.89
3189.00,91.93
3188.00,91.97
3187.00,92.02
3186.00,92.08
3185.00,92.13
3184.00,92.19
3183.00,92.24
3182.00,92.28
3181.00,92.33
3180.00,92.37
3179.00,92.41
3178.00,92.46
3177.00,92.51
3176.00,92.56
3175.00,92.61
3174.00,92.65
3173.00,92.69
3172.00,92.73
3171.00,92.77
3170.00,92.81
3169.00,92.85
3168.00,92.89
3167.00,92.93
3166.00,92.98
3165.00,93.03
3164.00,93.08
3163.00,93.12
3162.00,93.16
3161.00,93.20
3160.00,93.24
3159.00,93.28
3158.00,93.32
3157.00,93.35
3156.00,93.37
3155.00,93.41
3154.00,93.45
3153.00,93.49
3152.00,93.53
3151.00,93.56
3150.00,93.58
3149.00,93.60
3148.00,93.62
3147.00,93.65
3146.00,93.67
3145.00,93.69
3144.00,93.72
3143.00,93.76
3142.00,93.79
3141.00,93.83
3140.00,93.85
3139.00,93.87
3138.00,93.87
3137.00,93.87
3136.00,93.87
3135.00,93.89
3134.00,93.91
3133.00,93.95
3132.00,93.99
3131.00,94.02
3130.00,94.03
3129.00,94.04
3128.00,94.05
3127.00,94.06
3126.00,94.07
3125.00,94.07
3124.00,94.07
3123.00,94.08
3122.00,94.08
3121.00,94.09
3120.00,94.08
3119.00,94.08
3118.00,94.07
3117.00,94.06
3116.00,94.05
3115.00,94.03
3114.00,94.03
3113.00,94.02
3112.00,94.01
3111.00,94.01
3110.00,94.00
3109.00,93.99
3108.00,93.98
3107.00,93.98
3106.00,93.98
3105.00,93.97
3104.00,93.96
3103.00,93.95
3102.00,93.94
3101.00,93.93
3100.00,93.92
3099.00,93.91
3098.00,93.90
3097.00,93.88
3096.00,93.86
3095.00,93.84
3094.00,93.81
3093.00,93.79
3092.00,93.77
3091.00,93.77
3090.00,93.76
3089.00,93.74
3088.00,93.72
3087.00,93.69
3086.00,93.67
3085.00,93.65
3084.00,93.63
3083.00,93.62
3082.00,93.62
3081.00,93.62
3080.00,93.63
3079.00,93.63
3078.00,93.62
3077.00,93.60
3076.00,93.59
3075.00,93.58
3074.00,93.57
3073.00,93.58
3072.00,93.59
3071.00,93.61
3070.00,93.62
3069.00,93.64
3068.00,93.65
3067.00,93.66
3066.00,93.66
3065.00,93.66
3064.00,93.67
3063.00,93.68
3062.00,93.69
3061.00,93.70
3060.00,93.72
3059.00,93.74
3058.00,93.76
3057.00,93.78
3056.00,93.81
3055.00,93.85
3054.00,93.89
3053.00,93.93
3052.00,93.96
3051.00,93.99
3050.00,94.02
3049.00,94.05
3048.00,94.08
3047.00,94.11
3046.00,94.14
3045.00,94.17
3044.00,94.22
3043.00,94.26
3042.00,94.31
3041.00,94.34
3040.00,94.37
3039.00,94.39
3038.00,94.42
3037.00,94.44
3036.00,94.47
3035.00,94.50
3034.00,94.53
3033.00,94.57
3032.00,94.60
3031.00,94.63
3030.00,94.64
3029.00,94.66
3028.00,94.68
3027.00,94.70
3026.00,94.73
3025.00,94.77
3024.00,94.80
3023.00,94.83
3022.00,94.85
3021.00,94.88
3020.00,94.89
3019.00,94.91
3018.00,94.91
3017.00,94.92
3016.00,94.93
3015.00,94.95
3014.00,94.97
3013.00,94.99
3012.00,95.00
3011.00,95.00
3010.00,94.99
3009.00,94.97
3008.00,94.96
3007.00,94.96
3006.00,94.97
3005.00,94.98
3004.00,94.99
3003.00,94.99
3002.00,94.97
3001.00,94.95
3000.00,94.93
2999.00,94.90
2998.00,94.88
2997.00,94.85
2996.00,94.82
2995.00,94.78
2994.00,94.75
2993.00,94.72
2992.00,94.69
2991.00,94.66
2990.00,94.63
2989.00,94.60
2988.00,94.57
2987.00,94.55
2986.00,94.52
2985.00,94.50
2984.00,94.48
2983.00,94.45
2982.00,94.42
2981.00,94.40
2980.00,94.37
2979.00,94.35
2978.00,94.33
2977.00,94.32
2976.00,94.31
2975.00,94.31
2974.00,94.30
2973.00,94.28
2972.00,94.27
2971.00,94.26
2970.00,94.26
2969.00,94.26
2968.00,94.26
2967.00,94.26
2966.00,94.25
2965.00,94.25
2964.00,94.26
2963.00,94.29
2962.00,94.31
2961.00,94.34
2960.00,94.35
2959.00,94.36
2958.00,94.35
2957.00,94.35
2956.00,94.35
2955.00,94.36
2954.00,94.38
2953.00,94.39
2952.00,94.40
2951.00,94.39
2950.00,94.37
2949.00,94.35
2948.00,94.31
2947.00,94.28
2946.00,94.23
2945.00,94.19
2944.00,94.14
2943.00,94.09
2942.00,94.03
2941.00,93.97
2940.00,93.91
2939.00,93.85
2938.00,93.79
2937.00,93.72
2936.00,93.65
2935.00,93.59
2934.00,93.54
2933.00,93.50
2932.00,93.48
2931.00,93.46
2930.00,93.44
2929.00,93.43
2928.00,93.41
2927.00,93.40
2926.00,93.39
2925.00,93.39
2924.00,93.39
2923.00,93.39
2922.00,93.40
2921.00,93.41
2920.00,93.44
2919.00,93.48
2918.00,93.53
2917.00,93.59
2916.00,93.67
2915.00,93.77
2914.00,93.87
2913.00,93.97
2912.00,94.07
2911.00,94.16
2910.00,94.24
2909.00,94.31
2908.00,94.37
2907.00,94.42
2906.00,94.46
2905.00,94.50
2904.00,94.54
2903.00,94.57
2902.00,94.61
2901.00,94.64
2900.00,94.66
2899.00,94.69
2898.00,94.73
2897.00,94.76
2896.00,94.79
2895.00,94.82
2894.00,94.84
2893.00,94.85
2892.00,94.86
2891.00,94.86
2890.00,94.88
2889.00,94.90
2888.00,94.93
2887.00,94.95
2886.00,94.95
2885.00,94.95
2884.00,94.95
2883.00,94.95
2882.00,94.95
2881.00,94.94
2880.00,94.93
2879.00,94.92
2878.00,94.90
2877.00,94.89
2876.00,94.88
2875.00,94.87
2874.00,94.86
2873.00,94.85
2872.00,94.85
2871.00,94.87
2870.00,94.90
2869.00,94.93
2868.00,94.96
2867.00,94.98
2866.00,95.01
2865.00,95.03
2864.00,95.05
2863.00,95.07
2862.00,95.07
2861.00,95.07
2860.00,95.05
2859.00,95.02
2858.00,94.99
2857.00,94.96
2856.00,94.94
2855.00,94.93
2854.00,94.91
2853.00,94.90
2852.00,94.89
2851.00,94.90
2850.00,94.93
2849.00,94.98
2848.00,95.06
2847.00,95.16
2846.00,95.25
2845.00,95.34
2844.00,95.41
2843.00,95.47
2842.00,95.53
2841.00,95.58
2840.00,95.63
2839.00,95.68
2838.00,95.71
2837.00,95.73
2836.00,95.75
2835.00,95.76
2834.00,95.78
2833.00,95.80
2832.00,95.81
2831.00,95.81
2830.00,95.81
2829.00,95.82
2828.00,95.82
2827.00,95.83
2826.00,95.84
2825.00,95.85
2824.00,95.87
2823.00,95.89
2822.00,95.90
2821.00,95.90
2820.00,95.91
2819.00,95.92
2818.00,95.92
2817.00,95.93
2816.00,95.94
2815.00,95.96
2814.00,95.97
2813.00,95.97
2812.00,95.97
2811.00,95.97
2810.00,95.97
2809.00,95.97
2808.00,95.98
2807.00,95.99
2806.00,96.00
2805.00,96.02
2804.00,96.02
2803.00,96.03
2802.00,96.03
2801.00,96.03
2800.00,96.03
2799.00,96.04
2798.00,96.04
2797.00,96.05
2796.00,96.05
2795.00,96.06
2794.00,96.07
2793.00,96.09
2792.00,96.10
2791.00,96.10
2790.00,96.10
2789.00,96.10
2788.00,96.10
2787.00,96.10
2786.00,96.11
2785.00,96.12
2784.00,96.12
2783.00,96.13
2782.00,96.14
2781.00,96.15
2780.00,96.16
2779.00,96.17
2778.00,96.18
2777.00,96.19
2776.00,96.19
2775.00,96.20
2774.00,96.21
2773.00,96.21
2772.00,96.22
2771.00,96.22
2770.00,96.22
2769.00,96.23
2768.00,96.23
2767.00,96.23
2766.00,96.23
2765.00,96.24
2764.00,96.25
2763.00,96.27
2762.00,96.28
2761.00,96.28
2760.00,96.28
2759.00,96.28
2758.00,96.28
2757.00,96.29
2756.00,96.30
2755.00,96.30
2754.00,96.30
2753.00,96.30
2752.00,96.30
2751.00,96.31
2750.00,96.33
2749.00,96.34
2748.00,96.35
2747.00,96.36
2746.00,96.37
2745.00,96.37
2744.00,96.38
2743.00,96.38
2742.00,96.39
2741.00,96.39
2740.00,96.39
2739.00,96.39
2738.00,96.39
2737.00,96.39
2736.00,96.40
2735.00,96.41
2734.00,96.43
2733.00,96.43
2732.00,96.43
2731.00,96.44
2730.00,96.45
2729.00,96.46
2728.00,96.48
2727.00,96.49
2726.00,96.49
2725.00,96.49
2724.00,96.49
2723.00,96.50
2722.00,96.51
2721.00,96.53
2720.00,96.53
2719.00,96.53
2718.00,96.54
2717.00,96.54
2716.00,96.56
2715.00,96.57
2714.00,96.59
2713.00,96.59
2712.00,96.58
2711.00,96.58
2710.00,96.59
2709.00,96.60
2708.00,96.60
2707.00,96.60
2706.00,96.60
2705.00,96.60
2704.00,96.61
2703.00,96.61
2702.00,96.62
2701.00,96.63
2700.00,96.63
2699.00,96.64
2698.00,96.64
2697.00,96.64
2696.00,96.64
2695.00,96.63
2694.00,96.63
2693.00,96.63
2692.00,96.63
2691.00,96.64
2690.00,96.64
2689.00,96.65
2688.00,96.65
2687.00,96.65
2686.00,96.65
2685.00,96.65
2684.00,96.66
2683.00,96.66
2682.00,96.67
2681.00,96.69
2680.00,96.70
2679.00,96.71
2678.00,96.71
2677.00,96.71
2676.00,96.71
2675.00,96.71
2674.00,96.72
2673.00,96.72
2672.00,96.73
2671.00,96.74
2670.00,96.75
2669.00,96.75
2668.00,96.75
2667.00,96.75
2666.00,96.74
2665.00,96.74
2664.00,96.74
2663.00,96.74
2662.00,96.73
2661.00,96.73
2660.00,96.72
2659.00,96.71
2658.00,96.70
2657.00,96.69
2656.00,96.68
2655.00,96.68
2654.00,96.67
2653.00,96.67
2652.00,96.67
2651.00,96.67
2650.00,96.67
2649.00,96.66
2648.00,96.65
2647.00,96.65
2646.00,96.63
2645.00,96.62
2644.00,96.62
2643.00,96.61
2642.00,96.60
2641.00,96.58
2640.00,96.56
2639.00,96.55
2638.00,96.54
2637.00,96.53
2636.00,96.51
2635.00,96.50
2634.00,96.50
2633.00,96.50
2632.00,96.49
2631.00,96.48
2630.00,96.47
2629.00,96.45
2628.00,96.44
2627.00,96.44
2626.00,96.44
2625.00,96.45
2624.00,96.45
2623.00,96.46
2622.00,96.45
2621.00,96.45
2620.00,96.44
2619.00,96.43
2618.00,96.43
2617.00,96.44
2616.00,96.44
2615.00,96.43
2614.00,96.43
2613.00,96.42
2612.00,96.41
2611.00,96.41
2610.00,96.41
2609.00,96.41
2608.00,96.43
2607.00,96.43
2606.00,96.43
2605.00,96.41
2604.00,96.39
2603.00,96.38
2602.00,96.38
2601.00,96.39
2600.00,96.40
2599.00,96.40
2598.00,96.39
2597.00,96.38
2596.00,96.37
2595.00,96.36
2594.00,96.36
2593.00,96.36
2592.00,96.36
2591.00,96.37
2590.00,96.39
2589.00,96.40
2588.00,96.40
2587.00,96.40
2586.00,96.38
2585.00,96.37
2584.00,96.37
2583.00,96.38
2582.00,96.39
2581.00,96.38
2580.00,96.37
2579.00,96.37
2578.00,96.38
2577.00,96.39
2576.00,96.40
2575.00,96.40
2574.00,96.39
2573.00,96.37
2572.00,96.36
2571.00,96.36
2570.00,96.38
2569.00,96.39
2568.00,96.39
2567.00,96.39
2566.00,96.38
2565.00,96.39
2564.00,96.39
2563.00,96.41
2562.00,96.43
2561.00,96.45
2560.00,96.46
2559.00,96.47
2558.00,96.47
2557.00,96.46
2556.00,96.46
2555.00,96.46
2554.00,96.46
2553.00,96.46
2552.00,96.47
2551.00,96.48
2550.00,96.48
2549.00,96.47
2548.00,96.45
2547.00,96.44
2546.00,96.44
2545.00,96.44
2544.00,96.45
2543.00,96.47
2542.00,96.48
2541.00,96.48
2540.00,96.47
2539.00,96.45
2538.00,96.42
2537.00,96.40
2536.00,96.39
2535.00,96.40
2534.00,96.43
2533.00,96.46
2532.00,96.48
2531.00,96.48
2530.00,96.48
2529.00,96.47
2528.00,96.45
2527.00,96.44
2526.00,96.44
2525.00,96.44
2524.00,96.43
2523.00,96.42
2522.00,96.42
2521.00,96.41
2520.00,96.40
2519.00,96.40
2518.00,96.40
2517.00,96.42
2516.00,96.44
2515.00,96.46
2514.00,96.47
2513.00,96.45
2512.00,96.43
2511.00,96.42
2510.00,96.42
2509.00,96.44
2508.00,96.46
2507.00,96.46
2506.00,96.45
2505.00,96.45
2504.00,96.45
2503.00,96.46
2502.00,96.47
2501.00,96.47
2500.00,96.47
2499.00,96.47
2498.00,96.47
2497.00,96.47
2496.00,96.47
2495.00,96.48
2494.00,96.47
2493.00,96.46
2492.00,96.45
2491.00,96.44
2490.00,96.43
2489.00,96.43
2488.00,96.44
2487.00,96.45
2486.00,96.46
2485.00,96.46
2484.00,96.47
2483.00,96.47
2482.00,96.47
2481.00,96.46
2480.00,96.46
2479.00,96.46
2478.00,96.47
2477.00,96.47
2476.00,96.47
2475.00,96.47
2474.00,96.48
2473.00,96.50
2472.00,96.51
2471.00,96.51
2470.00,96.51
2469.00,96.50
2468.00,96.49
2467.00,96.48
2466.00,96.49
2465.00,96.49
2464.00,96.50
2463.00,96.51
2462.00,96.51
2461.00,96.51
2460.00,96.50
2459.00,96.49
2458.00,96.50
2457.00,96.50
2456.00,96.50
2455.00,96.49
2454.00,96.48
2453.00,96.47
2452.00,96.48
2451.00,96.49
2450.00,96.50
2449.00,96.50
2448.00,96.51
2447.00,96.51
2446.00,96.50
2445.00,96.50
2444.00,96.49
2443.00,96.49
2442.00,96.49
2441.00,96.50
2440.00,96.52
2439.00,96.53
2438.00,96.54
2437.00,96.53
2436.00,96.53
2435.00,96.53
2434.00,96.54
2433.00,96.55
2432.00,96.57
2431.00,96.57
2430.00,96.57
2429.00,96.56
2428.00,96.56
2427.00,96.56
2426.00,96.57
2425.00,96.57
2424.00,96.58
2423.00,96.59
2422.00,96.60
2421.00,96.60
2420.00,96.60
2419.00,96.61
2418.00,96.62
2417.00,96.63
2416.00,96.64
2415.00,96.64
2414.00,96.64
2413.00,96.64
2412.00,96.64
2411.00,96.65
2410.00,96.66
2409.00,96.67
2408.00,96.68
2407.00,96.69
2406.00,96.70
2405.00,96.70
2404.00,96.70
2403.00,96.71
2402.00,96.73
2401.00,96.75
2400.00,96.77
2399.00,96.79
2398.00,96.80
2397.00,96.79
2396.00,96.79
2395.00,96.79
2394.00,96.81
2393.00,96.82
2392.00,96.82
2391.00,96.83
2390.00,96.83
2389.00,96.85
2388.00,96.86
2387.00,96.87
2386.00,96.89
2385.00,96.90
2384.00,96.93
2383.00,96.97
2382.00,97.02
2381.00,97.06
2380.00,97.11
2379.00,97.15
2378.00,97.17
2377.00,97.16
2376.00,97.12
2375.00,97.08
2374.00,97.04
2373.00,97.04
2372.00,97.06
2371.00,97.10
2370.00,97.12
2369.00,97.13
2368.00,97.12
2367.00,97.12
2366.00,97.13
2365.00,97.13
2364.00,97.14
2363.00,97.14
2362.00,97.13
2361.00,97.11
2360.00,97.09
2359.00,97.08
2358.00,97.08
2357.00,97.10
2356.00,97.13
2355.00,97.15
2354.00,97.15
2353.00,97.14
2352.00,97.13
2351.00,97.13
2350.00,97.14
2349.00,97.15
2348.00,97.15
2347.00,97.16
2346.00,97.17
2345.00,97.15
2344.00,97.13
2343.00,97.12
2342.00,97.12
2341.00,97.12
2340.00,97.11
2339.00,97.10
2338.00,97.09
2337.00,97.08
2336.00,97.09
2335.00,97.09
2334.00,97.10
2333.00,97.09
2332.00,97.09
2331.00,97.10
2330.00,97.11
2329.00,97.10
2328.00,97.08
2327.00,97.04
2326.00,96.99
2325.00,96.94
2324.00,96.91
2323.00,96.91
2322.00,96.92
2321.00,96.92
2320.00,96.91
2319.00,96.90
2318.00,96.89
2317.00,96.89
2316.00,96.90
2315.00,96.91
2314.00,96.90
2313.00,96.87
2312.00,96.85
2311.00,96.85
2310.00,96.87
2309.00,96.89
2308.00,96.89
2307.00,96.89
2306.00,96.87
2305.00,96.83
2304.00,96.79
2303.00,96.74
2302.00,96.69
2301.00,96.67
2300.00,96.65
2299.00,96.65
2298.00,96.64
2297.00,96.62
2296.00,96.60
2295.00,96.58
2294.00,96.56
2293.00,96.54
2292.00,96.51
2291.00,96.49
2290.00,96.46
2289.00,96.42
2288.00,96.39
2287.00,96.36
2286.00,96.34
2285.00,96.33
2284.00,96.31
2283.00,96.28
2282.00,96.24
2281.00,96.21
2280.00,96.20
2279.00,96.21
2278.00,96.23
2277.00,96.25
2276.00,96.26
2275.00,96.26
2274.00,96.25
2273.00,96.22
2272.00,96.19
2271.00,96.17
2270.00,96.15
2269.00,96.12
2268.00,96.11
2267.00,96.11
2266.00,96.12
2265.00,96.12
2264.00,96.11
2263.00,96.09
2262.00,96.07
2261.00,96.06
2260.00,96.05
2259.00,96.06
2258.00,96.06
2257.00,96.07
2256.00,96.07
2255.00,96.08
2254.00,96.09
2253.00,96.09
2252.00,96.08
2251.00,96.07
2250.00,96.06
2249.00,96.06
2248.00,96.07
2247.00,96.07
2246.00,96.04
2245.00,96.00
2244.00,95.96
2243.00,95.95
2242.00,95.96
2241.00,95.98
2240.00,95.98
2239.00,95.97
2238.00,95.96
2237.00,95.94
2236.00,95.94
2235.00,95.95
2234.00,95.95
2233.00,95.94
2232.00,95.92
2231.00,95.92
2230.00,95.93
2229.00,95.93
2228.00,95.91
2227.00,95.88
2226.00,95.85
2225.00,95.81
2224.00,95.78
2223.00,95.76
2222.00,95.74
2221.00,95.73
2220.00,95.74
2219.00,95.75
2218.00,95.76
2217.00,95.75
2216.00,95.73
2215.00,95.72
2214.00,95.72
2213.00,95.72
2212.00,95.72
2211.00,95.73
2210.00,95.72
2209.00,95.71
2208.00,95.68
2207.00,95.65
2206.00,95.61
2205.00,95.57
2204.00,95.51
2203.00,95.48
2202.00,95.47
2201.00,95.49
2200.00,95.53
2199.00,95.56
2198.00,95.56
2197.00,95.53
2196.00,95.50
2195.00,95.47
2194.00,95.48
2193.00,95.49
2192.00,95.49
2191.00,95.48
2190.00,95.44
2189.00,95.38
2188.00,95.35
2187.00,95.35
2186.00,95.37
2185.00,95.39
2184.00,95.40
2183.00,95.41
2182.00,95.44
2181.00,95.45
2180.00,95.46
2179.00,95.45
2178.00,95.44
2177.00,95.42
2176.00,95.41
2175.00,95.42
2174.00,95.42
2173.00,95.40
2172.00,95.37
2171.00,95.35
2170.00,95.32
2169.00,95.28
2168.00,95.22
2167.00,95.16
2166.00,95.09
2165.00,95.02
2164.00,94.95
2163.00,94.88
2162.00,94.83
2161.00,94.84
2160.00,94.95
2159.00,95.16
2158.00,95.37
2157.00,95.50
2156.00,95.55
2155.00,95.55
2154.00,95.54
2153.00,95.54
2152.00,95.55
2151.00,95.56
2150.00,95.56
2149.00,95.54
2148.00,95.55
2147.00,95.60
2146.00,95.68
2145.00,95.75
2144.00,95.79
2143.00,95.84
2142.00,95.88
2141.00,95.91
2140.00,95.94
2139.00,95.96
2138.00,95.97
2137.00,95.97
2136.00,96.00
2135.00,96.07
2134.00,96.14
2133.00,96.19
2132.00,96.21
2131.00,96.22
2130.00,96.24
2129.00,96.25
2128.00,96.25
2127.00,96.25
2126.00,96.24
2125.00,96.23
2124.00,96.23
2123.00,96.23
2122.00,96.23
2121.00,96.24
2120.00,96.23
2119.00,96.23
2118.00,96.21
2117.00,96.19
2116.00,96.18
2115.00,96.20
2114.00,96.23
2113.00,96.26
2112.00,96.25
2111.00,96.22
2110.00,96.18
2109.00,96.16
2108.00,96.15
2107.00,96.15
2106.00,96.15
2105.00,96.14
2104.00,96.13
2103.00,96.12
2102.00,96.11
2101.00,96.10
2100.00,96.10
2099.00,96.13
2098.00,96.15
2097.00,96.17
2096.00,96.20
2095.00,96.23
2094.00,96.27
2093.00,96.28
2092.00,96.26
2091.00,96.23
2090.00,96.21
2089.00,96.19
2088.00,96.16
2087.00,96.15
2086.00,96.15
2085.00,96.15
2084.00,96.16
2083.00,96.17
2082.00,96.18
2081.00,96.18
2080.00,96.19
2079.00,96.19
2078.00,96.19
2077.00,96.16
2076.00,96.14
2075.00,96.14
2074.00,96.15
2073.00,96.14
2072.00,96.11
2071.00,96.08
2070.00,96.06
2069.00,96.06
2068.00,96.06
2067.00,96.06
2066.00,96.06
2065.00,96.05
2064.00,96.05
2063.00,96.06
2062.00,96.06
2061.00,96.05
2060.00,96.04
2059.00,96.03
2058.00,96.02
2057.00,96.00
2056.00,95.97
2055.00,95.94
2054.00,95.90
2053.00,95.85
2052.00,95.79
2051.00,95.74
2050.00,95.74
2049.00,95.77
2048.00,95.78
2047.00,95.77
2046.00,95.73
2045.00,95.66
2044.00,95.59
2043.00,95.56
2042.00,95.57
2041.00,95.59
2040.00,95.60
2039.00,95.58
2038.00,95.55
2037.00,95.51
2036.00,95.47
2035.00,95.46
2034.00,95.49
2033.00,95.54
2032.00,95.60
2031.00,95.65
2030.00,95.65
2029.00,95.60
2028.00,95.53
2027.00,95.52
2026.00,95.56
2025.00,95.63
2024.00,95.67
2023.00,95.68
2022.00,95.64
2021.00,95.57
2020.00,95.52
2019.00,95.53
2018.00,95.58
2017.00,95.64
2016.00,95.69
2015.00,95.74
2014.00,95.78
2013.00,95.79
2012.00,95.79
2011.00,95.78
2010.00,95.78
2009.00,95.77
2008.00,95.79
2007.00,95.83
2006.00,95.89
2005.00,95.93
2004.00,95.94
2003.00,95.95
2002.00,95.94
2001.00,95.91
2000.00,95.89
1999.00,95.90
1998.00,95.92
1997.00,95.91
1996.00,95.87
1995.00,95.82
1994.00,95.79
1993.00,95.78
1992.00,95.82
1991.00,95.88
1990.00,95.93
1989.00,95.93
1988.00,95.91
1987.00,95.90
1986.00,95.90
1985.00,95.89
1984.00,95.86
1983.00,95.80
1982.00,95.72
1981.00,95.63
1980.00,95.56
1979.00,95.55
1978.00,95.62
1977.00,95.70
1976.00,95.77
1975.00,95.82
1974.00,95.86
1973.00,95.88
1972.00,95.89
1971.00,95.91
1970.00,95.96
1969.00,96.01
1968.00,96.03
1967.00,96.05
1966.00,96.06
1965.00,96.08
1964.00,96.09
1963.00,96.12
1962.00,96.18
1961.00,96.24
1960.00,96.31
1959.00,96.36
1958.00,96.37
1957.00,96.35
1956.00,96.33
1955.00,96.32
1954.00,96.32
1953.00,96.33
1952.00,96.36
1951.00,96.41
1950.00,96.47
1949.00,96.51
1948.00,96.52
1947.00,96.52
1946.00,96.51
1945.00,96.50
1944.00,96.50
1943.00,96.55
1942.00,96.61
1941.00,96.65
1940.00,96.66
1939.00,96.66
1938.00,96.67
1937.00,96.67
1936.00,96.67
1935.00,96.69
1934.00,96.70
1933.00,96.71
1932.00,96.73
1931.00,96.77
1930.00,96.82
1929.00,96.85
1928.00,96.86
1927.00,96.86
1926.00,96.86
1925.00,96.84
1924.00,96.84
1923.00,96.86
1922.00,96.89
1921.00,96.91
1920.00,96.91
1919.00,96.92
1918.00,96.94
1917.00,96.96
1916.00,96.97
1915.00,96.99
1914.00,97.01
1913.00,97.03
1912.00,97.05
1911.00,97.05
1910.00,97.06
1909.00,97.07
1908.00,97.08
1907.00,97.09
1906.00,97.10
1905.00,97.10
1904.00,97.08
1903.00,97.09
1902.00,97.11
1901.00,97.13
1900.00,97.15
1899.00,97.17
1898.00,97.18
1897.00,97.17
1896.00,97.17
1895.00,97.19
1894.00,97.20
1893.00,97.21
1892.00,97.21
1891.00,97.21
1890.00,97.24
1889.00,97.25
1888.00,97.27
1887.00,97.29
1886.00,97.30
1885.00,97.31
1884.00,97.31
1883.00,97.31
1882.00,97.32
1881.00,97.31
1880.00,97.29
1879.00,97.30
1878.00,97.32
1877.00,97.33
1876.00,97.33
1875.00,97.34
1874.00,97.36
1873.00,97.39
1872.00,97.41
1871.00,97.42
1870.00,97.43
1869.00,97.41
1868.00,97.39
1867.00,97.40
1866.00,97.43
1865.00,97.45
1864.00,97.47
1863.00,97.48
1862.00,97.51
1861.00,97.52
1860.00,97.51
1859.00,97.51
1858.00,97.51
1857.00,97.52
1856.00,97.53
1855.00,97.56
1854.00,97.59
1853.00,97.59
1852.00,97.57
1851.00,97.56
1850.00,97.57
1849.00,97.58
1848.00,97.60
1847.00,97.62
1846.00,97.66
1845.00,97.68
1844.00,97.70
1843.00,97.71
1842.00,97.71
1841.00,97.69
1840.00,97.67
1839.00,97.67
1838.00,97.69
1837.00,97.71
1836.00,97.71
1835.00,97.73
1834.00,97.74
1833.00,97.76
1832.00,97.76
1831.00,97.78
1830.00,97.79
1829.00,97.80
1828.00,97.79
1827.00,97.78
1826.00,97.79
1825.00,97.80
1824.00,97.82
1823.00,97.85
1822.00,97.87
1821.00,97.88
1820.00,97.88
1819.00,97.89
1818.00,97.91
1817.00,97.93
1816.00,97.93
1815.00,97.94
1814.00,97.95
1813.00,97.95
1812.00,97.95
1811.00,97.96
1810.00,97.97
1809.00,97.97
1808.00,97.97
1807.00,97.97
1806.00,97.98
1805.00,97.99
1804.00,97.99
1803.00,98.01
1802.00,98.03
1801.00,98.04
1800.00,98.03
1799.00,98.03
1798.00,98.03
1797.00,98.04
1796.00,98.04
1795.00,98.05
1794.00,98.07
1793.00,98.08
1792.00,98.09
1791.00,98.09
1790.00,98.11
1789.00,98.12
1788.00,98.13
1787.00,98.14
1786.00,98.15
1785.00,98.15
1784.00,98.14
1783.00,98.14
1782.00,98.16
1781.00,98.17
1780.00,98.17
1779.00,98.18
1778.00,98.19
1777.00,98.20
1776.00,98.20
1775.00,98.20
1774.00,98.20
1773.00,98.21
1772.00,98.20
1771.00,98.21
1770.00,98.22
1769.00,98.22
1768.00,98.21
1767.00,98.22
1766.00,98.24
1765.00,98.25
1764.00,98.25
1763.00,98.26
1762.00,98.26
1761.00,98.26
1760.00,98.24
1759.00,98.24
1758.00,98.24
1757.00,98.23
1756.00,98.22
1755.00,98.23
1754.00,98.24
1753.00,98.25
1752.00,98.24
1751.00,98.24
1750.00,98.24
1749.00,98.23
1748.00,98.23
1747.00,98.24
1746.00,98.25
1745.00,98.25
1744.00,98.23
1743.00,98.21
1742.00,98.21
1741.00,98.21
1740.00,98.21
1739.00,98.21
1738.00,98.22
1737.00,98.22
1736.00,98.19
1735.00,98.17
1734.00,98.17
1733.00,98.17
1732.00,98.16
1731.00,98.15
1730.00,98.16
1729.00,98.15
1728.00,98.13
1727.00,98.12
1726.00,98.12
1725.00,98.10
1724.00,98.06
1723.00,98.02
1722.00,98.01
1721.00,97.97
1720.00,97.92
1719.00,97.86
1718.00,97.79
1717.00,97.68
1716.00,97.51
1715.00,97.37
1714.00,97.24
1713.00,97.07
1712.00,96.87
1711.00,96.63
1710.00,96.37
1709.00,96.04
1708.00,95.62
1707.00,95.07
1706.00,94.38
1705.00,93.59
1704.00,92.83
1703.00,92.18
1702.00,91.52
1701.00,90.76
1700.00,90.01
1699.00,89.52
1698.00,89.31
1697.00,89.25
1696.00,89.30
1695.00,89.41
1694.00,89.52
1693.00,89.58
1692.00,89.61
1691.00,89.61
1690.00,89.59
1689.00,89.55
1688.00,89.48
1687.00,89.38
1686.00,89.26
1685.00,89.08
1684.00,88.86
1683.00,88.66
1682.00,88.47
1681.00,88.28
1680.00,88.06
1679.00,87.84
1678.00,87.62
1677.00,87.38
1676.00,87.10
1675.00,86.82
1674.00,86.55
1673.00,86.31
1672.00,86.04
1671.00,85.76
1670.00,85.44
1669.00,85.10
1668.00,84.78
1667.00,84.49
1666.00,84.22
1665.00,83.94
1664.00,83.61
1663.00,83.25
1662.00,82.90
1661.00,82.55
1660.00,82.21
1659.00,81.86
1658.00,81.53
1657.00,81.21
1656.00,80.88
1655.00,80.54
1654.00,80.13
1653.00,79.68
1652.00,79.29
1651.00,79.03
1650.00,78.81
1649.00,78.55
1648.00,78.21
1647.00,77.84
1646.00,77.49
1645.00,77.17
1644.00,76.86
1643.00,76.56
1642.00,76.26
1641.00,75.94
1640.00,75.61
1639.00,75.28
1638.00,74.97
1637.00,74.62
1636.00,74.21
1635.00,73.82
1634.00,73.50
1633.00,73.21
1632.00,72.91
1631.00,72.60
1630.00,72.30
1629.00,72.00
1628.00,71.71
1627.00,71.44
1626.00,71.22
1625.00,71.02
1624.00,70.85
1623.00,70.74
1622.00,70.70
1621.00,70.69
1620.00,70.67
1619.00,70.68
1618.00,70.81
1617.00,71.09
1616.00,71.46
1615.00,71.80
1614.00,72.11
1613.00,72.43
1612.00,72.81
1611.00,73.26
1610.00,73.78
1609.00,74.34
1608.00,74.93
1607.00,75.52
1606.00,76.09
1605.00,76.67
1604.00,77.26
1603.00,77.84
1602.00,78.39
1601.00,78.89
1600.00,79.35
1599.00,79.78
1598.00,80.19
1597.00,80.59
1596.00,81.00
1595.00,81.40
1594.00,81.78
1593.00,82.14
1592.00,82.50
1591.00,82.83
1590.00,83.14
1589.00,83.43
1588.00,83.71
1587.00,83.97
1586.00,84.18
1585.00,84.36
1584.00,84.51
1583.00,84.63
1582.00,84.72
1581.00,84.79
1580.00,84.84
1579.00,84.86
1578.00,84.85
1577.00,84.83
1576.00,84.82
1575.00,84.79
1574.00,84.72
1573.00,84.63
1572.00,84.52
1571.00,84.38
1570.00,84.20
1569.00,84.00
1568.00,83.80
1567.00,83.59
1566.00,83.34
1565.00,83.08
1564.00,82.82
1563.00,82.59
1562.00,82.35
1561.00,82.08
1560.00,81.78
1559.00,81.43
1558.00,81.12
1557.00,80.88
1556.00,80.65
1555.00,80.40
1554.00,80.14
1553.00,79.89
1552.00,79.66
1551.00,79.42
1550.00,79.16
1549.00,78.90
1548.00,78.65
1547.00,78.41
1546.00,78.16
1545.00,77.88
1544.00,77.62
1543.00,77.36
1542.00,77.09
1541.00,76.78
1540.00,76.47
1539.00,76.19
1538.00,75.95
1537.00,75.72
1536.00,75.48
1535.00,75.23
1534.00,74.95
1533.00,74.65
1532.00,74.37
1531.00,74.11
1530.00,73.83
1529.00,73.54
1528.00,73.25
1527.00,72.96
1526.00,72.66
1525.00,72.36
1524.00,72.06
1523.00,71.73
1522.00,71.34
1521.00,70.92
1520.00,70.54
1519.00,70.17
1518.00,69.76
1517.00,69.32
1516.00,68.94
1515.00,68.64
1514.00,68.41
1513.00,68.25
1512.00,68.18
1511.00,68.15
1510.00,68.12
1509.00,68.11
1508.00,68.17
1507.00,68.34
1506.00,68.55
1505.00,68.71
1504.00,68.83
1503.00,68.93
1502.00,69.05
1501.00,69.22
1500.00,69.43
1499.00,69.68
1498.00,69.97
1497.00,70.32
1496.00,70.71
1495.00,71.08
1494.00,71.39
1493.00,71.68
1492.00,72.01
1491.00,72.42
1490.00,72.89
1489.00,73.37
1488.00,73.82
1487.00,74.25
1486.00,74.64
1485.00,75.02
1484.00,75.37
1483.00,75.73
1482.00,76.10
1481.00,76.47
1480.00,76.82
1479.00,77.13
1478.00,77.43
1477.00,77.71
1476.00,77.98
1475.00,78.22
1474.00,78.44
1473.00,78.67
1472.00,78.90
1471.00,79.09
1470.00,79.25
1469.00,79.39
1468.00,79.51
1467.00,79.62
1466.00,79.73
1465.00,79.84
1464.00,79.94
1463.00,79.99
1462.00,80.02
1461.00,80.01
1460.00,79.96
1459.00,79.86
1458.00,79.70
1457.00,79.46
1456.00,79.19
1455.00,78.93
1454.00,78.66
1453.00,78.36
1452.00,78.05
1451.00,77.74
1450.00,77.46
1449.00,77.20
1448.00,76.98
1447.00,76.81
1446.00,76.70
1445.00,76.64
1444.00,76.60
1443.00,76.60
1442.00,76.62
1441.00,76.65
1440.00,76.70
1439.00,76.77
1438.00,76.92
1437.00,77.17
1436.00,77.50
1435.00,77.84
1434.00,78.13
1433.00,78.41
1432.00,78.72
1431.00,79.05
1430.00,79.39
1429.00,79.70
1428.00,79.96
1427.00,80.17
1426.00,80.34
1425.00,80.50
1424.00,80.65
1423.00,80.76
1422.00,80.83
1421.00,80.88
1420.00,80.93
1419.00,80.98
1418.00,81.02
1417.00,81.02
1416.00,81.01
1415.00,80.99
1414.00,80.96
1413.00,80.93
1412.00,80.89
1411.00,80.85
1410.00,80.82
1409.00,80.79
1408.00,80.77
1407.00,80.77
1406.00,80.77
1405.00,80.80
1404.00,80.83
1403.00,80.87
1402.00,80.92
1401.00,80.98
1400.00,81.06
1399.00,81.15
1398.00,81.24
1397.00,81.31
1396.00,81.38
1395.00,81.46
1394.00,81.54
1393.00,81.61
1392.00,81.67
1391.00,81.71
1390.00,81.75
1389.00,81.80
1388.00,81.86
1387.00,81.93
1386.00,82.00
1385.00,82.06
1384.00,82.11
1383.00,82.16
1382.00,82.20
1381.00,82.25
1380.00,82.30
1379.00,82.34
1378.00,82.38
1377.00,82.41
1376.00,82.44
1375.00,82.45
1374.00,82.46
1373.00,82.45
1372.00,82.44
1371.00,82.42
1370.00,82.41
1369.00,82.41
1368.00,82.44
1367.00,82.50
1366.00,82.58
1365.00,82.70
1364.00,82.85
1363.00,83.04
1362.00,83.22
1361.00,83.40
1360.00,83.56
1359.00,83.70
1358.00,83.84
1357.00,83.97
1356.00,84.09
1355.00,84.18
1354.00,84.26
1353.00,84.32
1352.00,84.38
1351.00,84.42
1350.00,84.46
1349.00,84.48
1348.00,84.49
1347.00,84.50
1346.00,84.50
1345.00,84.50
1344.00,84.50
1343.00,84.49
1342.00,84.47
1341.00,84.45
1340.00,84.42
1339.00,84.40
1338.00,84.39
1337.00,84.39
1336.00,84.39
1335.00,84.40
1334.00,84.42
1333.00,84.44
1332.00,84.48
1331.00,84.52
1330.00,84.57
1329.00,84.62
1328.00,84.68
1327.00,84.74
1326.00,84.80
1325.00,84.87
1324.00,84.94
1323.00,85.00
1322.00,85.04
1321.00,85.09
1320.00,85.14
1319.00,85.18
1318.00,85.23
1317.00,85.27
1316.00,85.29
1315.00,85.31
1314.00,85.31
1313.00,85.32
1312.00,85.33
1311.00,85.35
1310.00,85.36
1309.00,85.38
1308.00,85.40
1307.00,85.41
1306.00,85.43
1305.00,85.45
1304.00,85.48
1303.00,85.51
1302.00,85.53
1301.00,85.55
1300.00,85.58
1299.00,85.61
1298.00,85.64
1297.00,85.67
1296.00,85.70
1295.00,85.73
1294.00,85.76
1293.00,85.79
1292.00,85.80
1291.00,85.81
1290.00,85.81
1289.00,85.79
1288.00,85.76
1287.00,85.72
1286.00,85.68
1285.00,85.65
1284.00,85.61
1283.00,85.56
1282.00,85.50
1281.00,85.43
1280.00,85.35
1279.00,85.26
1278.00,85.16
1277.00,85.03
1276.00,84.87
1275.00,84.69
1274.00,84.48
1273.00,84.26
1272.00,84.02
1271.00,83.77
1270.00,83.50
1269.00,83.24
1268.00,82.97
1267.00,82.72
1266.00,82.49
1265.00,82.28
1264.00,82.10
1263.00,81.94
1262.00,81.81
1261.00,81.70
1260.00,81.62
1259.00,81.55
1258.00,81.49
1257.00,81.45
1256.00,81.42
1255.00,81.40
1254.00,81.38
1253.00,81.36
1252.00,81.34
1251.00,81.31
1250.00,81.27
1249.00,81.22
1248.00,81.15
1247.00,81.07
1246.00,80.98
1245.00,80.87
1244.00,80.75
1243.00,80.62
1242.00,80.48
1241.00,80.33
1240.00,80.17
1239.00,79.99
1238.00,79.80
1237.00,79.59
1236.00,79.36
1235.00,79.13
1234.00,78.91
1233.00,78.69
1232.00,78.49
1231.00,78.31
1230.00,78.18
1229.00,78.09
1228.00,78.03
1227.00,78.00
1226.00,78.00
1225.00,78.03
1224.00,78.09
1223.00,78.18
1222.00,78.29
1221.00,78.42
1220.00,78.56
1219.00,78.69
1218.00,78.83
1217.00,78.98
1216.00,79.14
1215.00,79.32
1214.00,79.52
1213.00,79.73
1212.00,79.94
1211.00,80.18
1210.00,80.44
1209.00,80.70
1208.00,80.97
1207.00,81.25
1206.00,81.52
1205.00,81.80
1204.00,82.07
1203.00,82.34
1202.00,82.61
1201.00,82.88
1200.00,83.14
1199.00,83.38
1198.00,83.61
1197.00,83.83
1196.00,84.05
1195.00,84.25
1194.00,84.43
1193.00,84.58
1192.00,84.72
1191.00,84.85
1190.00,84.97
1189.00,85.09
1188.00,85.21
1187.00,85.30
1186.00,85.38
1185.00,85.44
1184.00,85.49
1183.00,85.53
1182.00,85.55
1181.00,85.54
1180.00,85.51
1179.00,85.43
1178.00,85.32
1177.00,85.17
1176.00,85.00
1175.00,84.81
1174.00,84.62
1173.00,84.43
1172.00,84.25
1171.00,84.09
1170.00,83.95
1169.00,83.84
1168.00,83.77
1167.00,83.70
1166.00,83.63
1165.00,83.56
1164.00,83.48
1163.00,83.43
1162.00,83.41
1161.00,83.41
1160.00,83.42
1159.00,83.45
1158.00,83.50
1157.00,83.56
1156.00,83.64
1155.00,83.74
1154.00,83.85
1153.00,83.99
1152.00,84.15
1151.00,84.32
1150.00,84.51
1149.00,84.71
1148.00,84.91
1147.00,85.10
1146.00,85.27
1145.00,85.44
1144.00,85.60
1143.00,85.76
1142.00,85.91
1141.00,86.05
1140.00,86.17
1139.00,86.27
1138.00,86.37
1137.00,86.46
1136.00,86.56
1135.00,86.66
1134.00,86.75
1133.00,86.82
1132.00,86.89
1131.00,86.95
1130.00,87.02
1129.00,87.09
1128.00,87.14
1127.00,87.18
1126.00,87.21
1125.00,87.24
1124.00,87.27
1123.00,87.31
1122.00,87.36
1121.00,87.41
1120.00,87.45
1119.00,87.49
1118.00,87.53
1117.00,87.56
1116.00,87.59
1115.00,87.60
1114.00,87.59
1113.00,87.59
1112.00,87.60
1111.00,87.63
1110.00,87.66
1109.00,87.68
1108.00,87.68
1107.00,87.65
1106.00,87.61
1105.00,87.59
1104.00,87.57
1103.00,87.56
1102.00,87.56
1101.00,87.57
1100.00,87.58
1099.00,87.60
1098.00,87.63
1097.00,87.66
1096.00,87.69
1095.00,87.71
1094.00,87.72
1093.00,87.72
1092.00,87.69
1091.00,87.64
1090.00,87.57
1089.00,87.48
1088.00,87.37
1087.00,87.24
1086.00,87.09
1085.00,86.94
1084.00,86.80
1083.00,86.66
1082.00,86.51
1081.00,86.33
1080.00,86.13
1079.00,85.92
1078.00,85.73
1077.00,85.57
1076.00,85.42
1075.00,85.27
1074.00,85.13
1073.00,85.00
1072.00,84.88
1071.00,84.78
1070.00,84.68
1069.00,84.61
1068.00,84.55
1067.00,84.51
1066.00,84.49
1065.00,84.47
1064.00,84.47
1063.00,84.48
1062.00,84.51
1061.00,84.53
1060.00,84.55
1059.00,84.56
1058.00,84.58
1057.00,84.62
1056.00,84.67
1055.00,84.74
1054.00,84.82
1053.00,84.90
1052.00,84.97
1051.00,85.05
1050.00,85.12
1049.00,85.18
1048.00,85.23
1047.00,85.26
1046.00,85.29
1045.00,85.32
1044.00,85.35
1043.00,85.38
1042.00,85.42
1041.00,85.47
1040.00,85.53
1039.00,85.59
1038.00,85.66
1037.00,85.74
1036.00,85.82
1035.00,85.92
1034.00,86.02
1033.00,86.12
1032.00,86.23
1031.00,86.35
1030.00,86.47
1029.00,86.58
1028.00,86.67
1027.00,86.76
1026.00,86.83
1025.00,86.90
1024.00,86.96
1023.00,87.02
1022.00,87.08
1021.00,87.12
1020.00,87.12
1019.00,87.11
1018.00,87.08
1017.00,87.06
1016.00,87.04
1015.00,87.03
1014.00,87.04
1013.00,87.04
1012.00,87.05
1011.00,87.04
1010.00,87.05
1009.00,87.05
1008.00,87.03
1007.00,87.00
1006.00,86.94
1005.00,86.85
1004.00,86.72
1003.00,86.58
1002.00,86.43
1001.00,86.29
1000.00,86.17
999.00,86.07
998.00,85.99
997.00,85.92
996.00,85.86
995.00,85.83
994.00,85.83
993.00,85.88
992.00,85.98
991.00,86.12
990.00,86.29
989.00,86.46
988.00,86.63
987.00,86.78
986.00,86.87
985.00,86.91
984.00,86.89
983.00,86.83
982.00,86.73
981.00,86.60
980.00,86.46
979.00,86.31
978.00,86.16
977.00,86.03
976.00,85.93
975.00,85.88
974.00,85.87
973.00,85.90
972.00,85.97
971.00,86.07
970.00,86.20
969.00,86.35
968.00,86.52
967.00,86.68
966.00,86.85
965.00,87.00
964.00,87.16
963.00,87.30
962.00,87.42
961.00,87.53
960.00,87.63
959.00,87.73
958.00,87.83
957.00,87.94
956.00,88.02
955.00,88.08
954.00,88.13
953.00,88.19
952.00,88.25
951.00,88.32
950.00,88.37
949.00,88.41
948.00,88.46
947.00,88.50
946.00,88.57
945.00,88.63
944.00,88.69
943.00,88.72
942.00,88.74
941.00,88.76
940.00,88.79
939.00,88.82
938.00,88.84
937.00,88.86
936.00,88.87
935.00,88.88
934.00,88.89
933.00,88.90
932.00,88.90
931.00,88.89
930.00,88.89
929.00,88.90
928.00,88.93
927.00,88.97
926.00,88.99
925.00,89.01
924.00,89.04
923.00,89.09
922.00,89.17
921.00,89.25
920.00,89.33
919.00,89.40
918.00,89.48
917.00,89.57
916.00,89.65
915.00,89.72
914.00,89.77
913.00,89.80
912.00,89.83
911.00,89.88
910.00,89.93
909.00,89.97
908.00,90.00
907.00,90.02
906.00,90.02
905.00,90.04
904.00,90.06
903.00,90.08
902.00,90.10
901.00,90.10
900.00,90.09
899.00,90.07
898.00,90.07
897.00,90.08
896.00,90.12
895.00,90.14
894.00,90.15
893.00,90.15
892.00,90.15
891.00,90.16
890.00,90.17
889.00,90.20
888.00,90.24
887.00,90.29
886.00,90.34
885.00,90.36
884.00,90.36
883.00,90.34
882.00,90.32
881.00,90.29
880.00,90.27
879.00,90.27
878.00,90.29
877.00,90.31
876.00,90.33
875.00,90.35
874.00,90.37
873.00,90.41
872.00,90.44
871.00,90.46
870.00,90.47
869.00,90.47
868.00,90.47
867.00,90.48
866.00,90.48
865.00,90.49
864.00,90.48
863.00,90.48
862.00,90.46
861.00,90.42
860.00,90.35
859.00,90.27
858.00,90.18
857.00,90.08
856.00,89.98
855.00,89.88
854.00,89.80
853.00,89.75
852.00,89.72
851.00,89.73
850.00,89.75
849.00,89.78
848.00,89.80
847.00,89.81
846.00,89.82
845.00,89.83
844.00,89.83
843.00,89.81
842.00,89.79
841.00,89.76
840.00,89.74
839.00,89.71
838.00,89.68
837.00,89.65
836.00,89.61
835.00,89.56
834.00,89.48
833.00,89.38
832.00,89.26
831.00,89.16
830.00,89.09
829.00,89.04
828.00,89.01
827.00,88.99
826.00,88.99
825.00,89.01
824.00,89.04
823.00,89.07
822.00,89.09
821.00,89.10
820.00,89.11
819.00,89.11
818.00,89.11
817.00,89.11
816.00,89.11
815.00,89.10
814.00,89.08
813.00,89.05
812.00,89.02
811.00,89.00
810.00,88.99
809.00,88.98
808.00,88.99
807.00,88.99
806.00,88.99
805.00,88.99
804.00,88.99
803.00,88.99
802.00,89.00
801.00,88.99
800.00,88.97
799.00,88.95
798.00,88.95
797.00,88.95
796.00,88.95
795.00,88.95
794.00,88.93
793.00,88.89
792.00,88.82
791.00,88.75
790.00,88.68
789.00,88.63
788.00,88.57
787.00,88.50
786.00,88.44
785.00,88.37
784.00,88.29
783.00,88.22
782.00,88.15
781.00,88.10
780.00,88.06
779.00,88.01
778.00,87.95
777.00,87.87
776.00,87.79
775.00,87.68
774.00,87.57
773.00,87.45
772.00,87.31
771.00,87.18
770.00,87.07
769.00,86.99
768.00,86.92
767.00,86.85
766.00,86.78
765.00,86.71
764.00,86.64
763.00,86.57
762.00,86.51
761.00,86.44
760.00,86.35
759.00,86.25
758.00,86.15
757.00,86.07
756.00,86.00
755.00,85.92
754.00,85.83
753.00,85.73
752.00,85.63
751.00,85.53
750.00,85.42
749.00,85.30
748.00,85.17
747.00,85.05
746.00,84.94
745.00,84.83
744.00,84.68
743.00,84.51
742.00,84.32
741.00,84.15
740.00,83.99
739.00,83.83
738.00,83.65
737.00,83.46
736.00,83.24
735.00,83.01
734.00,82.79
733.00,82.59
732.00,82.40
731.00,82.20
730.00,81.99
729.00,81.78
728.00,81.59
727.00,81.42
726.00,81.25
725.00,81.07
724.00,80.89
723.00,80.70
722.00,80.52
721.00,80.34
720.00,80.17
719.00,80.01
718.00,79.86
717.00,79.73
716.00,79.61
715.00,79.49
714.00,79.37
713.00,79.23
712.00,79.07
711.00,78.90
710.00,78.72
709.00,78.53
708.00,78.34
707.00,78.17
706.00,78.01
705.00,77.85
704.00,77.70
703.00,77.55
702.00,77.42
701.00,77.30
700.00,77.17
699.00,77.02
698.00,76.87
697.00,76.73
696.00,76.62
695.00,76.51
694.00,76.41
693.00,76.31
692.00,76.22
691.00,76.14
690.00,76.07
689.00,75.99
688.00,75.92
687.00,75.86
686.00,75.82
685.00,75.80
684.00,75.76
683.00,75.71
682.00,75.65
681.00,75.59
680.00,75.54
679.00,75.51
678.00,75.50
677.00,75.47
676.00,75.39
675.00,75.31
674.00,75.25
673.00,75.23
672.00,75.22
671.00,75.20
670.00,75.17
669.00,75.13
668.00,75.06
667.00,75.01
666.00,75.02
665.00,75.04
664.00,75.04
663.00,75.01
662.00,74.97
661.00,74.92
660.00,74.82
659.00,74.71
658.00,74.60
657.00,74.51
656.00,74.43
655.00,74.36
654.00,74.30
653.00,74.21
652.00,74.10
651.00,74.00
650.00,73.93
649.00,73.86
648.00,73.72
647.00,73.51
646.00,73.30
645.00,73.12
644.00,72.97
643.00,72.85
642.00,72.75
641.00,72.65
640.00,72.53
639.00,72.39
638.00,72.25
637.00,72.11
636.00,71.99
635.00,71.88
634.00,71.79
633.00,71.66
632.00,71.49
631.00,71.34
630.00,71.27
629.00,71.28
628.00,71.32
627.00,71.36
626.00,71.36
625.00,71.31
624.00,71.24
623.00,71.22
622.00,71.22
621.00,71.17
620.00,71.06
619.00,70.96
618.00,70.91
617.00,70.86
616.00,70.75
615.00,70.66
614.00,70.61
613.00,70.57
612.00,70.52
611.00,70.53
610.00,70.60
609.00,70.65
608.00,70.67
607.00,70.74
606.00,70.88
605.00,71.05
604.00,71.19
603.00,71.30
602.00,71.39
601.00,71.45
600.00,71.55
599.00,71.75
598.00,72.00
597.00,72.18
596.00,72.27
595.00,72.34
594.00,72.42
593.00,72.44
592.00,72.40
591.00,72.42
590.00,72.52
589.00,72.57
588.00,72.51
587.00,72.45
586.00,72.50
585.00,72.61
584.00,72.74
583.00,72.93
582.00,73.17
581.00,73.32
580.00,73.34
579.00,73.33
578.00,73.32
577.00,73.20
576.00,72.92
575.00,72.66
574.00,72.54
573.00,72.43
572.00,72.27
571.00,72.28
570.00,72.57
569.00,72.90
568.00,72.95
567.00,72.68
566.00,72.23
565.00,71.66
564.00,71.05
563.00,70.60
562.00,70.45
561.00,70.44
560.00,70.42
559.00,70.34
558.00,70.10
557.00,69.62
556.00,69.03
555.00,68.65
554.00,68.51
553.00,68.32
552.00,67.96
551.00,67.87
550.00,68.15
