Created as New Dataset,17.1 Raw, thrown
cm-1,%T
4000.00,100.34
3999.00,100.34
3998.00,100.33
3997.00,100.33
3996.00,100.33
3995.00,100.33
3994.00,100.33
3993.00,100.33
3992.00,100.33
3991.00,100.33
3990.00,100.33
3989.00,100.33
3988.00,100.33
3987.00,100.31
3986.00,100.30
3985.00,100.29
3984.00,100.29
3983.00,100.29
3982.00,100.29
3981.00,100.29
3980.00,100.29
3979.00,100.30
3978.00,100.31
3977.00,100.31
3976.00,100.32
3975.00,100.32
3974.00,100.32
3973.00,100.32
3972.00,100.32
3971.00,100.32
3970.00,100.32
3969.00,100.32
3968.00,100.32
3967.00,100.33
3966.00,100.33
3965.00,100.34
3964.00,100.34
3963.00,100.34
3962.00,100.34
3961.00,100.34
3960.00,100.33
3959.00,100.33
3958.00,100.33
3957.00,100.33
3956.00,100.33
3955.00,100.33
3954.00,100.32
3953.00,100.31
3952.00,100.31
3951.00,100.31
3950.00,100.32
3949.00,100.33
3948.00,100.34
3947.00,100.35
3946.00,100.35
3945.00,100.35
3944.00,100.35
3943.00,100.34
3942.00,100.33
3941.00,100.31
3940.00,100.30
3939.00,100.30
3938.00,100.29
3937.00,100.29
3936.00,100.29
3935.00,100.29
3934.00,100.28
3933.00,100.27
3932.00,100.26
3931.00,100.26
3930.00,100.27
3929.00,100.28
3928.00,100.28
3927.00,100.28
3926.00,100.27
3925.00,100.26
3924.00,100.26
3923.00,100.26
3922.00,100.26
3921.00,100.26
3920.00,100.26
3919.00,100.26
3918.00,100.26
3917.00,100.27
3916.00,100.29
3915.00,100.31
3914.00,100.32
3913.00,100.33
3912.00,100.33
3911.00,100.33
3910.00,100.34
3909.00,100.35
3908.00,100.35
3907.00,100.35
3906.00,100.33
3905.00,100.31
3904.00,100.29
3903.00,100.28
3902.00,100.29
3901.00,100.31
3900.00,100.33
3899.00,100.34
3898.00,100.34
3897.00,100.32
3896.00,100.30
3895.00,100.28
3894.00,100.26
3893.00,100.25
3892.00,100.26
3891.00,100.28
3890.00,100.29
3889.00,100.29
3888.00,100.29
3887.00,100.29
3886.00,100.30
3885.00,100.30
3884.00,100.29
3883.00,100.28
3882.00,100.27
3881.00,100.27
3880.00,100.27
3879.00,100.29
3878.00,100.30
3877.00,100.30
3876.00,100.30
3875.00,100.29
3874.00,100.29
3873.00,100.27
3872.00,100.26
3871.00,100.26
3870.00,100.27
3869.00,100.29
3868.00,100.31
3867.00,100.31
3866.00,100.31
3865.00,100.30
3864.00,100.28
3863.00,100.27
3862.00,100.25
3861.00,100.26
3860.00,100.27
3859.00,100.28
3858.00,100.29
3857.00,100.29
3856.00,100.28
3855.00,100.29
3854.00,100.31
3853.00,100.31
3852.00,100.30
3851.00,100.28
3850.00,100.27
3849.00,100.26
3848.00,100.27
3847.00,100.28
3846.00,100.29
3845.00,100.29
3844.00,100.29
3843.00,100.29
3842.00,100.29
3841.00,100.29
3840.00,100.28
3839.00,100.27
3838.00,100.26
3837.00,100.25
3836.00,100.25
3835.00,100.25
3834.00,100.26
3833.00,100.27
3832.00,100.28
3831.00,100.28
3830.00,100.27
3829.00,100.26
3828.00,100.25
3827.00,100.25
3826.00,100.25
3825.00,100.24
3824.00,100.22
3823.00,100.21
3822.00,100.21
3821.00,100.21
3820.00,100.20
3819.00,100.20
3818.00,100.20
3817.00,100.20
3816.00,100.22
3815.00,100.24
3814.00,100.25
3813.00,100.26
3812.00,100.26
3811.00,100.26
3810.00,100.25
3809.00,100.23
3808.00,100.22
3807.00,100.21
3806.00,100.21
3805.00,100.22
3804.00,100.23
3803.00,100.23
3802.00,100.22
3801.00,100.20
3800.00,100.20
3799.00,100.20
3798.00,100.22
3797.00,100.24
3796.00,100.25
3795.00,100.25
3794.00,100.25
3793.00,100.26
3792.00,100.26
3791.00,100.26
3790.00,100.27
3789.00,100.27
3788.00,100.27
3787.00,100.26
3786.00,100.26
3785.00,100.25
3784.00,100.25
3783.00,100.24
3782.00,100.23
3781.00,100.21
3780.00,100.20
3779.00,100.19
3778.00,100.18
3777.00,100.19
3776.00,100.20
3775.00,100.21
3774.00,100.20
3773.00,100.18
3772.00,100.17
3771.00,100.16
3770.00,100.17
3769.00,100.18
3768.00,100.18
3767.00,100.18
3766.00,100.18
3765.00,100.18
3764.00,100.19
3763.00,100.19
3762.00,100.18
3761.00,100.17
3760.00,100.15
3759.00,100.13
3758.00,100.12
3757.00,100.12
3756.00,100.13
3755.00,100.14
3754.00,100.16
3753.00,100.15
3752.00,100.14
3751.00,100.11
3750.00,100.08
3749.00,100.07
3748.00,100.06
3747.00,100.06
3746.00,100.07
3745.00,100.09
3744.00,100.11
3743.00,100.14
3742.00,100.16
3741.00,100.17
3740.00,100.17
3739.00,100.17
3738.00,100.15
3737.00,100.13
3736.00,100.10
3735.00,100.07
3734.00,100.04
3733.00,100.02
3732.00,100.02
3731.00,100.05
3730.00,100.08
3729.00,100.10
3728.00,100.12
3727.00,100.11
3726.00,100.11
3725.00,100.10
3724.00,100.09
3723.00,100.09
3722.00,100.09
3721.00,100.10
3720.00,100.11
3719.00,100.12
3718.00,100.13
3717.00,100.13
3716.00,100.13
3715.00,100.13
3714.00,100.12
3713.00,100.12
3712.00,100.10
3711.00,100.08
3710.00,100.07
3709.00,100.06
3708.00,100.06
3707.00,100.07
3706.00,100.08
3705.00,100.08
3704.00,100.08
3703.00,100.08
3702.00,100.07
3701.00,100.06
3700.00,100.05
3699.00,100.06
3698.00,100.08
3697.00,100.09
3696.00,100.09
3695.00,100.06
3694.00,100.04
3693.00,100.02
3692.00,100.02
3691.00,100.04
3690.00,100.07
3689.00,100.10
3688.00,100.12
3687.00,100.12
3686.00,100.12
3685.00,100.10
3684.00,100.09
3683.00,100.08
3682.00,100.07
3681.00,100.07
3680.00,100.07
3679.00,100.06
3678.00,100.05
3677.00,100.05
3676.00,100.04
3675.00,100.03
3674.00,100.01
3673.00,99.99
3672.00,99.97
3671.00,99.96
3670.00,99.94
3669.00,99.93
3668.00,99.94
3667.00,99.96
3666.00,99.97
3665.00,99.97
3664.00,99.96
3663.00,99.95
3662.00,99.94
3661.00,99.95
3660.00,99.96
3659.00,99.97
3658.00,99.97
3657.00,99.96
3656.00,99.95
3655.00,99.93
3654.00,99.91
3653.00,99.88
3652.00,99.86
3651.00,99.85
3650.00,99.84
3649.00,99.84
3648.00,99.85
3647.00,99.86
3646.00,99.86
3645.00,99.85
3644.00,99.84
3643.00,99.83
3642.00,99.82
3641.00,99.83
3640.00,99.84
3639.00,99.84
3638.00,99.83
3637.00,99.81
3636.00,99.79
3635.00,99.78
3634.00,99.78
3633.00,99.79
3632.00,99.79
3631.00,99.77
3630.00,99.74
3629.00,99.70
3628.00,99.67
3627.00,99.68
3626.00,99.70
3625.00,99.73
3624.00,99.75
3623.00,99.76
3622.00,99.76
3621.00,99.76
3620.00,99.75
3619.00,99.74
3618.00,99.72
3617.00,99.69
3616.00,99.65
3615.00,99.62
3614.00,99.59
3613.00,99.58
3612.00,99.58
3611.00,99.59
3610.00,99.61
3609.00,99.61
3608.00,99.60
3607.00,99.58
3606.00,99.55
3605.00,99.53
3604.00,99.51
3603.00,99.51
3602.00,99.51
3601.00,99.52
3600.00,99.52
3599.00,99.51
3598.00,99.50
3597.00,99.49
3596.00,99.48
3595.00,99.47
3594.00,99.45
3593.00,99.44
3592.00,99.42
3591.00,99.41
3590.00,99.41
3589.00,99.42
3588.00,99.43
3587.00,99.42
3586.00,99.40
3585.00,99.38
3584.00,99.37
3583.00,99.36
3582.00,99.34
3581.00,99.33
3580.00,99.32
3579.00,99.32
3578.00,99.32
3577.00,99.32
3576.00,99.32
3575.00,99.31
3574.00,99.30
3573.00,99.29
3572.00,99.28
3571.00,99.27
3570.00,99.27
3569.00,99.26
3568.00,99.26
3567.00,99.25
3566.00,99.24
3565.00,99.23
3564.00,99.21
3563.00,99.19
3562.00,99.17
3561.00,99.15
3560.00,99.14
3559.00,99.14
3558.00,99.14
3557.00,99.13
3556.00,99.11
3555.00,99.08
3554.00,99.05
3553.00,99.03
3552.00,99.01
3551.00,99.00
3550.00,98.99
3549.00,98.98
3548.00,98.96
3547.00,98.94
3546.00,98.93
3545.00,98.93
3544.00,98.94
3543.00,98.94
3542.00,98.94
3541.00,98.94
3540.00,98.92
3539.00,98.89
3538.00,98.86
3537.00,98.83
3536.00,98.81
3535.00,98.80
3534.00,98.79
3533.00,98.80
3532.00,98.82
3531.00,98.84
3530.00,98.85
3529.00,98.85
3528.00,98.83
3527.00,98.81
3526.00,98.79
3525.00,98.77
3524.00,98.74
3523.00,98.71
3522.00,98.68
3521.00,98.67
3520.00,98.66
3519.00,98.65
3518.00,98.64
3517.00,98.64
3516.00,98.64
3515.00,98.64
3514.00,98.63
3513.00,98.61
3512.00,98.59
3511.00,98.56
3510.00,98.54
3509.00,98.52
3508.00,98.51
3507.00,98.50
3506.00,98.50
3505.00,98.51
3504.00,98.50
3503.00,98.48
3502.00,98.45
3501.00,98.43
3500.00,98.42
3499.00,98.43
3498.00,98.44
3497.00,98.44
3496.00,98.43
3495.00,98.41
3494.00,98.39
3493.00,98.36
3492.00,98.35
3491.00,98.35
3490.00,98.35
3489.00,98.35
3488.00,98.35
3487.00,98.34
3486.00,98.34
3485.00,98.33
3484.00,98.33
3483.00,98.32
3482.00,98.30
3481.00,98.28
3480.00,98.26
3479.00,98.25
3478.00,98.24
3477.00,98.24
3476.00,98.23
3475.00,98.22
3474.00,98.22
3473.00,98.21
3472.00,98.19
3471.00,98.17
3470.00,98.15
3469.00,98.14
3468.00,98.13
3467.00,98.13
3466.00,98.12
3465.00,98.10
3464.00,98.07
3463.00,98.05
3462.00,98.03
3461.00,98.02
3460.00,98.02
3459.00,98.02
3458.00,98.01
3457.00,98.01
3456.00,98.00
3455.00,97.98
3454.00,97.96
3453.00,97.94
3452.00,97.92
3451.00,97.91
3450.00,97.91
3449.00,97.91
3448.00,97.91
3447.00,97.90
3446.00,97.88
3445.00,97.86
3444.00,97.85
3443.00,97.84
3442.00,97.83
3441.00,97.80
3440.00,97.78
3439.00,97.77
3438.00,97.78
3437.00,97.78
3436.00,97.78
3435.00,97.75
3434.00,97.73
3433.00,97.73
3432.00,97.74
3431.00,97.75
3430.00,97.74
3429.00,97.71
3428.00,97.68
3427.00,97.66
3426.00,97.65
3425.00,97.65
3424.00,97.65
3423.00,97.64
3422.00,97.63
3421.00,97.60
3420.00,97.57
3419.00,97.54
3418.00,97.52
3417.00,97.53
3416.00,97.55
3415.00,97.57
3414.00,97.57
3413.00,97.56
3412.00,97.53
3411.00,97.51
3410.00,97.50
3409.00,97.48
3408.00,97.46
3407.00,97.44
3406.00,97.43
3405.00,97.41
3404.00,97.40
3403.00,97.40
3402.00,97.39
3401.00,97.38
3400.00,97.36
3399.00,97.34
3398.00,97.33
3397.00,97.32
3396.00,97.31
3395.00,97.30
3394.00,97.29
3393.00,97.27
3392.00,97.26
3391.00,97.26
3390.00,97.26
3389.00,97.25
3388.00,97.23
3387.00,97.20
3386.00,97.17
3385.00,97.14
3384.00,97.12
3383.00,97.11
3382.00,97.11
3381.00,97.09
3380.00,97.07
3379.00,97.05
3378.00,97.03
3377.00,97.01
3376.00,96.99
3375.00,96.97
3374.00,96.96
3373.00,96.95
3372.00,96.95
3371.00,96.95
3370.00,96.94
3369.00,96.93
3368.00,96.92
3367.00,96.90
3366.00,96.88
3365.00,96.86
3364.00,96.84
3363.00,96.82
3362.00,96.80
3361.00,96.77
3360.00,96.75
3359.00,96.72
3358.00,96.71
3357.00,96.70
3356.00,96.69
3355.00,96.69
3354.00,96.69
3353.00,96.67
3352.00,96.65
3351.00,96.61
3350.00,96.59
3349.00,96.57
3348.00,96.56
3347.00,96.54
3346.00,96.52
3345.00,96.49
3344.00,96.45
3343.00,96.41
3342.00,96.38
3341.00,96.36
3340.00,96.33
3339.00,96.31
3338.00,96.28
3337.00,96.25
3336.00,96.22
3335.00,96.19
3334.00,96.17
3333.00,96.14
3332.00,96.12
3331.00,96.09
3330.00,96.07
3329.00,96.03
3328.00,95.98
3327.00,95.94
3326.00,95.90
3325.00,95.86
3324.00,95.83
3323.00,95.80
3322.00,95.76
3321.00,95.72
3320.00,95.68
3319.00,95.65
3318.00,95.62
3317.00,95.58
3316.00,95.55
3315.00,95.51
3314.00,95.47
3313.00,95.42
3312.00,95.38
3311.00,95.34
3310.00,95.30
3309.00,95.25
3308.00,95.20
3307.00,95.16
3306.00,95.12
3305.00,95.08
3304.00,95.02
3303.00,94.96
3302.00,94.89
3301.00,94.83
3300.00,94.78
3299.00,94.74
3298.00,94.70
3297.00,94.66
3296.00,94.61
3295.00,94.56
3294.00,94.52
3293.00,94.47
3292.00,94.43
3291.00,94.40
3290.00,94.37
3289.00,94.33
3288.00,94.30
3287.00,94.27
3286.00,94.24
3285.00,94.21
3284.00,94.19
3283.00,94.16
3282.00,94.12
3281.00,94.09
3280.00,94.06
3279.00,94.04
3278.00,94.04
3277.00,94.05
3276.00,94.07
3275.00,94.09
3274.00,94.10
3273.00,94.11
3272.00,94.11
3271.00,94.13
3270.00,94.15
3269.00,94.17
3268.00,94.20
3267.00,94.22
3266.00,94.25
3265.00,94.27
3264.00,94.30
3263.00,94.34
3262.00,94.39
3261.00,94.42
3260.00,94.44
3259.00,94.46
3258.00,94.49
3257.00,94.52
3256.00,94.56
3255.00,94.60
3254.00,94.63
3253.00,94.66
3252.00,94.69
3251.00,94.72
3250.00,94.77
3249.00,94.82
3248.00,94.86
3247.00,94.89
3246.00,94.90
3245.00,94.92
3244.00,94.94
3243.00,94.97
3242.00,95.01
3241.00,95.04
3240.00,95.07
3239.00,95.11
3238.00,95.14
3237.00,95.18
3236.00,95.21
3235.00,95.23
3234.00,95.25
3233.00,95.27
3232.00,95.29
3231.00,95.31
3230.00,95.33
3229.00,95.34
3228.00,95.36
3227.00,95.38
3226.00,95.40
3225.00,95.42
3224.00,95.43
3223.00,95.44
3222.00,95.46
3221.00,95.48
3220.00,95.52
3219.00,95.55
3218.00,95.58
3217.00,95.60
3216.00,95.61
3215.00,95.62
3214.00,95.63
3213.00,95.64
3212.00,95.66
3211.00,95.68
3210.00,95.70
3209.00,95.73
3208.00,95.75
3207.00,95.78
3206.00,95.79
3205.00,95.80
3204.00,95.81
3203.00,95.82
3202.00,95.84
3201.00,95.87
3200.00,95.90
3199.00,95.93
3198.00,95.96
3197.00,95.97
3196.00,95.97
3195.00,95.98
3194.00,96.00
3193.00,96.02
3192.00,96.05
3191.00,96.07
3190.00,96.08
3189.00,96.10
3188.00,96.11
3187.00,96.14
3186.00,96.18
3185.00,96.22
3184.00,96.24
3183.00,96.26
3182.00,96.27
3181.00,96.27
3180.00,96.29
3179.00,96.32
3178.00,96.36
3177.00,96.40
3176.00,96.43
3175.00,96.45
3174.00,96.48
3173.00,96.51
3172.00,96.55
3171.00,96.59
3170.00,96.62
3169.00,96.62
3168.00,96.62
3167.00,96.62
3166.00,96.63
3165.00,96.64
3164.00,96.66
3163.00,96.68
3162.00,96.70
3161.00,96.73
3160.00,96.75
3159.00,96.77
3158.00,96.79
3157.00,96.82
3156.00,96.84
3155.00,96.87
3154.00,96.90
3153.00,96.93
3152.00,96.96
3151.00,96.98
3150.00,96.99
3149.00,97.00
3148.00,97.01
3147.00,97.02
3146.00,97.04
3145.00,97.06
3144.00,97.08
3143.00,97.09
3142.00,97.10
3141.00,97.11
3140.00,97.13
3139.00,97.16
3138.00,97.18
3137.00,97.18
3136.00,97.17
3135.00,97.16
3134.00,97.17
3133.00,97.19
3132.00,97.22
3131.00,97.25
3130.00,97.27
3129.00,97.27
3128.00,97.28
3127.00,97.29
3126.00,97.30
3125.00,97.31
3124.00,97.32
3123.00,97.32
3122.00,97.32
3121.00,97.32
3120.00,97.33
3119.00,97.33
3118.00,97.34
3117.00,97.36
3116.00,97.37
3115.00,97.38
3114.00,97.38
3113.00,97.38
3112.00,97.38
3111.00,97.38
3110.00,97.38
3109.00,97.38
3108.00,97.38
3107.00,97.39
3106.00,97.38
3105.00,97.38
3104.00,97.37
3103.00,97.36
3102.00,97.35
3101.00,97.34
3100.00,97.33
3099.00,97.33
3098.00,97.33
3097.00,97.34
3096.00,97.34
3095.00,97.34
3094.00,97.35
3093.00,97.36
3092.00,97.36
3091.00,97.36
3090.00,97.35
3089.00,97.34
3088.00,97.33
3087.00,97.32
3086.00,97.31
3085.00,97.31
3084.00,97.31
3083.00,97.32
3082.00,97.33
3081.00,97.33
3080.00,97.32
3079.00,97.31
3078.00,97.31
3077.00,97.32
3076.00,97.32
3075.00,97.31
3074.00,97.30
3073.00,97.30
3072.00,97.30
3071.00,97.31
3070.00,97.32
3069.00,97.33
3068.00,97.34
3067.00,97.36
3066.00,97.37
3065.00,97.36
3064.00,97.35
3063.00,97.34
3062.00,97.35
3061.00,97.36
3060.00,97.38
3059.00,97.39
3058.00,97.41
3057.00,97.43
3056.00,97.46
3055.00,97.47
3054.00,97.49
3053.00,97.51
3052.00,97.53
3051.00,97.54
3050.00,97.54
3049.00,97.55
3048.00,97.56
3047.00,97.58
3046.00,97.60
3045.00,97.62
3044.00,97.63
3043.00,97.64
3042.00,97.65
3041.00,97.67
3040.00,97.70
3039.00,97.73
3038.00,97.75
3037.00,97.76
3036.00,97.77
3035.00,97.77
3034.00,97.78
3033.00,97.80
3032.00,97.82
3031.00,97.83
3030.00,97.84
3029.00,97.85
3028.00,97.86
3027.00,97.87
3026.00,97.89
3025.00,97.90
3024.00,97.90
3023.00,97.90
3022.00,97.90
3021.00,97.90
3020.00,97.91
3019.00,97.92
3018.00,97.93
3017.00,97.95
3016.00,97.96
3015.00,97.96
3014.00,97.95
3013.00,97.95
3012.00,97.96
3011.00,97.98
3010.00,98.00
3009.00,98.01
3008.00,98.02
3007.00,98.03
3006.00,98.03
3005.00,98.04
3004.00,98.04
3003.00,98.03
3002.00,98.02
3001.00,98.00
3000.00,97.99
2999.00,97.99
2998.00,98.01
2997.00,98.02
2996.00,98.03
2995.00,98.03
2994.00,98.01
2993.00,97.99
2992.00,97.97
2991.00,97.96
2990.00,97.94
2989.00,97.92
2988.00,97.91
2987.00,97.90
2986.00,97.89
2985.00,97.88
2984.00,97.87
2983.00,97.85
2982.00,97.82
2981.00,97.79
2980.00,97.75
2979.00,97.73
2978.00,97.71
2977.00,97.70
2976.00,97.69
2975.00,97.68
2974.00,97.65
2973.00,97.62
2972.00,97.59
2971.00,97.56
2970.00,97.52
2969.00,97.49
2968.00,97.44
2967.00,97.38
2966.00,97.33
2965.00,97.28
2964.00,97.26
2963.00,97.26
2962.00,97.25
2961.00,97.22
2960.00,97.18
2959.00,97.14
2958.00,97.10
2957.00,97.07
2956.00,97.05
2955.00,97.03
2954.00,97.02
2953.00,97.01
2952.00,97.00
2951.00,96.98
2950.00,96.96
2949.00,96.93
2948.00,96.89
2947.00,96.85
2946.00,96.80
2945.00,96.75
2944.00,96.71
2943.00,96.66
2942.00,96.61
2941.00,96.56
2940.00,96.49
2939.00,96.42
2938.00,96.35
2937.00,96.30
2936.00,96.24
2935.00,96.18
2934.00,96.12
2933.00,96.05
2932.00,95.99
2931.00,95.93
2930.00,95.88
2929.00,95.85
2928.00,95.84
2927.00,95.84
2926.00,95.84
2925.00,95.84
2924.00,95.83
2923.00,95.83
2922.00,95.85
2921.00,95.89
2920.00,95.94
2919.00,95.99
2918.00,96.05
2917.00,96.12
2916.00,96.20
2915.00,96.29
2914.00,96.38
2913.00,96.47
2912.00,96.54
2911.00,96.61
2910.00,96.67
2909.00,96.74
2908.00,96.79
2907.00,96.85
2906.00,96.89
2905.00,96.93
2904.00,96.96
2903.00,97.00
2902.00,97.04
2901.00,97.08
2900.00,97.12
2899.00,97.15
2898.00,97.19
2897.00,97.23
2896.00,97.27
2895.00,97.32
2894.00,97.35
2893.00,97.38
2892.00,97.39
2891.00,97.40
2890.00,97.41
2889.00,97.44
2888.00,97.46
2887.00,97.49
2886.00,97.50
2885.00,97.51
2884.00,97.51
2883.00,97.50
2882.00,97.50
2881.00,97.49
2880.00,97.50
2879.00,97.50
2878.00,97.49
2877.00,97.48
2876.00,97.46
2875.00,97.44
2874.00,97.42
2873.00,97.41
2872.00,97.40
2871.00,97.40
2870.00,97.39
2869.00,97.39
2868.00,97.38
2867.00,97.36
2866.00,97.34
2865.00,97.32
2864.00,97.30
2863.00,97.27
2862.00,97.23
2861.00,97.19
2860.00,97.15
2859.00,97.11
2858.00,97.07
2857.00,97.03
2856.00,97.00
2855.00,96.98
2854.00,96.97
2853.00,96.97
2852.00,96.98
2851.00,97.02
2850.00,97.09
2849.00,97.17
2848.00,97.26
2847.00,97.36
2846.00,97.47
2845.00,97.57
2844.00,97.67
2843.00,97.75
2842.00,97.83
2841.00,97.89
2840.00,97.95
2839.00,98.00
2838.00,98.04
2837.00,98.07
2836.00,98.09
2835.00,98.11
2834.00,98.14
2833.00,98.17
2832.00,98.20
2831.00,98.23
2830.00,98.25
2829.00,98.26
2828.00,98.26
2827.00,98.27
2826.00,98.28
2825.00,98.30
2824.00,98.31
2823.00,98.33
2822.00,98.33
2821.00,98.33
2820.00,98.33
2819.00,98.33
2818.00,98.34
2817.00,98.36
2816.00,98.38
2815.00,98.39
2814.00,98.41
2813.00,98.42
2812.00,98.42
2811.00,98.43
2810.00,98.43
2809.00,98.43
2808.00,98.43
2807.00,98.43
2806.00,98.43
2805.00,98.44
2804.00,98.45
2803.00,98.45
2802.00,98.46
2801.00,98.48
2800.00,98.50
2799.00,98.51
2798.00,98.51
2797.00,98.51
2796.00,98.50
2795.00,98.51
2794.00,98.51
2793.00,98.52
2792.00,98.53
2791.00,98.54
2790.00,98.55
2789.00,98.55
2788.00,98.56
2787.00,98.56
2786.00,98.57
2785.00,98.58
2784.00,98.59
2783.00,98.60
2782.00,98.61
2781.00,98.62
2780.00,98.62
2779.00,98.62
2778.00,98.62
2777.00,98.63
2776.00,98.63
2775.00,98.64
2774.00,98.64
2773.00,98.64
2772.00,98.63
2771.00,98.64
2770.00,98.64
2769.00,98.64
2768.00,98.64
2767.00,98.64
2766.00,98.65
2765.00,98.67
2764.00,98.69
2763.00,98.70
2762.00,98.70
2761.00,98.71
2760.00,98.71
2759.00,98.72
2758.00,98.73
2757.00,98.73
2756.00,98.73
2755.00,98.73
2754.00,98.73
2753.00,98.73
2752.00,98.73
2751.00,98.73
2750.00,98.74
2749.00,98.74
2748.00,98.75
2747.00,98.75
2746.00,98.75
2745.00,98.75
2744.00,98.76
2743.00,98.76
2742.00,98.76
2741.00,98.76
2740.00,98.76
2739.00,98.76
2738.00,98.76
2737.00,98.78
2736.00,98.78
2735.00,98.79
2734.00,98.79
2733.00,98.79
2732.00,98.79
2731.00,98.79
2730.00,98.80
2729.00,98.80
2728.00,98.81
2727.00,98.81
2726.00,98.81
2725.00,98.81
2724.00,98.82
2723.00,98.83
2722.00,98.83
2721.00,98.84
2720.00,98.83
2719.00,98.83
2718.00,98.82
2717.00,98.82
2716.00,98.82
2715.00,98.83
2714.00,98.83
2713.00,98.84
2712.00,98.85
2711.00,98.87
2710.00,98.88
2709.00,98.89
2708.00,98.89
2707.00,98.89
2706.00,98.89
2705.00,98.89
2704.00,98.89
2703.00,98.89
2702.00,98.90
2701.00,98.90
2700.00,98.90
2699.00,98.90
2698.00,98.90
2697.00,98.90
2696.00,98.90
2695.00,98.91
2694.00,98.93
2693.00,98.93
2692.00,98.94
2691.00,98.93
2690.00,98.93
2689.00,98.93
2688.00,98.92
2687.00,98.92
2686.00,98.92
2685.00,98.92
2684.00,98.92
2683.00,98.92
2682.00,98.92
2681.00,98.92
2680.00,98.92
2679.00,98.93
2678.00,98.93
2677.00,98.93
2676.00,98.93
2675.00,98.93
2674.00,98.94
2673.00,98.94
2672.00,98.95
2671.00,98.95
2670.00,98.95
2669.00,98.95
2668.00,98.95
2667.00,98.96
2666.00,98.95
2665.00,98.95
2664.00,98.94
2663.00,98.93
2662.00,98.92
2661.00,98.91
2660.00,98.91
2659.00,98.91
2658.00,98.91
2657.00,98.91
2656.00,98.90
2655.00,98.90
2654.00,98.90
2653.00,98.90
2652.00,98.91
2651.00,98.91
2650.00,98.90
2649.00,98.89
2648.00,98.88
2647.00,98.87
2646.00,98.87
2645.00,98.86
2644.00,98.86
2643.00,98.85
2642.00,98.84
2641.00,98.84
2640.00,98.83
2639.00,98.83
2638.00,98.82
2637.00,98.81
2636.00,98.81
2635.00,98.82
2634.00,98.83
2633.00,98.82
2632.00,98.81
2631.00,98.80
2630.00,98.79
2629.00,98.79
2628.00,98.79
2627.00,98.78
2626.00,98.77
2625.00,98.76
2624.00,98.75
2623.00,98.74
2622.00,98.73
2621.00,98.73
2620.00,98.73
2619.00,98.74
2618.00,98.74
2617.00,98.75
2616.00,98.76
2615.00,98.77
2614.00,98.76
2613.00,98.75
2612.00,98.75
2611.00,98.75
2610.00,98.76
2609.00,98.76
2608.00,98.75
2607.00,98.74
2606.00,98.73
2605.00,98.72
2604.00,98.72
2603.00,98.72
2602.00,98.71
2601.00,98.70
2600.00,98.69
2599.00,98.68
2598.00,98.68
2597.00,98.67
2596.00,98.68
2595.00,98.69
2594.00,98.71
2593.00,98.73
2592.00,98.73
2591.00,98.72
2590.00,98.70
2589.00,98.68
2588.00,98.68
2587.00,98.69
2586.00,98.69
2585.00,98.69
2584.00,98.69
2583.00,98.69
2582.00,98.70
2581.00,98.71
2580.00,98.72
2579.00,98.71
2578.00,98.69
2577.00,98.67
2576.00,98.67
2575.00,98.67
2574.00,98.67
2573.00,98.68
2572.00,98.68
2571.00,98.68
2570.00,98.68
2569.00,98.68
2568.00,98.68
2567.00,98.68
2566.00,98.68
2565.00,98.68
2564.00,98.68
2563.00,98.68
2562.00,98.68
2561.00,98.67
2560.00,98.67
2559.00,98.67
2558.00,98.67
2557.00,98.66
2556.00,98.66
2555.00,98.65
2554.00,98.65
2553.00,98.65
2552.00,98.65
2551.00,98.65
2550.00,98.66
2549.00,98.67
2548.00,98.67
2547.00,98.67
2546.00,98.66
2545.00,98.66
2544.00,98.67
2543.00,98.68
2542.00,98.68
2541.00,98.68
2540.00,98.67
2539.00,98.67
2538.00,98.66
2537.00,98.64
2536.00,98.63
2535.00,98.62
2534.00,98.62
2533.00,98.63
2532.00,98.65
2531.00,98.69
2530.00,98.72
2529.00,98.73
2528.00,98.73
2527.00,98.73
2526.00,98.73
2525.00,98.73
2524.00,98.72
2523.00,98.72
2522.00,98.70
2521.00,98.70
2520.00,98.70
2519.00,98.70
2518.00,98.70
2517.00,98.70
2516.00,98.71
2515.00,98.72
2514.00,98.73
2513.00,98.72
2512.00,98.70
2511.00,98.69
2510.00,98.70
2509.00,98.71
2508.00,98.73
2507.00,98.74
2506.00,98.74
2505.00,98.74
2504.00,98.74
2503.00,98.74
2502.00,98.73
2501.00,98.72
2500.00,98.71
2499.00,98.71
2498.00,98.71
2497.00,98.71
2496.00,98.71
2495.00,98.70
2494.00,98.70
2493.00,98.71
2492.00,98.73
2491.00,98.76
2490.00,98.77
2489.00,98.77
2488.00,98.76
2487.00,98.75
2486.00,98.74
2485.00,98.73
2484.00,98.73
2483.00,98.73
2482.00,98.73
2481.00,98.73
2480.00,98.73
2479.00,98.73
2478.00,98.73
2477.00,98.73
2476.00,98.73
2475.00,98.74
2474.00,98.75
2473.00,98.75
2472.00,98.73
2471.00,98.72
2470.00,98.72
2469.00,98.72
2468.00,98.73
2467.00,98.73
2466.00,98.74
2465.00,98.74
2464.00,98.75
2463.00,98.75
2462.00,98.74
2461.00,98.74
2460.00,98.73
2459.00,98.74
2458.00,98.76
2457.00,98.77
2456.00,98.77
2455.00,98.77
2454.00,98.76
2453.00,98.75
2452.00,98.75
2451.00,98.76
2450.00,98.77
2449.00,98.78
2448.00,98.78
2447.00,98.79
2446.00,98.80
2445.00,98.81
2444.00,98.83
2443.00,98.85
2442.00,98.85
2441.00,98.86
2440.00,98.86
2439.00,98.86
2438.00,98.85
2437.00,98.85
2436.00,98.83
2435.00,98.81
2434.00,98.79
2433.00,98.77
2432.00,98.76
2431.00,98.75
2430.00,98.75
2429.00,98.76
2428.00,98.77
2427.00,98.79
2426.00,98.80
2425.00,98.81
2424.00,98.81
2423.00,98.82
2422.00,98.83
2421.00,98.84
2420.00,98.85
2419.00,98.85
2418.00,98.85
2417.00,98.85
2416.00,98.84
2415.00,98.84
2414.00,98.84
2413.00,98.84
2412.00,98.85
2411.00,98.86
2410.00,98.87
2409.00,98.88
2408.00,98.88
2407.00,98.88
2406.00,98.88
2405.00,98.88
2404.00,98.89
2403.00,98.90
2402.00,98.91
2401.00,98.93
2400.00,98.96
2399.00,98.98
2398.00,98.99
2397.00,98.98
2396.00,98.97
2395.00,98.97
2394.00,98.98
2393.00,98.99
2392.00,99.00
2391.00,99.00
2390.00,99.00
2389.00,99.00
2388.00,99.01
2387.00,99.03
2386.00,99.04
2385.00,99.03
2384.00,99.03
2383.00,99.03
2382.00,99.04
2381.00,99.06
2380.00,99.07
2379.00,99.08
2378.00,99.10
2377.00,99.12
2376.00,99.15
2375.00,99.18
2374.00,99.19
2373.00,99.16
2372.00,99.10
2371.00,99.03
2370.00,98.99
2369.00,99.01
2368.00,99.08
2367.00,99.18
2366.00,99.24
2365.00,99.23
2364.00,99.18
2363.00,99.13
2362.00,99.09
2361.00,99.06
2360.00,99.04
2359.00,99.03
2358.00,99.03
2357.00,99.06
2356.00,99.09
2355.00,99.13
2354.00,99.15
2353.00,99.15
2352.00,99.12
2351.00,99.09
2350.00,99.08
2349.00,99.11
2348.00,99.15
2347.00,99.18
2346.00,99.17
2345.00,99.15
2344.00,99.11
2343.00,99.10
2342.00,99.10
2341.00,99.10
2340.00,99.11
2339.00,99.11
2338.00,99.10
2337.00,99.08
2336.00,99.06
2335.00,99.04
2334.00,99.05
2333.00,99.07
2332.00,99.12
2331.00,99.15
2330.00,99.16
2329.00,99.15
2328.00,99.13
2327.00,99.11
2326.00,99.06
2325.00,98.99
2324.00,98.92
2323.00,98.88
2322.00,98.88
2321.00,98.90
2320.00,98.92
2319.00,98.94
2318.00,98.94
2317.00,98.93
2316.00,98.92
2315.00,98.91
2314.00,98.89
2313.00,98.88
2312.00,98.86
2311.00,98.84
2310.00,98.82
2309.00,98.80
2308.00,98.80
2307.00,98.79
2306.00,98.79
2305.00,98.79
2304.00,98.79
2303.00,98.79
2302.00,98.79
2301.00,98.78
2300.00,98.76
2299.00,98.75
2298.00,98.73
2297.00,98.72
2296.00,98.70
2295.00,98.69
2294.00,98.68
2293.00,98.66
2292.00,98.65
2291.00,98.64
2290.00,98.63
2289.00,98.63
2288.00,98.62
2287.00,98.60
2286.00,98.58
2285.00,98.55
2284.00,98.54
2283.00,98.53
2282.00,98.53
2281.00,98.54
2280.00,98.56
2279.00,98.57
2278.00,98.57
2277.00,98.55
2276.00,98.52
2275.00,98.50
2274.00,98.48
2273.00,98.48
2272.00,98.49
2271.00,98.49
2270.00,98.48
2269.00,98.45
2268.00,98.42
2267.00,98.39
2266.00,98.38
2265.00,98.37
2264.00,98.38
2263.00,98.40
2262.00,98.42
2261.00,98.42
2260.00,98.41
2259.00,98.38
2258.00,98.36
2257.00,98.35
2256.00,98.34
2255.00,98.34
2254.00,98.32
2253.00,98.30
2252.00,98.28
2251.00,98.26
2250.00,98.26
2249.00,98.25
2248.00,98.25
2247.00,98.26
2246.00,98.28
2245.00,98.29
2244.00,98.28
2243.00,98.25
2242.00,98.22
2241.00,98.20
2240.00,98.19
2239.00,98.17
2238.00,98.14
2237.00,98.11
2236.00,98.11
2235.00,98.14
2234.00,98.17
2233.00,98.18
2232.00,98.17
2231.00,98.15
2230.00,98.13
2229.00,98.12
2228.00,98.10
2227.00,98.09
2226.00,98.08
2225.00,98.07
2224.00,98.05
2223.00,98.05
2222.00,98.06
2221.00,98.07
2220.00,98.07
2219.00,98.05
2218.00,98.02
2217.00,98.01
2216.00,98.01
2215.00,98.02
2214.00,98.02
2213.00,97.99
2212.00,97.95
2211.00,97.91
2210.00,97.90
2209.00,97.92
2208.00,97.96
2207.00,97.97
2206.00,97.97
2205.00,97.96
2204.00,97.95
2203.00,97.94
2202.00,97.94
2201.00,97.91
2200.00,97.89
2199.00,97.87
2198.00,97.86
2197.00,97.83
2196.00,97.80
2195.00,97.79
2194.00,97.80
2193.00,97.82
2192.00,97.81
2191.00,97.77
2190.00,97.73
2189.00,97.69
2188.00,97.66
2187.00,97.61
2186.00,97.55
2185.00,97.50
2184.00,97.49
2183.00,97.52
2182.00,97.57
2181.00,97.61
2180.00,97.63
2179.00,97.63
2178.00,97.61
2177.00,97.60
2176.00,97.60
2175.00,97.60
2174.00,97.61
2173.00,97.61
2172.00,97.60
2171.00,97.58
2170.00,97.56
2169.00,97.52
2168.00,97.47
2167.00,97.40
2166.00,97.34
2165.00,97.29
2164.00,97.25
2163.00,97.21
2162.00,97.17
2161.00,97.16
2160.00,97.19
2159.00,97.27
2158.00,97.37
2157.00,97.47
2156.00,97.58
2155.00,97.67
2154.00,97.72
2153.00,97.72
2152.00,97.71
2151.00,97.70
2150.00,97.71
2149.00,97.74
2148.00,97.81
2147.00,97.89
2146.00,97.96
2145.00,98.00
2144.00,98.02
2143.00,98.03
2142.00,98.02
2141.00,98.02
2140.00,98.06
2139.00,98.12
2138.00,98.18
2137.00,98.24
2136.00,98.29
2135.00,98.34
2134.00,98.38
2133.00,98.39
2132.00,98.39
2131.00,98.38
2130.00,98.38
2129.00,98.39
2128.00,98.41
2127.00,98.44
2126.00,98.47
2125.00,98.49
2124.00,98.50
2123.00,98.50
2122.00,98.50
2121.00,98.49
2120.00,98.48
2119.00,98.48
2118.00,98.46
2117.00,98.45
2116.00,98.44
2115.00,98.44
2114.00,98.44
2113.00,98.45
2112.00,98.46
2111.00,98.46
2110.00,98.46
2109.00,98.45
2108.00,98.43
2107.00,98.42
2106.00,98.42
2105.00,98.44
2104.00,98.44
2103.00,98.43
2102.00,98.41
2101.00,98.39
2100.00,98.39
2099.00,98.40
2098.00,98.40
2097.00,98.39
2096.00,98.41
2095.00,98.44
2094.00,98.48
2093.00,98.49
2092.00,98.49
2091.00,98.49
2090.00,98.49
2089.00,98.48
2088.00,98.47
2087.00,98.45
2086.00,98.42
2085.00,98.39
2084.00,98.38
2083.00,98.38
2082.00,98.39
2081.00,98.40
2080.00,98.39
2079.00,98.38
2078.00,98.37
2077.00,98.36
2076.00,98.34
2075.00,98.33
2074.00,98.31
2073.00,98.29
2072.00,98.29
2071.00,98.30
2070.00,98.30
2069.00,98.29
2068.00,98.28
2067.00,98.29
2066.00,98.33
2065.00,98.36
2064.00,98.37
2063.00,98.34
2062.00,98.30
2061.00,98.23
2060.00,98.18
2059.00,98.17
2058.00,98.18
2057.00,98.21
2056.00,98.22
2055.00,98.20
2054.00,98.15
2053.00,98.08
2052.00,98.00
2051.00,97.96
2050.00,97.95
2049.00,97.98
2048.00,97.99
2047.00,97.99
2046.00,97.97
2045.00,97.94
2044.00,97.92
2043.00,97.91
2042.00,97.89
2041.00,97.85
2040.00,97.80
2039.00,97.73
2038.00,97.65
2037.00,97.59
2036.00,97.59
2035.00,97.65
2034.00,97.73
2033.00,97.78
2032.00,97.81
2031.00,97.81
2030.00,97.81
2029.00,97.78
2028.00,97.76
2027.00,97.74
2026.00,97.71
2025.00,97.67
2024.00,97.64
2023.00,97.65
2022.00,97.71
2021.00,97.77
2020.00,97.79
2019.00,97.78
2018.00,97.78
2017.00,97.81
2016.00,97.86
2015.00,97.90
2014.00,97.89
2013.00,97.84
2012.00,97.79
2011.00,97.76
2010.00,97.74
2009.00,97.75
2008.00,97.80
2007.00,97.89
2006.00,97.98
2005.00,98.04
2004.00,98.06
2003.00,98.06
2002.00,98.06
2001.00,98.05
2000.00,98.04
1999.00,98.03
1998.00,98.03
1997.00,98.03
1996.00,98.03
1995.00,98.04
1994.00,98.04
1993.00,98.04
1992.00,98.02
1991.00,98.03
1990.00,98.04
1989.00,98.06
1988.00,98.04
1987.00,97.99
1986.00,97.94
1985.00,97.91
1984.00,97.89
1983.00,97.86
1982.00,97.80
1981.00,97.74
1980.00,97.71
1979.00,97.71
1978.00,97.73
1977.00,97.74
1976.00,97.73
1975.00,97.73
1974.00,97.75
1973.00,97.80
1972.00,97.88
1971.00,97.98
1970.00,98.06
1969.00,98.10
1968.00,98.10
1967.00,98.08
1966.00,98.05
1965.00,98.02
1964.00,98.02
1963.00,98.06
1962.00,98.13
1961.00,98.22
1960.00,98.30
1959.00,98.33
1958.00,98.33
1957.00,98.32
1956.00,98.32
1955.00,98.33
1954.00,98.35
1953.00,98.37
1952.00,98.40
1951.00,98.47
1950.00,98.55
1949.00,98.60
1948.00,98.62
1947.00,98.62
1946.00,98.61
1945.00,98.61
1944.00,98.62
1943.00,98.64
1942.00,98.65
1941.00,98.67
1940.00,98.69
1939.00,98.71
1938.00,98.72
1937.00,98.73
1936.00,98.73
1935.00,98.75
1934.00,98.79
1933.00,98.82
1932.00,98.84
1931.00,98.84
1930.00,98.83
1929.00,98.82
1928.00,98.82
1927.00,98.83
1926.00,98.85
1925.00,98.84
1924.00,98.83
1923.00,98.84
1922.00,98.85
1921.00,98.87
1920.00,98.90
1919.00,98.94
1918.00,98.97
1917.00,98.98
1916.00,98.98
1915.00,98.98
1914.00,98.98
1913.00,99.00
1912.00,99.01
1911.00,99.03
1910.00,99.04
1909.00,99.04
1908.00,99.04
1907.00,99.05
1906.00,99.07
1905.00,99.08
1904.00,99.09
1903.00,99.10
1902.00,99.12
1901.00,99.14
1900.00,99.16
1899.00,99.16
1898.00,99.16
1897.00,99.16
1896.00,99.16
1895.00,99.17
1894.00,99.16
1893.00,99.15
1892.00,99.14
1891.00,99.14
1890.00,99.15
1889.00,99.15
1888.00,99.16
1887.00,99.17
1886.00,99.18
1885.00,99.19
1884.00,99.20
1883.00,99.21
1882.00,99.22
1881.00,99.23
1880.00,99.24
1879.00,99.24
1878.00,99.24
1877.00,99.23
1876.00,99.23
1875.00,99.23
1874.00,99.25
1873.00,99.26
1872.00,99.26
1871.00,99.25
1870.00,99.23
1869.00,99.21
1868.00,99.22
1867.00,99.24
1866.00,99.27
1865.00,99.29
1864.00,99.31
1863.00,99.33
1862.00,99.35
1861.00,99.36
1860.00,99.35
1859.00,99.35
1858.00,99.35
1857.00,99.35
1856.00,99.35
1855.00,99.35
1854.00,99.36
1853.00,99.37
1852.00,99.39
1851.00,99.41
1850.00,99.42
1849.00,99.42
1848.00,99.40
1847.00,99.39
1846.00,99.38
1845.00,99.38
1844.00,99.39
1843.00,99.42
1842.00,99.46
1841.00,99.49
1840.00,99.50
1839.00,99.49
1838.00,99.48
1837.00,99.47
1836.00,99.47
1835.00,99.47
1834.00,99.47
1833.00,99.47
1832.00,99.47
1831.00,99.47
1830.00,99.48
1829.00,99.48
1828.00,99.49
1827.00,99.50
1826.00,99.51
1825.00,99.51
1824.00,99.50
1823.00,99.51
1822.00,99.52
1821.00,99.53
1820.00,99.54
1819.00,99.56
1818.00,99.59
1817.00,99.60
1816.00,99.60
1815.00,99.60
1814.00,99.60
1813.00,99.61
1812.00,99.60
1811.00,99.61
1810.00,99.61
1809.00,99.62
1808.00,99.62
1807.00,99.63
1806.00,99.64
1805.00,99.64
1804.00,99.63
1803.00,99.63
1802.00,99.63
1801.00,99.63
1800.00,99.62
1799.00,99.61
1798.00,99.61
1797.00,99.62
1796.00,99.62
1795.00,99.63
1794.00,99.63
1793.00,99.62
1792.00,99.60
1791.00,99.59
1790.00,99.60
1789.00,99.62
1788.00,99.64
1787.00,99.65
1786.00,99.65
1785.00,99.64
1784.00,99.65
1783.00,99.67
1782.00,99.69
1781.00,99.69
1780.00,99.68
1779.00,99.67
1778.00,99.67
1777.00,99.66
1776.00,99.65
1775.00,99.65
1774.00,99.65
1773.00,99.64
1772.00,99.62
1771.00,99.61
1770.00,99.62
1769.00,99.63
1768.00,99.63
1767.00,99.63
1766.00,99.62
1765.00,99.62
1764.00,99.62
1763.00,99.61
1762.00,99.59
1761.00,99.56
1760.00,99.53
1759.00,99.52
1758.00,99.51
1757.00,99.49
1756.00,99.45
1755.00,99.42
1754.00,99.41
1753.00,99.37
1752.00,99.31
1751.00,99.24
1750.00,99.18
1749.00,99.14
1748.00,99.09
1747.00,99.06
1746.00,99.02
1745.00,98.96
1744.00,98.90
1743.00,98.86
1742.00,98.84
1741.00,98.82
1740.00,98.79
1739.00,98.76
1738.00,98.75
1737.00,98.75
1736.00,98.74
1735.00,98.72
1734.00,98.70
1733.00,98.68
1732.00,98.69
1731.00,98.72
1730.00,98.75
1729.00,98.77
1728.00,98.77
1727.00,98.77
1726.00,98.77
1725.00,98.76
1724.00,98.73
1723.00,98.71
1722.00,98.70
1721.00,98.69
1720.00,98.68
1719.00,98.68
1718.00,98.66
1717.00,98.61
1716.00,98.53
1715.00,98.47
1714.00,98.41
1713.00,98.35
1712.00,98.28
1711.00,98.21
1710.00,98.12
1709.00,97.98
1708.00,97.80
1707.00,97.57
1706.00,97.29
1705.00,96.99
1704.00,96.75
1703.00,96.57
1702.00,96.39
1701.00,96.15
1700.00,95.91
1699.00,95.79
1698.00,95.78
1697.00,95.76
1696.00,95.69
1695.00,95.59
1694.00,95.53
1693.00,95.50
1692.00,95.45
1691.00,95.38
1690.00,95.28
1689.00,95.19
1688.00,95.13
1687.00,95.09
1686.00,95.03
1685.00,94.86
1684.00,94.58
1683.00,94.36
1682.00,94.25
1681.00,94.17
1680.00,94.07
1679.00,93.97
1678.00,93.86
1677.00,93.74
1676.00,93.56
1675.00,93.37
1674.00,93.23
1673.00,93.14
1672.00,93.05
1671.00,92.93
1670.00,92.75
1669.00,92.55
1668.00,92.38
1667.00,92.26
1666.00,92.19
1665.00,92.11
1664.00,91.98
1663.00,91.80
1662.00,91.62
1661.00,91.47
1660.00,91.35
1659.00,91.25
1658.00,91.16
1657.00,91.09
1656.00,91.04
1655.00,90.98
1654.00,90.79
1653.00,90.46
1652.00,90.23
1651.00,90.17
1650.00,90.19
1649.00,90.19
1648.00,90.12
1647.00,89.95
1646.00,89.79
1645.00,89.67
1644.00,89.60
1643.00,89.54
1642.00,89.48
1641.00,89.39
1640.00,89.28
1639.00,89.19
1638.00,89.10
1637.00,88.96
1636.00,88.69
1635.00,88.41
1634.00,88.22
1633.00,88.10
1632.00,88.00
1631.00,87.89
1630.00,87.75
1629.00,87.58
1628.00,87.39
1627.00,87.21
1626.00,87.08
1625.00,86.94
1624.00,86.75
1623.00,86.55
1622.00,86.41
1621.00,86.34
1620.00,86.33
1619.00,86.34
1618.00,86.34
1617.00,86.32
1616.00,86.32
1615.00,86.40
1614.00,86.59
1613.00,86.83
1612.00,87.11
1611.00,87.42
1610.00,87.74
1609.00,88.07
1608.00,88.40
1607.00,88.72
1606.00,89.03
1605.00,89.34
1604.00,89.64
1603.00,89.92
1602.00,90.18
1601.00,90.43
1600.00,90.67
1599.00,90.88
1598.00,91.08
1597.00,91.26
1596.00,91.43
1595.00,91.59
1594.00,91.73
1593.00,91.86
1592.00,91.98
1591.00,92.10
1590.00,92.20
1589.00,92.30
1588.00,92.39
1587.00,92.46
1586.00,92.52
1585.00,92.56
1584.00,92.60
1583.00,92.64
1582.00,92.65
1581.00,92.66
1580.00,92.68
1579.00,92.71
1578.00,92.73
1577.00,92.71
1576.00,92.64
1575.00,92.57
1574.00,92.54
1573.00,92.54
1572.00,92.54
1571.00,92.50
1570.00,92.41
1569.00,92.30
1568.00,92.23
1567.00,92.19
1566.00,92.13
1565.00,92.04
1564.00,91.94
1563.00,91.87
1562.00,91.82
1561.00,91.75
1560.00,91.59
1559.00,91.28
1558.00,91.01
1557.00,90.92
1556.00,90.89
1555.00,90.83
1554.00,90.72
1553.00,90.61
1552.00,90.51
1551.00,90.41
1550.00,90.29
1549.00,90.16
1548.00,90.06
1547.00,89.97
1546.00,89.86
1545.00,89.73
1544.00,89.61
1543.00,89.52
1542.00,89.44
1541.00,89.29
1540.00,89.05
1539.00,88.83
1538.00,88.72
1537.00,88.69
1536.00,88.69
1535.00,88.65
1534.00,88.53
1533.00,88.37
1532.00,88.24
1531.00,88.16
1530.00,88.08
1529.00,87.99
1528.00,87.87
1527.00,87.75
1526.00,87.63
1525.00,87.53
1524.00,87.46
1523.00,87.37
1522.00,87.21
1521.00,87.00
1520.00,86.85
1519.00,86.78
1518.00,86.70
1517.00,86.58
1516.00,86.45
1515.00,86.38
1514.00,86.35
1513.00,86.36
1512.00,86.40
1511.00,86.46
1510.00,86.57
1509.00,86.69
1508.00,86.80
1507.00,86.84
1506.00,86.88
1505.00,86.99
1504.00,87.14
1503.00,87.30
1502.00,87.46
1501.00,87.61
1500.00,87.75
1499.00,87.91
1498.00,88.08
1497.00,88.25
1496.00,88.43
1495.00,88.60
1494.00,88.77
1493.00,88.93
1492.00,89.11
1491.00,89.28
1490.00,89.45
1489.00,89.63
1488.00,89.80
1487.00,89.97
1486.00,90.15
1485.00,90.32
1484.00,90.48
1483.00,90.64
1482.00,90.78
1481.00,90.89
1480.00,90.99
1479.00,91.08
1478.00,91.16
1477.00,91.23
1476.00,91.28
1475.00,91.34
1474.00,91.39
1473.00,91.39
1472.00,91.36
1471.00,91.34
1470.00,91.36
1469.00,91.39
1468.00,91.42
1467.00,91.44
1466.00,91.46
1465.00,91.46
1464.00,91.46
1463.00,91.49
1462.00,91.54
1461.00,91.58
1460.00,91.62
1459.00,91.63
1458.00,91.56
1457.00,91.42
1456.00,91.32
1455.00,91.29
1454.00,91.28
1453.00,91.27
1452.00,91.23
1451.00,91.18
1450.00,91.12
1449.00,91.05
1448.00,90.97
1447.00,90.91
1446.00,90.87
1445.00,90.85
1444.00,90.82
1443.00,90.79
1442.00,90.78
1441.00,90.77
1440.00,90.77
1439.00,90.78
1438.00,90.79
1437.00,90.81
1436.00,90.85
1435.00,90.92
1434.00,91.03
1433.00,91.15
1432.00,91.26
1431.00,91.36
1430.00,91.44
1429.00,91.52
1428.00,91.59
1427.00,91.65
1426.00,91.70
1425.00,91.73
1424.00,91.73
1423.00,91.73
1422.00,91.72
1421.00,91.70
1420.00,91.65
1419.00,91.58
1418.00,91.53
1417.00,91.51
1416.00,91.51
1415.00,91.51
1414.00,91.49
1413.00,91.47
1412.00,91.44
1411.00,91.41
1410.00,91.39
1409.00,91.38
1408.00,91.37
1407.00,91.36
1406.00,91.35
1405.00,91.34
1404.00,91.34
1403.00,91.36
1402.00,91.40
1401.00,91.43
1400.00,91.45
1399.00,91.47
1398.00,91.51
1397.00,91.55
1396.00,91.59
1395.00,91.61
1394.00,91.63
1393.00,91.66
1392.00,91.70
1391.00,91.74
1390.00,91.77
1389.00,91.80
1388.00,91.82
1387.00,91.84
1386.00,91.87
1385.00,91.91
1384.00,91.94
1383.00,91.96
1382.00,91.98
1381.00,92.00
1380.00,92.01
1379.00,92.03
1378.00,92.05
1377.00,92.08
1376.00,92.11
1375.00,92.13
1374.00,92.15
1373.00,92.18
1372.00,92.21
1371.00,92.24
1370.00,92.27
1369.00,92.30
1368.00,92.33
1367.00,92.36
1366.00,92.41
1365.00,92.47
1364.00,92.53
1363.00,92.60
1362.00,92.67
1361.00,92.75
1360.00,92.83
1359.00,92.91
1358.00,92.98
1357.00,93.05
1356.00,93.13
1355.00,93.19
1354.00,93.24
1353.00,93.28
1352.00,93.31
1351.00,93.33
1350.00,93.34
1349.00,93.34
1348.00,93.34
1347.00,93.33
1346.00,93.32
1345.00,93.31
1344.00,93.31
1343.00,93.31
1342.00,93.32
1341.00,93.31
1340.00,93.30
1339.00,93.28
1338.00,93.26
1337.00,93.26
1336.00,93.26
1335.00,93.27
1334.00,93.27
1333.00,93.27
1332.00,93.27
1331.00,93.27
1330.00,93.27
1329.00,93.27
1328.00,93.28
1327.00,93.29
1326.00,93.30
1325.00,93.31
1324.00,93.31
1323.00,93.32
1322.00,93.33
1321.00,93.33
1320.00,93.33
1319.00,93.32
1318.00,93.32
1317.00,93.32
1316.00,93.32
1315.00,93.32
1314.00,93.34
1313.00,93.36
1312.00,93.40
1311.00,93.43
1310.00,93.46
1309.00,93.48
1308.00,93.50
1307.00,93.51
1306.00,93.53
1305.00,93.55
1304.00,93.57
1303.00,93.58
1302.00,93.59
1301.00,93.60
1300.00,93.61
1299.00,93.63
1298.00,93.65
1297.00,93.68
1296.00,93.69
1295.00,93.69
1294.00,93.70
1293.00,93.70
1292.00,93.71
1291.00,93.72
1290.00,93.72
1289.00,93.70
1288.00,93.68
1287.00,93.65
1286.00,93.63
1285.00,93.61
1284.00,93.60
1283.00,93.59
1282.00,93.58
1281.00,93.55
1280.00,93.52
1279.00,93.47
1278.00,93.42
1277.00,93.37
1276.00,93.31
1275.00,93.26
1274.00,93.19
1273.00,93.12
1272.00,93.04
1271.00,92.95
1270.00,92.85
1269.00,92.76
1268.00,92.67
1267.00,92.59
1266.00,92.50
1265.00,92.42
1264.00,92.34
1263.00,92.27
1262.00,92.20
1261.00,92.15
1260.00,92.09
1259.00,92.04
1258.00,92.00
1257.00,91.95
1256.00,91.91
1255.00,91.87
1254.00,91.84
1253.00,91.81
1252.00,91.76
1251.00,91.70
1250.00,91.64
1249.00,91.59
1248.00,91.55
1247.00,91.51
1246.00,91.46
1245.00,91.42
1244.00,91.37
1243.00,91.33
1242.00,91.29
1241.00,91.25
1240.00,91.21
1239.00,91.15
1238.00,91.10
1237.00,91.04
1236.00,90.97
1235.00,90.91
1234.00,90.85
1233.00,90.79
1232.00,90.74
1231.00,90.70
1230.00,90.67
1229.00,90.65
1228.00,90.63
1227.00,90.62
1226.00,90.63
1225.00,90.64
1224.00,90.65
1223.00,90.68
1222.00,90.71
1221.00,90.74
1220.00,90.78
1219.00,90.81
1218.00,90.86
1217.00,90.91
1216.00,90.96
1215.00,91.02
1214.00,91.08
1213.00,91.14
1212.00,91.21
1211.00,91.28
1210.00,91.37
1209.00,91.46
1208.00,91.56
1207.00,91.66
1206.00,91.74
1205.00,91.82
1204.00,91.90
1203.00,91.99
1202.00,92.08
1201.00,92.16
1200.00,92.24
1199.00,92.32
1198.00,92.40
1197.00,92.47
1196.00,92.54
1195.00,92.62
1194.00,92.70
1193.00,92.78
1192.00,92.85
1191.00,92.91
1190.00,92.97
1189.00,93.04
1188.00,93.10
1187.00,93.16
1186.00,93.21
1185.00,93.25
1184.00,93.29
1183.00,93.31
1182.00,93.33
1181.00,93.35
1180.00,93.37
1179.00,93.38
1178.00,93.37
1177.00,93.35
1176.00,93.31
1175.00,93.27
1174.00,93.23
1173.00,93.19
1172.00,93.15
1171.00,93.12
1170.00,93.10
1169.00,93.07
1168.00,93.04
1167.00,93.01
1166.00,92.99
1165.00,92.98
1164.00,92.97
1163.00,92.96
1162.00,92.97
1161.00,92.98
1160.00,92.98
1159.00,92.99
1158.00,93.01
1157.00,93.04
1156.00,93.08
1155.00,93.12
1154.00,93.18
1153.00,93.24
1152.00,93.30
1151.00,93.35
1150.00,93.40
1149.00,93.45
1148.00,93.51
1147.00,93.58
1146.00,93.65
1145.00,93.73
1144.00,93.81
1143.00,93.88
1142.00,93.92
1141.00,93.96
1140.00,93.99
1139.00,94.02
1138.00,94.06
1137.00,94.10
1136.00,94.14
1135.00,94.18
1134.00,94.23
1133.00,94.27
1132.00,94.32
1131.00,94.35
1130.00,94.37
1129.00,94.38
1128.00,94.38
1127.00,94.38
1126.00,94.38
1125.00,94.40
1124.00,94.42
1123.00,94.44
1122.00,94.46
1121.00,94.49
1120.00,94.50
1119.00,94.50
1118.00,94.50
1117.00,94.50
1116.00,94.51
1115.00,94.51
1114.00,94.52
1113.00,94.54
1112.00,94.55
1111.00,94.56
1110.00,94.56
1109.00,94.56
1108.00,94.57
1107.00,94.57
1106.00,94.57
1105.00,94.56
1104.00,94.54
1103.00,94.52
1102.00,94.51
1101.00,94.50
1100.00,94.50
1099.00,94.51
1098.00,94.52
1097.00,94.53
1096.00,94.53
1095.00,94.52
1094.00,94.49
1093.00,94.44
1092.00,94.37
1091.00,94.29
1090.00,94.21
1089.00,94.13
1088.00,94.06
1087.00,93.98
1086.00,93.90
1085.00,93.81
1084.00,93.69
1083.00,93.56
1082.00,93.44
1081.00,93.32
1080.00,93.22
1079.00,93.11
1078.00,93.00
1077.00,92.89
1076.00,92.79
1075.00,92.69
1074.00,92.60
1073.00,92.50
1072.00,92.41
1071.00,92.35
1070.00,92.30
1069.00,92.27
1068.00,92.25
1067.00,92.22
1066.00,92.21
1065.00,92.23
1064.00,92.26
1063.00,92.30
1062.00,92.34
1061.00,92.36
1060.00,92.38
1059.00,92.39
1058.00,92.40
1057.00,92.41
1056.00,92.42
1055.00,92.45
1054.00,92.48
1053.00,92.53
1052.00,92.57
1051.00,92.62
1050.00,92.65
1049.00,92.69
1048.00,92.73
1047.00,92.77
1046.00,92.81
1045.00,92.84
1044.00,92.88
1043.00,92.92
1042.00,92.98
1041.00,93.03
1040.00,93.07
1039.00,93.11
1038.00,93.16
1037.00,93.21
1036.00,93.27
1035.00,93.34
1034.00,93.41
1033.00,93.49
1032.00,93.58
1031.00,93.66
1030.00,93.75
1029.00,93.82
1028.00,93.87
1027.00,93.91
1026.00,93.96
1025.00,94.02
1024.00,94.09
1023.00,94.14
1022.00,94.19
1021.00,94.25
1020.00,94.31
1019.00,94.36
1018.00,94.40
1017.00,94.44
1016.00,94.47
1015.00,94.49
1014.00,94.50
1013.00,94.51
1012.00,94.52
1011.00,94.56
1010.00,94.60
1009.00,94.65
1008.00,94.70
1007.00,94.74
1006.00,94.76
1005.00,94.76
1004.00,94.75
1003.00,94.75
1002.00,94.74
1001.00,94.73
1000.00,94.71
999.00,94.69
998.00,94.67
997.00,94.66
996.00,94.66
995.00,94.67
994.00,94.68
993.00,94.71
992.00,94.74
991.00,94.78
990.00,94.84
989.00,94.90
988.00,94.98
987.00,95.04
986.00,95.10
985.00,95.13
984.00,95.14
983.00,95.12
982.00,95.08
981.00,95.04
980.00,94.99
979.00,94.95
978.00,94.92
977.00,94.87
976.00,94.82
975.00,94.77
974.00,94.74
973.00,94.74
972.00,94.77
971.00,94.81
970.00,94.84
969.00,94.87
968.00,94.90
967.00,94.94
966.00,94.99
965.00,95.05
964.00,95.10
963.00,95.14
962.00,95.18
961.00,95.24
960.00,95.30
959.00,95.35
958.00,95.38
957.00,95.40
956.00,95.41
955.00,95.42
954.00,95.43
953.00,95.44
952.00,95.46
951.00,95.49
950.00,95.52
949.00,95.55
948.00,95.57
947.00,95.57
946.00,95.57
945.00,95.58
944.00,95.59
943.00,95.60
942.00,95.59
941.00,95.58
940.00,95.57
939.00,95.56
938.00,95.57
937.00,95.58
936.00,95.59
935.00,95.60
934.00,95.58
933.00,95.56
932.00,95.55
931.00,95.56
930.00,95.57
929.00,95.58
928.00,95.59
927.00,95.60
926.00,95.60
925.00,95.62
924.00,95.65
923.00,95.69
922.00,95.73
921.00,95.76
920.00,95.78
919.00,95.81
918.00,95.84
917.00,95.87
916.00,95.90
915.00,95.92
914.00,95.93
913.00,95.94
912.00,95.98
911.00,96.01
910.00,96.03
909.00,96.04
908.00,96.05
907.00,96.06
906.00,96.05
905.00,96.04
904.00,96.02
903.00,96.01
902.00,96.01
901.00,96.01
900.00,96.01
899.00,96.02
898.00,96.05
897.00,96.10
896.00,96.16
895.00,96.22
894.00,96.28
893.00,96.32
892.00,96.34
891.00,96.34
890.00,96.33
889.00,96.34
888.00,96.37
887.00,96.40
886.00,96.44
885.00,96.47
884.00,96.50
883.00,96.53
882.00,96.54
881.00,96.55
880.00,96.54
879.00,96.52
878.00,96.53
877.00,96.56
876.00,96.59
875.00,96.62
874.00,96.63
873.00,96.64
872.00,96.66
871.00,96.68
870.00,96.69
869.00,96.70
868.00,96.70
867.00,96.70
866.00,96.70
865.00,96.70
864.00,96.72
863.00,96.73
862.00,96.73
861.00,96.70
860.00,96.66
859.00,96.62
858.00,96.60
857.00,96.56
856.00,96.51
855.00,96.45
854.00,96.41
853.00,96.38
852.00,96.35
851.00,96.33
850.00,96.33
849.00,96.36
848.00,96.41
847.00,96.47
846.00,96.51
845.00,96.53
844.00,96.54
843.00,96.53
842.00,96.52
841.00,96.51
840.00,96.51
839.00,96.50
838.00,96.50
837.00,96.49
836.00,96.47
835.00,96.44
834.00,96.38
833.00,96.30
832.00,96.23
831.00,96.17
830.00,96.13
829.00,96.10
828.00,96.08
827.00,96.06
826.00,96.04
825.00,96.03
824.00,96.01
823.00,96.00
822.00,96.02
821.00,96.06
820.00,96.11
819.00,96.13
818.00,96.13
817.00,96.12
816.00,96.12
815.00,96.13
814.00,96.14
813.00,96.15
812.00,96.13
811.00,96.09
810.00,96.05
809.00,96.02
808.00,96.01
807.00,96.00
806.00,95.99
805.00,95.96
804.00,95.94
803.00,95.93
802.00,95.93
801.00,95.94
800.00,95.96
799.00,95.98
798.00,95.98
797.00,95.96
796.00,95.95
795.00,95.94
794.00,95.92
793.00,95.91
792.00,95.89
791.00,95.88
790.00,95.86
789.00,95.81
788.00,95.74
787.00,95.67
786.00,95.63
785.00,95.60
784.00,95.57
783.00,95.53
782.00,95.48
781.00,95.44
780.00,95.40
779.00,95.37
778.00,95.33
777.00,95.31
776.00,95.30
775.00,95.27
774.00,95.21
773.00,95.13
772.00,95.05
771.00,94.99
770.00,94.95
769.00,94.90
768.00,94.86
767.00,94.82
766.00,94.81
765.00,94.82
764.00,94.81
763.00,94.77
762.00,94.72
761.00,94.68
760.00,94.65
759.00,94.62
758.00,94.58
757.00,94.53
756.00,94.48
755.00,94.45
754.00,94.44
753.00,94.43
752.00,94.41
751.00,94.38
750.00,94.34
749.00,94.28
748.00,94.23
747.00,94.18
746.00,94.13
745.00,94.07
744.00,93.99
743.00,93.91
742.00,93.84
741.00,93.77
740.00,93.71
739.00,93.64
738.00,93.56
737.00,93.48
736.00,93.40
735.00,93.31
734.00,93.22
733.00,93.14
732.00,93.07
731.00,93.01
730.00,92.93
729.00,92.84
728.00,92.73
727.00,92.62
726.00,92.51
725.00,92.41
724.00,92.33
723.00,92.24
722.00,92.12
721.00,92.01
720.00,91.92
719.00,91.89
718.00,91.88
717.00,91.85
716.00,91.78
715.00,91.71
714.00,91.63
713.00,91.57
712.00,91.50
711.00,91.44
710.00,91.38
709.00,91.29
708.00,91.19
707.00,91.08
706.00,90.98
705.00,90.89
704.00,90.80
703.00,90.73
702.00,90.66
701.00,90.59
700.00,90.52
699.00,90.47
698.00,90.44
697.00,90.43
696.00,90.42
695.00,90.39
694.00,90.34
693.00,90.25
692.00,90.14
691.00,90.04
690.00,89.97
689.00,89.93
688.00,89.90
687.00,89.88
686.00,89.84
685.00,89.78
684.00,89.71
683.00,89.67
682.00,89.64
681.00,89.61
680.00,89.58
679.00,89.56
678.00,89.56
677.00,89.53
676.00,89.48
675.00,89.44
674.00,89.41
673.00,89.40
672.00,89.37
671.00,89.33
670.00,89.29
669.00,89.20
668.00,89.12
667.00,89.09
666.00,89.11
665.00,89.15
664.00,89.18
663.00,89.18
662.00,89.15
661.00,89.11
660.00,89.08
659.00,89.04
658.00,89.01
657.00,88.97
656.00,88.95
655.00,88.94
654.00,88.89
653.00,88.81
652.00,88.72
651.00,88.68
650.00,88.66
649.00,88.60
648.00,88.49
647.00,88.40
646.00,88.40
645.00,88.42
644.00,88.38
643.00,88.28
642.00,88.14
641.00,88.01
640.00,87.94
639.00,87.91
638.00,87.87
637.00,87.78
636.00,87.66
635.00,87.61
634.00,87.68
633.00,87.78
632.00,87.80
631.00,87.75
630.00,87.66
629.00,87.59
628.00,87.57
627.00,87.63
626.00,87.73
625.00,87.72
624.00,87.54
623.00,87.30
622.00,87.19
621.00,87.26
620.00,87.45
619.00,87.67
618.00,87.81
617.00,87.79
616.00,87.64
615.00,87.50
614.00,87.41
613.00,87.28
612.00,87.07
611.00,86.87
610.00,86.83
609.00,86.97
608.00,87.21
607.00,87.50
606.00,87.74
605.00,87.89
604.00,88.03
603.00,88.32
602.00,88.73
601.00,89.00
600.00,88.84
599.00,88.28
598.00,87.66
597.00,87.22
596.00,87.02
595.00,86.99
594.00,87.12
593.00,87.27
592.00,87.27
591.00,87.06
590.00,86.78
589.00,86.67
588.00,86.78
587.00,87.00
586.00,87.14
585.00,87.15
584.00,87.14
583.00,87.31
582.00,87.68
581.00,88.01
580.00,88.07
579.00,87.86
578.00,87.53
577.00,87.19
576.00,86.89
575.00,86.79
574.00,87.00
573.00,87.34
572.00,87.51
571.00,87.30
570.00,86.87
569.00,86.59
568.00,86.75
567.00,87.38
566.00,88.09
565.00,88.41
564.00,88.28
563.00,87.96
562.00,87.75
561.00,87.62
560.00,87.44
559.00,87.18
558.00,86.86
557.00,86.40
556.00,85.76
555.00,85.15
554.00,84.84
553.00,84.87
552.00,85.11
551.00,85.49
550.00,85.89
