Created as New Dataset,16.2 Bombyx mori
cm-1,%T
4000.00,97.43
3999.00,97.43
3998.00,97.44
3997.00,97.45
3996.00,97.45
3995.00,97.46
3994.00,97.46
3993.00,97.45
3992.00,97.44
3991.00,97.43
3990.00,97.42
3989.00,97.41
3988.00,97.41
3987.00,97.41
3986.00,97.42
3985.00,97.44
3984.00,97.45
3983.00,97.46
3982.00,97.46
3981.00,97.46
3980.00,97.45
3979.00,97.44
3978.00,97.44
3977.00,97.44
3976.00,97.43
3975.00,97.43
3974.00,97.43
3973.00,97.44
3972.00,97.45
3971.00,97.45
3970.00,97.45
3969.00,97.44
3968.00,97.43
3967.00,97.43
3966.00,97.44
3965.00,97.45
3964.00,97.47
3963.00,97.47
3962.00,97.48
3961.00,97.47
3960.00,97.46
3959.00,97.46
3958.00,97.46
3957.00,97.47
3956.00,97.48
3955.00,97.47
3954.00,97.45
3953.00,97.43
3952.00,97.42
3951.00,97.43
3950.00,97.45
3949.00,97.48
3948.00,97.50
3947.00,97.51
3946.00,97.50
3945.00,97.48
3944.00,97.46
3943.00,97.45
3942.00,97.45
3941.00,97.46
3940.00,97.47
3939.00,97.47
3938.00,97.47
3937.00,97.46
3936.00,97.45
3935.00,97.45
3934.00,97.46
3933.00,97.47
3932.00,97.47
3931.00,97.46
3930.00,97.45
3929.00,97.45
3928.00,97.46
3927.00,97.47
3926.00,97.48
3925.00,97.47
3924.00,97.46
3923.00,97.45
3922.00,97.43
3921.00,97.42
3920.00,97.41
3919.00,97.42
3918.00,97.43
3917.00,97.44
3916.00,97.46
3915.00,97.48
3914.00,97.48
3913.00,97.48
3912.00,97.48
3911.00,97.47
3910.00,97.46
3909.00,97.46
3908.00,97.46
3907.00,97.47
3906.00,97.49
3905.00,97.51
3904.00,97.53
3903.00,97.55
3902.00,97.56
3901.00,97.56
3900.00,97.55
3899.00,97.53
3898.00,97.51
3897.00,97.49
3896.00,97.47
3895.00,97.45
3894.00,97.44
3893.00,97.45
3892.00,97.47
3891.00,97.51
3890.00,97.53
3889.00,97.53
3888.00,97.51
3887.00,97.49
3886.00,97.47
3885.00,97.44
3884.00,97.43
3883.00,97.44
3882.00,97.47
3881.00,97.50
3880.00,97.51
3879.00,97.51
3878.00,97.49
3877.00,97.48
3876.00,97.48
3875.00,97.48
3874.00,97.46
3873.00,97.44
3872.00,97.43
3871.00,97.43
3870.00,97.43
3869.00,97.42
3868.00,97.42
3867.00,97.42
3866.00,97.44
3865.00,97.45
3864.00,97.44
3863.00,97.42
3862.00,97.40
3861.00,97.39
3860.00,97.39
3859.00,97.39
3858.00,97.38
3857.00,97.38
3856.00,97.39
3855.00,97.43
3854.00,97.48
3853.00,97.52
3852.00,97.52
3851.00,97.50
3850.00,97.48
3849.00,97.48
3848.00,97.49
3847.00,97.51
3846.00,97.51
3845.00,97.51
3844.00,97.48
3843.00,97.44
3842.00,97.40
3841.00,97.37
3840.00,97.37
3839.00,97.38
3838.00,97.41
3837.00,97.44
3836.00,97.46
3835.00,97.46
3834.00,97.44
3833.00,97.43
3832.00,97.43
3831.00,97.43
3830.00,97.43
3829.00,97.43
3828.00,97.44
3827.00,97.45
3826.00,97.45
3825.00,97.44
3824.00,97.42
3823.00,97.42
3822.00,97.43
3821.00,97.44
3820.00,97.43
3819.00,97.41
3818.00,97.40
3817.00,97.40
3816.00,97.40
3815.00,97.41
3814.00,97.42
3813.00,97.42
3812.00,97.42
3811.00,97.41
3810.00,97.40
3809.00,97.41
3808.00,97.42
3807.00,97.43
3806.00,97.41
3805.00,97.39
3804.00,97.37
3803.00,97.38
3802.00,97.38
3801.00,97.37
3800.00,97.34
3799.00,97.33
3798.00,97.34
3797.00,97.36
3796.00,97.39
3795.00,97.41
3794.00,97.41
3793.00,97.41
3792.00,97.41
3791.00,97.42
3790.00,97.43
3789.00,97.44
3788.00,97.43
3787.00,97.41
3786.00,97.40
3785.00,97.42
3784.00,97.44
3783.00,97.45
3782.00,97.45
3781.00,97.43
3780.00,97.40
3779.00,97.38
3778.00,97.39
3777.00,97.41
3776.00,97.44
3775.00,97.45
3774.00,97.44
3773.00,97.42
3772.00,97.41
3771.00,97.40
3770.00,97.38
3769.00,97.37
3768.00,97.35
3767.00,97.35
3766.00,97.37
3765.00,97.38
3764.00,97.39
3763.00,97.38
3762.00,97.38
3761.00,97.38
3760.00,97.37
3759.00,97.35
3758.00,97.33
3757.00,97.32
3756.00,97.32
3755.00,97.32
3754.00,97.31
3753.00,97.31
3752.00,97.30
3751.00,97.31
3750.00,97.34
3749.00,97.37
3748.00,97.38
3747.00,97.39
3746.00,97.41
3745.00,97.43
3744.00,97.45
3743.00,97.44
3742.00,97.43
3741.00,97.41
3740.00,97.39
3739.00,97.36
3738.00,97.31
3737.00,97.27
3736.00,97.25
3735.00,97.25
3734.00,97.27
3733.00,97.30
3732.00,97.33
3731.00,97.34
3730.00,97.34
3729.00,97.35
3728.00,97.37
3727.00,97.38
3726.00,97.37
3725.00,97.35
3724.00,97.33
3723.00,97.33
3722.00,97.33
3721.00,97.34
3720.00,97.34
3719.00,97.34
3718.00,97.34
3717.00,97.33
3716.00,97.32
3715.00,97.32
3714.00,97.31
3713.00,97.30
3712.00,97.27
3711.00,97.24
3710.00,97.23
3709.00,97.23
3708.00,97.23
3707.00,97.24
3706.00,97.24
3705.00,97.25
3704.00,97.27
3703.00,97.27
3702.00,97.28
3701.00,97.28
3700.00,97.28
3699.00,97.27
3698.00,97.26
3697.00,97.25
3696.00,97.24
3695.00,97.23
3694.00,97.22
3693.00,97.22
3692.00,97.21
3691.00,97.19
3690.00,97.18
3689.00,97.18
3688.00,97.21
3687.00,97.24
3686.00,97.27
3685.00,97.28
3684.00,97.29
3683.00,97.28
3682.00,97.27
3681.00,97.25
3680.00,97.23
3679.00,97.20
3678.00,97.16
3677.00,97.11
3676.00,97.07
3675.00,97.04
3674.00,97.03
3673.00,97.05
3672.00,97.09
3671.00,97.13
3670.00,97.16
3669.00,97.16
3668.00,97.15
3667.00,97.14
3666.00,97.14
3665.00,97.14
3664.00,97.14
3663.00,97.14
3662.00,97.12
3661.00,97.10
3660.00,97.07
3659.00,97.06
3658.00,97.07
3657.00,97.07
3656.00,97.06
3655.00,97.02
3654.00,96.99
3653.00,96.97
3652.00,96.99
3651.00,97.01
3650.00,97.01
3649.00,97.00
3648.00,96.97
3647.00,96.96
3646.00,96.95
3645.00,96.94
3644.00,96.91
3643.00,96.87
3642.00,96.82
3641.00,96.78
3640.00,96.77
3639.00,96.78
3638.00,96.78
3637.00,96.77
3636.00,96.74
3635.00,96.71
3634.00,96.69
3633.00,96.69
3632.00,96.70
3631.00,96.73
3630.00,96.75
3629.00,96.76
3628.00,96.74
3627.00,96.70
3626.00,96.66
3625.00,96.62
3624.00,96.58
3623.00,96.55
3622.00,96.53
3621.00,96.52
3620.00,96.51
3619.00,96.49
3618.00,96.48
3617.00,96.47
3616.00,96.48
3615.00,96.48
3614.00,96.48
3613.00,96.48
3612.00,96.47
3611.00,96.45
3610.00,96.42
3609.00,96.39
3608.00,96.38
3607.00,96.37
3606.00,96.37
3605.00,96.36
3604.00,96.32
3603.00,96.27
3602.00,96.22
3601.00,96.20
3600.00,96.20
3599.00,96.21
3598.00,96.23
3597.00,96.24
3596.00,96.24
3595.00,96.23
3594.00,96.21
3593.00,96.20
3592.00,96.19
3591.00,96.19
3590.00,96.17
3589.00,96.14
3588.00,96.10
3587.00,96.06
3586.00,96.03
3585.00,96.01
3584.00,96.00
3583.00,95.99
3582.00,95.97
3581.00,95.95
3580.00,95.93
3579.00,95.93
3578.00,95.93
3577.00,95.93
3576.00,95.93
3575.00,95.92
3574.00,95.89
3573.00,95.85
3572.00,95.80
3571.00,95.75
3570.00,95.72
3569.00,95.70
3568.00,95.69
3567.00,95.68
3566.00,95.67
3565.00,95.67
3564.00,95.67
3563.00,95.67
3562.00,95.67
3561.00,95.65
3560.00,95.62
3559.00,95.59
3558.00,95.56
3557.00,95.52
3556.00,95.49
3555.00,95.46
3554.00,95.44
3553.00,95.42
3552.00,95.40
3551.00,95.37
3550.00,95.34
3549.00,95.31
3548.00,95.29
3547.00,95.29
3546.00,95.27
3545.00,95.25
3544.00,95.23
3543.00,95.20
3542.00,95.18
3541.00,95.15
3540.00,95.12
3539.00,95.10
3538.00,95.09
3537.00,95.10
3536.00,95.11
3535.00,95.12
3534.00,95.11
3533.00,95.08
3532.00,95.05
3531.00,95.02
3530.00,95.00
3529.00,94.98
3528.00,94.95
3527.00,94.93
3526.00,94.91
3525.00,94.89
3524.00,94.89
3523.00,94.88
3522.00,94.87
3521.00,94.84
3520.00,94.81
3519.00,94.77
3518.00,94.75
3517.00,94.75
3516.00,94.76
3515.00,94.76
3514.00,94.74
3513.00,94.71
3512.00,94.68
3511.00,94.64
3510.00,94.63
3509.00,94.62
3508.00,94.63
3507.00,94.63
3506.00,94.61
3505.00,94.58
3504.00,94.56
3503.00,94.54
3502.00,94.54
3501.00,94.54
3500.00,94.54
3499.00,94.53
3498.00,94.52
3497.00,94.50
3496.00,94.47
3495.00,94.44
3494.00,94.41
3493.00,94.39
3492.00,94.39
3491.00,94.39
3490.00,94.38
3489.00,94.37
3488.00,94.35
3487.00,94.34
3486.00,94.34
3485.00,94.34
3484.00,94.33
3483.00,94.32
3482.00,94.31
3481.00,94.28
3480.00,94.25
3479.00,94.22
3478.00,94.21
3477.00,94.22
3476.00,94.22
3475.00,94.21
3474.00,94.19
3473.00,94.17
3472.00,94.15
3471.00,94.13
3470.00,94.12
3469.00,94.11
3468.00,94.10
3467.00,94.08
3466.00,94.06
3465.00,94.05
3464.00,94.04
3463.00,94.03
3462.00,94.01
3461.00,93.98
3460.00,93.96
3459.00,93.95
3458.00,93.97
3457.00,93.98
3456.00,93.98
3455.00,93.97
3454.00,93.95
3453.00,93.92
3452.00,93.88
3451.00,93.85
3450.00,93.81
3449.00,93.79
3448.00,93.78
3447.00,93.77
3446.00,93.76
3445.00,93.75
3444.00,93.74
3443.00,93.73
3442.00,93.72
3441.00,93.71
3440.00,93.69
3439.00,93.67
3438.00,93.65
3437.00,93.63
3436.00,93.63
3435.00,93.62
3434.00,93.62
3433.00,93.62
3432.00,93.62
3431.00,93.60
3430.00,93.57
3429.00,93.53
3428.00,93.51
3427.00,93.50
3426.00,93.49
3425.00,93.48
3424.00,93.46
3423.00,93.44
3422.00,93.42
3421.00,93.40
3420.00,93.37
3419.00,93.35
3418.00,93.34
3417.00,93.32
3416.00,93.31
3415.00,93.28
3414.00,93.25
3413.00,93.23
3412.00,93.21
3411.00,93.20
3410.00,93.18
3409.00,93.15
3408.00,93.12
3407.00,93.10
3406.00,93.08
3405.00,93.07
3404.00,93.04
3403.00,93.02
3402.00,93.00
3401.00,93.00
3400.00,92.99
3399.00,92.98
3398.00,92.96
3397.00,92.94
3396.00,92.92
3395.00,92.89
3394.00,92.85
3393.00,92.81
3392.00,92.78
3391.00,92.76
3390.00,92.75
3389.00,92.75
3388.00,92.76
3387.00,92.76
3386.00,92.76
3385.00,92.74
3384.00,92.70
3383.00,92.65
3382.00,92.60
3381.00,92.56
3380.00,92.54
3379.00,92.53
3378.00,92.53
3377.00,92.51
3376.00,92.49
3375.00,92.44
3374.00,92.40
3373.00,92.37
3372.00,92.35
3371.00,92.35
3370.00,92.34
3369.00,92.33
3368.00,92.31
3367.00,92.28
3366.00,92.26
3365.00,92.23
3364.00,92.20
3363.00,92.17
3362.00,92.14
3361.00,92.10
3360.00,92.05
3359.00,91.99
3358.00,91.94
3357.00,91.90
3356.00,91.86
3355.00,91.82
3354.00,91.79
3353.00,91.76
3352.00,91.73
3351.00,91.70
3350.00,91.66
3349.00,91.60
3348.00,91.54
3347.00,91.48
3346.00,91.42
3345.00,91.35
3344.00,91.29
3343.00,91.24
3342.00,91.18
3341.00,91.12
3340.00,91.06
3339.00,91.01
3338.00,90.95
3337.00,90.90
3336.00,90.84
3335.00,90.77
3334.00,90.68
3333.00,90.58
3332.00,90.48
3331.00,90.39
3330.00,90.31
3329.00,90.22
3328.00,90.14
3327.00,90.05
3326.00,89.95
3325.00,89.84
3324.00,89.73
3323.00,89.63
3322.00,89.53
3321.00,89.42
3320.00,89.33
3319.00,89.24
3318.00,89.14
3317.00,89.04
3316.00,88.93
3315.00,88.81
3314.00,88.69
3313.00,88.56
3312.00,88.42
3311.00,88.27
3310.00,88.13
3309.00,88.00
3308.00,87.88
3307.00,87.76
3306.00,87.63
3305.00,87.49
3304.00,87.36
3303.00,87.24
3302.00,87.12
3301.00,87.01
3300.00,86.88
3299.00,86.75
3298.00,86.62
3297.00,86.50
3296.00,86.40
3295.00,86.31
3294.00,86.21
3293.00,86.11
3292.00,86.01
3291.00,85.92
3290.00,85.84
3289.00,85.75
3288.00,85.67
3287.00,85.59
3286.00,85.51
3285.00,85.45
3284.00,85.40
3283.00,85.37
3282.00,85.34
3281.00,85.33
3280.00,85.34
3279.00,85.36
3278.00,85.37
3277.00,85.37
3276.00,85.37
3275.00,85.40
3274.00,85.45
3273.00,85.52
3272.00,85.59
3271.00,85.65
3270.00,85.71
3269.00,85.77
3268.00,85.85
3267.00,85.94
3266.00,86.03
3265.00,86.11
3264.00,86.19
3263.00,86.27
3262.00,86.37
3261.00,86.47
3260.00,86.58
3259.00,86.68
3258.00,86.77
3257.00,86.86
3256.00,86.95
3255.00,87.04
3254.00,87.12
3253.00,87.20
3252.00,87.29
3251.00,87.38
3250.00,87.47
3249.00,87.57
3248.00,87.66
3247.00,87.74
3246.00,87.81
3245.00,87.86
3244.00,87.90
3243.00,87.96
3242.00,88.03
3241.00,88.11
3240.00,88.18
3239.00,88.26
3238.00,88.34
3237.00,88.42
3236.00,88.50
3235.00,88.56
3234.00,88.61
3233.00,88.66
3232.00,88.71
3231.00,88.77
3230.00,88.83
3229.00,88.88
3228.00,88.93
3227.00,88.96
3226.00,88.99
3225.00,89.04
3224.00,89.09
3223.00,89.16
3222.00,89.22
3221.00,89.28
3220.00,89.32
3219.00,89.37
3218.00,89.41
3217.00,89.47
3216.00,89.53
3215.00,89.59
3214.00,89.64
3213.00,89.69
3212.00,89.72
3211.00,89.76
3210.00,89.81
3209.00,89.87
3208.00,89.93
3207.00,89.98
3206.00,90.02
3205.00,90.05
3204.00,90.08
3203.00,90.13
3202.00,90.19
3201.00,90.25
3200.00,90.30
3199.00,90.34
3198.00,90.38
3197.00,90.41
3196.00,90.45
3195.00,90.47
3194.00,90.50
3193.00,90.55
3192.00,90.60
3191.00,90.67
3190.00,90.74
3189.00,90.79
3188.00,90.84
3187.00,90.88
3186.00,90.92
3185.00,90.95
3184.00,90.99
3183.00,91.03
3182.00,91.06
3181.00,91.09
3180.00,91.12
3179.00,91.16
3178.00,91.20
3177.00,91.24
3176.00,91.28
3175.00,91.32
3174.00,91.36
3173.00,91.41
3172.00,91.47
3171.00,91.53
3170.00,91.58
3169.00,91.61
3168.00,91.64
3167.00,91.66
3166.00,91.67
3165.00,91.68
3164.00,91.70
3163.00,91.74
3162.00,91.79
3161.00,91.85
3160.00,91.89
3159.00,91.94
3158.00,91.98
3157.00,92.02
3156.00,92.06
3155.00,92.10
3154.00,92.15
3153.00,92.18
3152.00,92.21
3151.00,92.23
3150.00,92.24
3149.00,92.25
3148.00,92.25
3147.00,92.26
3146.00,92.28
3145.00,92.30
3144.00,92.32
3143.00,92.35
3142.00,92.37
3141.00,92.40
3140.00,92.43
3139.00,92.47
3138.00,92.50
3137.00,92.53
3136.00,92.55
3135.00,92.57
3134.00,92.57
3133.00,92.57
3132.00,92.58
3131.00,92.60
3130.00,92.62
3129.00,92.64
3128.00,92.65
3127.00,92.65
3126.00,92.65
3125.00,92.64
3124.00,92.64
3123.00,92.65
3122.00,92.66
3121.00,92.65
3120.00,92.65
3119.00,92.65
3118.00,92.66
3117.00,92.67
3116.00,92.68
3115.00,92.68
3114.00,92.67
3113.00,92.65
3112.00,92.63
3111.00,92.63
3110.00,92.63
3109.00,92.63
3108.00,92.63
3107.00,92.64
3106.00,92.64
3105.00,92.63
3104.00,92.61
3103.00,92.57
3102.00,92.55
3101.00,92.53
3100.00,92.52
3099.00,92.52
3098.00,92.52
3097.00,92.51
3096.00,92.50
3095.00,92.49
3094.00,92.48
3093.00,92.47
3092.00,92.46
3091.00,92.45
3090.00,92.44
3089.00,92.42
3088.00,92.40
3087.00,92.39
3086.00,92.39
3085.00,92.39
3084.00,92.39
3083.00,92.39
3082.00,92.40
3081.00,92.39
3080.00,92.37
3079.00,92.35
3078.00,92.35
3077.00,92.35
3076.00,92.35
3075.00,92.35
3074.00,92.34
3073.00,92.33
3072.00,92.33
3071.00,92.33
3070.00,92.34
3069.00,92.35
3068.00,92.35
3067.00,92.36
3066.00,92.37
3065.00,92.38
3064.00,92.40
3063.00,92.43
3062.00,92.46
3061.00,92.49
3060.00,92.51
3059.00,92.53
3058.00,92.54
3057.00,92.56
3056.00,92.57
3055.00,92.60
3054.00,92.62
3053.00,92.65
3052.00,92.68
3051.00,92.71
3050.00,92.75
3049.00,92.79
3048.00,92.83
3047.00,92.87
3046.00,92.90
3045.00,92.94
3044.00,92.97
3043.00,93.00
3042.00,93.02
3041.00,93.05
3040.00,93.06
3039.00,93.08
3038.00,93.11
3037.00,93.15
3036.00,93.19
3035.00,93.22
3034.00,93.24
3033.00,93.26
3032.00,93.29
3031.00,93.31
3030.00,93.32
3029.00,93.33
3028.00,93.34
3027.00,93.36
3026.00,93.40
3025.00,93.44
3024.00,93.47
3023.00,93.49
3022.00,93.52
3021.00,93.55
3020.00,93.57
3019.00,93.59
3018.00,93.59
3017.00,93.60
3016.00,93.61
3015.00,93.63
3014.00,93.65
3013.00,93.66
3012.00,93.66
3011.00,93.65
3010.00,93.65
3009.00,93.64
3008.00,93.64
3007.00,93.65
3006.00,93.65
3005.00,93.64
3004.00,93.62
3003.00,93.61
3002.00,93.60
3001.00,93.60
3000.00,93.60
2999.00,93.60
2998.00,93.58
2997.00,93.57
2996.00,93.56
2995.00,93.54
2994.00,93.51
2993.00,93.48
2992.00,93.46
2991.00,93.44
2990.00,93.41
2989.00,93.37
2988.00,93.34
2987.00,93.31
2986.00,93.30
2985.00,93.28
2984.00,93.25
2983.00,93.22
2982.00,93.21
2981.00,93.20
2980.00,93.20
2979.00,93.20
2978.00,93.20
2977.00,93.19
2976.00,93.19
2975.00,93.17
2974.00,93.16
2973.00,93.14
2972.00,93.12
2971.00,93.11
2970.00,93.09
2969.00,93.08
2968.00,93.07
2967.00,93.06
2966.00,93.07
2965.00,93.09
2964.00,93.11
2963.00,93.13
2962.00,93.14
2961.00,93.15
2960.00,93.16
2959.00,93.16
2958.00,93.15
2957.00,93.14
2956.00,93.13
2955.00,93.15
2954.00,93.17
2953.00,93.18
2952.00,93.18
2951.00,93.16
2950.00,93.15
2949.00,93.13
2948.00,93.11
2947.00,93.07
2946.00,93.03
2945.00,92.98
2944.00,92.95
2943.00,92.93
2942.00,92.91
2941.00,92.88
2940.00,92.83
2939.00,92.77
2938.00,92.71
2937.00,92.65
2936.00,92.60
2935.00,92.55
2934.00,92.51
2933.00,92.46
2932.00,92.42
2931.00,92.40
2930.00,92.39
2929.00,92.38
2928.00,92.36
2927.00,92.33
2926.00,92.29
2925.00,92.25
2924.00,92.23
2923.00,92.20
2922.00,92.17
2921.00,92.15
2920.00,92.14
2919.00,92.16
2918.00,92.20
2917.00,92.27
2916.00,92.36
2915.00,92.45
2914.00,92.56
2913.00,92.66
2912.00,92.78
2911.00,92.89
2910.00,92.99
2909.00,93.07
2908.00,93.11
2907.00,93.14
2906.00,93.17
2905.00,93.20
2904.00,93.24
2903.00,93.28
2902.00,93.33
2901.00,93.37
2900.00,93.41
2899.00,93.45
2898.00,93.50
2897.00,93.54
2896.00,93.58
2895.00,93.60
2894.00,93.62
2893.00,93.63
2892.00,93.64
2891.00,93.65
2890.00,93.65
2889.00,93.65
2888.00,93.65
2887.00,93.66
2886.00,93.66
2885.00,93.68
2884.00,93.69
2883.00,93.71
2882.00,93.72
2881.00,93.71
2880.00,93.69
2879.00,93.67
2878.00,93.67
2877.00,93.67
2876.00,93.66
2875.00,93.64
2874.00,93.62
2873.00,93.61
2872.00,93.63
2871.00,93.66
2870.00,93.70
2869.00,93.74
2868.00,93.76
2867.00,93.79
2866.00,93.80
2865.00,93.82
2864.00,93.83
2863.00,93.84
2862.00,93.84
2861.00,93.84
2860.00,93.83
2859.00,93.81
2858.00,93.78
2857.00,93.73
2856.00,93.68
2855.00,93.63
2854.00,93.60
2853.00,93.56
2852.00,93.52
2851.00,93.49
2850.00,93.50
2849.00,93.55
2848.00,93.63
2847.00,93.74
2846.00,93.85
2845.00,93.96
2844.00,94.06
2843.00,94.13
2842.00,94.19
2841.00,94.23
2840.00,94.26
2839.00,94.30
2838.00,94.34
2837.00,94.38
2836.00,94.42
2835.00,94.46
2834.00,94.48
2833.00,94.50
2832.00,94.51
2831.00,94.52
2830.00,94.53
2829.00,94.55
2828.00,94.56
2827.00,94.56
2826.00,94.55
2825.00,94.55
2824.00,94.56
2823.00,94.57
2822.00,94.59
2821.00,94.60
2820.00,94.62
2819.00,94.63
2818.00,94.64
2817.00,94.66
2816.00,94.67
2815.00,94.68
2814.00,94.69
2813.00,94.69
2812.00,94.69
2811.00,94.68
2810.00,94.67
2809.00,94.67
2808.00,94.67
2807.00,94.67
2806.00,94.69
2805.00,94.71
2804.00,94.72
2803.00,94.73
2802.00,94.72
2801.00,94.71
2800.00,94.71
2799.00,94.72
2798.00,94.73
2797.00,94.74
2796.00,94.76
2795.00,94.77
2794.00,94.79
2793.00,94.81
2792.00,94.82
2791.00,94.83
2790.00,94.83
2789.00,94.83
2788.00,94.84
2787.00,94.84
2786.00,94.84
2785.00,94.84
2784.00,94.84
2783.00,94.85
2782.00,94.86
2781.00,94.87
2780.00,94.88
2779.00,94.88
2778.00,94.88
2777.00,94.89
2776.00,94.90
2775.00,94.91
2774.00,94.93
2773.00,94.95
2772.00,94.97
2771.00,94.99
2770.00,95.00
2769.00,95.00
2768.00,95.01
2767.00,95.02
2766.00,95.02
2765.00,95.01
2764.00,95.01
2763.00,95.02
2762.00,95.02
2761.00,95.03
2760.00,95.03
2759.00,95.04
2758.00,95.04
2757.00,95.04
2756.00,95.04
2755.00,95.05
2754.00,95.06
2753.00,95.07
2752.00,95.07
2751.00,95.07
2750.00,95.07
2749.00,95.08
2748.00,95.10
2747.00,95.11
2746.00,95.11
2745.00,95.11
2744.00,95.11
2743.00,95.11
2742.00,95.11
2741.00,95.13
2740.00,95.14
2739.00,95.16
2738.00,95.16
2737.00,95.16
2736.00,95.16
2735.00,95.15
2734.00,95.15
2733.00,95.15
2732.00,95.16
2731.00,95.17
2730.00,95.18
2729.00,95.19
2728.00,95.20
2727.00,95.20
2726.00,95.21
2725.00,95.21
2724.00,95.23
2723.00,95.25
2722.00,95.26
2721.00,95.26
2720.00,95.26
2719.00,95.26
2718.00,95.27
2717.00,95.28
2716.00,95.28
2715.00,95.29
2714.00,95.31
2713.00,95.33
2712.00,95.35
2711.00,95.36
2710.00,95.37
2709.00,95.37
2708.00,95.38
2707.00,95.39
2706.00,95.39
2705.00,95.39
2704.00,95.40
2703.00,95.40
2702.00,95.39
2701.00,95.39
2700.00,95.38
2699.00,95.38
2698.00,95.38
2697.00,95.37
2696.00,95.36
2695.00,95.35
2694.00,95.35
2693.00,95.36
2692.00,95.37
2691.00,95.39
2690.00,95.40
2689.00,95.41
2688.00,95.42
2687.00,95.43
2686.00,95.43
2685.00,95.43
2684.00,95.44
2683.00,95.44
2682.00,95.44
2681.00,95.44
2680.00,95.44
2679.00,95.44
2678.00,95.44
2677.00,95.44
2676.00,95.44
2675.00,95.44
2674.00,95.45
2673.00,95.46
2672.00,95.48
2671.00,95.50
2670.00,95.51
2669.00,95.51
2668.00,95.49
2667.00,95.48
2666.00,95.46
2665.00,95.45
2664.00,95.44
2663.00,95.44
2662.00,95.45
2661.00,95.46
2660.00,95.47
2659.00,95.47
2658.00,95.46
2657.00,95.45
2656.00,95.44
2655.00,95.43
2654.00,95.41
2653.00,95.40
2652.00,95.40
2651.00,95.40
2650.00,95.40
2649.00,95.40
2648.00,95.39
2647.00,95.38
2646.00,95.37
2645.00,95.36
2644.00,95.36
2643.00,95.36
2642.00,95.36
2641.00,95.36
2640.00,95.35
2639.00,95.34
2638.00,95.34
2637.00,95.34
2636.00,95.33
2635.00,95.31
2634.00,95.28
2633.00,95.25
2632.00,95.24
2631.00,95.23
2630.00,95.23
2629.00,95.23
2628.00,95.23
2627.00,95.23
2626.00,95.22
2625.00,95.20
2624.00,95.19
2623.00,95.18
2622.00,95.18
2621.00,95.19
2620.00,95.21
2619.00,95.22
2618.00,95.22
2617.00,95.21
2616.00,95.19
2615.00,95.17
2614.00,95.16
2613.00,95.16
2612.00,95.17
2611.00,95.18
2610.00,95.19
2609.00,95.20
2608.00,95.20
2607.00,95.19
2606.00,95.17
2605.00,95.15
2604.00,95.14
2603.00,95.13
2602.00,95.14
2601.00,95.17
2600.00,95.19
2599.00,95.20
2598.00,95.20
2597.00,95.19
2596.00,95.19
2595.00,95.20
2594.00,95.20
2593.00,95.18
2592.00,95.16
2591.00,95.14
2590.00,95.13
2589.00,95.13
2588.00,95.12
2587.00,95.12
2586.00,95.11
2585.00,95.10
2584.00,95.11
2583.00,95.13
2582.00,95.14
2581.00,95.16
2580.00,95.16
2579.00,95.16
2578.00,95.14
2577.00,95.14
2576.00,95.16
2575.00,95.20
2574.00,95.23
2573.00,95.24
2572.00,95.21
2571.00,95.17
2570.00,95.14
2569.00,95.12
2568.00,95.12
2567.00,95.12
2566.00,95.13
2565.00,95.12
2564.00,95.12
2563.00,95.13
2562.00,95.14
2561.00,95.16
2560.00,95.17
2559.00,95.18
2558.00,95.18
2557.00,95.17
2556.00,95.16
2555.00,95.16
2554.00,95.17
2553.00,95.17
2552.00,95.15
2551.00,95.13
2550.00,95.13
2549.00,95.14
2548.00,95.14
2547.00,95.15
2546.00,95.16
2545.00,95.17
2544.00,95.18
2543.00,95.19
2542.00,95.20
2541.00,95.20
2540.00,95.21
2539.00,95.21
2538.00,95.20
2537.00,95.18
2536.00,95.17
2535.00,95.19
2534.00,95.20
2533.00,95.20
2532.00,95.19
2531.00,95.18
2530.00,95.17
2529.00,95.18
2528.00,95.19
2527.00,95.21
2526.00,95.22
2525.00,95.20
2524.00,95.19
2523.00,95.19
2522.00,95.20
2521.00,95.20
2520.00,95.19
2519.00,95.17
2518.00,95.17
2517.00,95.19
2516.00,95.21
2515.00,95.24
2514.00,95.26
2513.00,95.27
2512.00,95.26
2511.00,95.24
2510.00,95.21
2509.00,95.19
2508.00,95.17
2507.00,95.17
2506.00,95.18
2505.00,95.19
2504.00,95.19
2503.00,95.20
2502.00,95.21
2501.00,95.21
2500.00,95.22
2499.00,95.23
2498.00,95.24
2497.00,95.25
2496.00,95.25
2495.00,95.25
2494.00,95.24
2493.00,95.23
2492.00,95.23
2491.00,95.24
2490.00,95.25
2489.00,95.25
2488.00,95.24
2487.00,95.23
2486.00,95.22
2485.00,95.22
2484.00,95.23
2483.00,95.23
2482.00,95.24
2481.00,95.24
2480.00,95.26
2479.00,95.28
2478.00,95.29
2477.00,95.29
2476.00,95.28
2475.00,95.27
2474.00,95.25
2473.00,95.24
2472.00,95.23
2471.00,95.24
2470.00,95.25
2469.00,95.26
2468.00,95.26
2467.00,95.28
2466.00,95.31
2465.00,95.33
2464.00,95.33
2463.00,95.31
2462.00,95.30
2461.00,95.29
2460.00,95.30
2459.00,95.31
2458.00,95.32
2457.00,95.32
2456.00,95.31
2455.00,95.30
2454.00,95.28
2453.00,95.27
2452.00,95.27
2451.00,95.29
2450.00,95.31
2449.00,95.32
2448.00,95.33
2447.00,95.34
2446.00,95.34
2445.00,95.33
2444.00,95.32
2443.00,95.31
2442.00,95.31
2441.00,95.32
2440.00,95.34
2439.00,95.35
2438.00,95.35
2437.00,95.35
2436.00,95.37
2435.00,95.39
2434.00,95.41
2433.00,95.42
2432.00,95.43
2431.00,95.44
2430.00,95.43
2429.00,95.40
2428.00,95.37
2427.00,95.35
2426.00,95.36
2425.00,95.37
2424.00,95.38
2423.00,95.38
2422.00,95.38
2421.00,95.38
2420.00,95.37
2419.00,95.38
2418.00,95.40
2417.00,95.43
2416.00,95.45
2415.00,95.47
2414.00,95.48
2413.00,95.48
2412.00,95.47
2411.00,95.46
2410.00,95.47
2409.00,95.50
2408.00,95.53
2407.00,95.55
2406.00,95.55
2405.00,95.53
2404.00,95.52
2403.00,95.53
2402.00,95.55
2401.00,95.57
2400.00,95.57
2399.00,95.57
2398.00,95.57
2397.00,95.59
2396.00,95.61
2395.00,95.63
2394.00,95.63
2393.00,95.64
2392.00,95.65
2391.00,95.66
2390.00,95.66
2389.00,95.67
2388.00,95.67
2387.00,95.68
2386.00,95.69
2385.00,95.71
2384.00,95.72
2383.00,95.73
2382.00,95.74
2381.00,95.74
2380.00,95.74
2379.00,95.76
2378.00,95.78
2377.00,95.80
2376.00,95.82
2375.00,95.84
2374.00,95.88
2373.00,95.91
2372.00,95.91
2371.00,95.88
2370.00,95.82
2369.00,95.76
2368.00,95.73
2367.00,95.75
2366.00,95.80
2365.00,95.85
2364.00,95.89
2363.00,95.93
2362.00,95.93
2361.00,95.88
2360.00,95.83
2359.00,95.83
2358.00,95.84
2357.00,95.83
2356.00,95.81
2355.00,95.83
2354.00,95.90
2353.00,95.97
2352.00,95.99
2351.00,95.97
2350.00,95.92
2349.00,95.88
2348.00,95.85
2347.00,95.85
2346.00,95.87
2345.00,95.89
2344.00,95.90
2343.00,95.89
2342.00,95.86
2341.00,95.83
2340.00,95.80
2339.00,95.80
2338.00,95.81
2337.00,95.82
2336.00,95.84
2335.00,95.85
2334.00,95.86
2333.00,95.87
2332.00,95.89
2331.00,95.94
2330.00,95.98
2329.00,95.98
2328.00,95.92
2327.00,95.83
2326.00,95.73
2325.00,95.65
2324.00,95.59
2323.00,95.58
2322.00,95.60
2321.00,95.64
2320.00,95.67
2319.00,95.68
2318.00,95.65
2317.00,95.61
2316.00,95.58
2315.00,95.55
2314.00,95.54
2313.00,95.53
2312.00,95.52
2311.00,95.53
2310.00,95.55
2309.00,95.58
2308.00,95.59
2307.00,95.58
2306.00,95.55
2305.00,95.51
2304.00,95.50
2303.00,95.51
2302.00,95.52
2301.00,95.51
2300.00,95.49
2299.00,95.48
2298.00,95.47
2297.00,95.47
2296.00,95.45
2295.00,95.43
2294.00,95.40
2293.00,95.39
2292.00,95.37
2291.00,95.36
2290.00,95.34
2289.00,95.31
2288.00,95.28
2287.00,95.24
2286.00,95.21
2285.00,95.17
2284.00,95.15
2283.00,95.14
2282.00,95.13
2281.00,95.12
2280.00,95.13
2279.00,95.15
2278.00,95.15
2277.00,95.14
2276.00,95.12
2275.00,95.10
2274.00,95.09
2273.00,95.08
2272.00,95.06
2271.00,95.05
2270.00,95.04
2269.00,95.02
2268.00,95.02
2267.00,95.03
2266.00,95.05
2265.00,95.05
2264.00,95.03
2263.00,94.99
2262.00,94.95
2261.00,94.91
2260.00,94.89
2259.00,94.89
2258.00,94.89
2257.00,94.89
2256.00,94.89
2255.00,94.89
2254.00,94.90
2253.00,94.90
2252.00,94.88
2251.00,94.87
2250.00,94.87
2249.00,94.89
2248.00,94.91
2247.00,94.91
2246.00,94.87
2245.00,94.82
2244.00,94.77
2243.00,94.73
2242.00,94.72
2241.00,94.71
2240.00,94.72
2239.00,94.73
2238.00,94.74
2237.00,94.74
2236.00,94.74
2235.00,94.74
2234.00,94.74
2233.00,94.73
2232.00,94.72
2231.00,94.72
2230.00,94.70
2229.00,94.67
2228.00,94.64
2227.00,94.61
2226.00,94.58
2225.00,94.55
2224.00,94.55
2223.00,94.56
2222.00,94.56
2221.00,94.54
2220.00,94.51
2219.00,94.48
2218.00,94.47
2217.00,94.47
2216.00,94.47
2215.00,94.47
2214.00,94.46
2213.00,94.44
2212.00,94.43
2211.00,94.44
2210.00,94.47
2209.00,94.48
2208.00,94.47
2207.00,94.45
2206.00,94.42
2205.00,94.39
2204.00,94.37
2203.00,94.38
2202.00,94.39
2201.00,94.37
2200.00,94.34
2199.00,94.33
2198.00,94.33
2197.00,94.33
2196.00,94.30
2195.00,94.28
2194.00,94.26
2193.00,94.26
2192.00,94.29
2191.00,94.31
2190.00,94.30
2189.00,94.24
2188.00,94.15
2187.00,94.09
2186.00,94.08
2185.00,94.11
2184.00,94.14
2183.00,94.19
2182.00,94.22
2181.00,94.22
2180.00,94.18
2179.00,94.10
2178.00,94.04
2177.00,94.02
2176.00,94.05
2175.00,94.10
2174.00,94.12
2173.00,94.10
2172.00,94.04
2171.00,94.01
2170.00,93.99
2169.00,93.99
2168.00,93.97
2167.00,93.96
2166.00,93.96
2165.00,93.96
2164.00,93.95
2163.00,93.88
2162.00,93.77
2161.00,93.66
2160.00,93.63
2159.00,93.74
2158.00,93.93
2157.00,94.10
2156.00,94.19
2155.00,94.22
2154.00,94.24
2153.00,94.29
2152.00,94.35
2151.00,94.40
2150.00,94.41
2149.00,94.38
2148.00,94.34
2147.00,94.34
2146.00,94.39
2145.00,94.46
2144.00,94.54
2143.00,94.62
2142.00,94.68
2141.00,94.73
2140.00,94.79
2139.00,94.85
2138.00,94.91
2137.00,94.96
2136.00,95.02
2135.00,95.08
2134.00,95.13
2133.00,95.14
2132.00,95.14
2131.00,95.11
2130.00,95.07
2129.00,95.01
2128.00,94.96
2127.00,94.96
2126.00,95.00
2125.00,95.05
2124.00,95.09
2123.00,95.13
2122.00,95.16
2121.00,95.15
2120.00,95.13
2119.00,95.11
2118.00,95.11
2117.00,95.13
2116.00,95.15
2115.00,95.17
2114.00,95.17
2113.00,95.16
2112.00,95.13
2111.00,95.10
2110.00,95.09
2109.00,95.09
2108.00,95.10
2107.00,95.13
2106.00,95.14
2105.00,95.13
2104.00,95.11
2103.00,95.09
2102.00,95.06
2101.00,95.02
2100.00,95.00
2099.00,95.03
2098.00,95.08
2097.00,95.13
2096.00,95.18
2095.00,95.21
2094.00,95.22
2093.00,95.21
2092.00,95.20
2091.00,95.19
2090.00,95.18
2089.00,95.16
2088.00,95.14
2087.00,95.11
2086.00,95.10
2085.00,95.09
2084.00,95.08
2083.00,95.05
2082.00,95.02
2081.00,94.99
2080.00,95.00
2079.00,95.02
2078.00,95.04
2077.00,95.05
2076.00,95.05
2075.00,95.06
2074.00,95.05
2073.00,95.03
2072.00,94.98
2071.00,94.96
2070.00,94.95
2069.00,94.95
2068.00,94.94
2067.00,94.94
2066.00,94.95
2065.00,94.96
2064.00,94.99
2063.00,95.03
2062.00,95.05
2061.00,95.05
2060.00,95.02
2059.00,94.96
2058.00,94.90
2057.00,94.85
2056.00,94.82
2055.00,94.82
2054.00,94.81
2053.00,94.79
2052.00,94.75
2051.00,94.70
2050.00,94.67
2049.00,94.64
2048.00,94.60
2047.00,94.56
2046.00,94.53
2045.00,94.50
2044.00,94.49
2043.00,94.50
2042.00,94.51
2041.00,94.48
2040.00,94.44
2039.00,94.41
2038.00,94.39
2037.00,94.38
2036.00,94.37
2035.00,94.38
2034.00,94.38
2033.00,94.36
2032.00,94.33
2031.00,94.31
2030.00,94.31
2029.00,94.32
2028.00,94.35
2027.00,94.41
2026.00,94.48
2025.00,94.53
2024.00,94.52
2023.00,94.50
2022.00,94.47
2021.00,94.46
2020.00,94.47
2019.00,94.49
2018.00,94.48
2017.00,94.44
2016.00,94.40
2015.00,94.39
2014.00,94.40
2013.00,94.41
2012.00,94.44
2011.00,94.47
2010.00,94.51
2009.00,94.57
2008.00,94.65
2007.00,94.77
2006.00,94.88
2005.00,94.94
2004.00,94.98
2003.00,94.99
2002.00,94.96
2001.00,94.88
2000.00,94.80
1999.00,94.78
1998.00,94.83
1997.00,94.88
1996.00,94.90
1995.00,94.88
1994.00,94.87
1993.00,94.87
1992.00,94.88
1991.00,94.91
1990.00,94.93
1989.00,94.91
1988.00,94.85
1987.00,94.78
1986.00,94.72
1985.00,94.69
1984.00,94.66
1983.00,94.62
1982.00,94.55
1981.00,94.45
1980.00,94.34
1979.00,94.29
1978.00,94.33
1977.00,94.45
1976.00,94.58
1975.00,94.67
1974.00,94.71
1973.00,94.70
1972.00,94.71
1971.00,94.76
1970.00,94.84
1969.00,94.90
1968.00,94.90
1967.00,94.88
1966.00,94.86
1965.00,94.86
1964.00,94.89
1963.00,94.96
1962.00,95.04
1961.00,95.09
1960.00,95.12
1959.00,95.17
1958.00,95.23
1957.00,95.27
1956.00,95.27
1955.00,95.25
1954.00,95.25
1953.00,95.29
1952.00,95.37
1951.00,95.44
1950.00,95.47
1949.00,95.46
1948.00,95.44
1947.00,95.47
1946.00,95.54
1945.00,95.62
1944.00,95.68
1943.00,95.72
1942.00,95.74
1941.00,95.73
1940.00,95.70
1939.00,95.69
1938.00,95.70
1937.00,95.73
1936.00,95.76
1935.00,95.78
1934.00,95.77
1933.00,95.76
1932.00,95.76
1931.00,95.79
1930.00,95.81
1929.00,95.82
1928.00,95.81
1927.00,95.82
1926.00,95.86
1925.00,95.89
1924.00,95.92
1923.00,95.95
1922.00,95.99
1921.00,96.04
1920.00,96.09
1919.00,96.13
1918.00,96.16
1917.00,96.17
1916.00,96.16
1915.00,96.15
1914.00,96.14
1913.00,96.10
1912.00,96.05
1911.00,96.01
1910.00,96.02
1909.00,96.06
1908.00,96.13
1907.00,96.20
1906.00,96.25
1905.00,96.25
1904.00,96.24
1903.00,96.25
1902.00,96.27
1901.00,96.28
1900.00,96.28
1899.00,96.29
1898.00,96.31
1897.00,96.33
1896.00,96.34
1895.00,96.34
1894.00,96.34
1893.00,96.34
1892.00,96.33
1891.00,96.32
1890.00,96.32
1889.00,96.32
1888.00,96.35
1887.00,96.37
1886.00,96.39
1885.00,96.38
1884.00,96.38
1883.00,96.39
1882.00,96.43
1881.00,96.46
1880.00,96.49
1879.00,96.50
1878.00,96.50
1877.00,96.49
1876.00,96.47
1875.00,96.47
1874.00,96.50
1873.00,96.52
1872.00,96.53
1871.00,96.52
1870.00,96.51
1869.00,96.51
1868.00,96.54
1867.00,96.59
1866.00,96.63
1865.00,96.64
1864.00,96.62
1863.00,96.62
1862.00,96.64
1861.00,96.65
1860.00,96.66
1859.00,96.68
1858.00,96.70
1857.00,96.72
1856.00,96.73
1855.00,96.76
1854.00,96.79
1853.00,96.80
1852.00,96.80
1851.00,96.81
1850.00,96.82
1849.00,96.83
1848.00,96.84
1847.00,96.85
1846.00,96.86
1845.00,96.87
1844.00,96.88
1843.00,96.91
1842.00,96.93
1841.00,96.93
1840.00,96.91
1839.00,96.91
1838.00,96.92
1837.00,96.93
1836.00,96.94
1835.00,96.94
1834.00,96.96
1833.00,96.98
1832.00,97.00
1831.00,97.02
1830.00,97.03
1829.00,97.04
1828.00,97.04
1827.00,97.05
1826.00,97.06
1825.00,97.05
1824.00,97.04
1823.00,97.03
1822.00,97.03
1821.00,97.03
1820.00,97.05
1819.00,97.10
1818.00,97.16
1817.00,97.19
1816.00,97.18
1815.00,97.17
1814.00,97.15
1813.00,97.15
1812.00,97.14
1811.00,97.16
1810.00,97.17
1809.00,97.18
1808.00,97.18
1807.00,97.19
1806.00,97.19
1805.00,97.19
1804.00,97.19
1803.00,97.22
1802.00,97.26
1801.00,97.27
1800.00,97.27
1799.00,97.27
1798.00,97.28
1797.00,97.30
1796.00,97.32
1795.00,97.36
1794.00,97.41
1793.00,97.43
1792.00,97.43
1791.00,97.43
1790.00,97.42
1789.00,97.40
1788.00,97.38
1787.00,97.38
1786.00,97.41
1785.00,97.43
1784.00,97.43
1783.00,97.43
1782.00,97.44
1781.00,97.44
1780.00,97.45
1779.00,97.46
1778.00,97.48
1777.00,97.48
1776.00,97.48
1775.00,97.50
1774.00,97.52
1773.00,97.53
1772.00,97.53
1771.00,97.55
1770.00,97.57
1769.00,97.56
1768.00,97.54
1767.00,97.55
1766.00,97.57
1765.00,97.59
1764.00,97.60
1763.00,97.60
1762.00,97.60
1761.00,97.58
1760.00,97.58
1759.00,97.58
1758.00,97.60
1757.00,97.60
1756.00,97.59
1755.00,97.59
1754.00,97.61
1753.00,97.61
1752.00,97.61
1751.00,97.63
1750.00,97.63
1749.00,97.60
1748.00,97.56
1747.00,97.54
1746.00,97.55
1745.00,97.57
1744.00,97.59
1743.00,97.61
1742.00,97.64
1741.00,97.64
1740.00,97.61
1739.00,97.61
1738.00,97.62
1737.00,97.63
1736.00,97.62
1735.00,97.61
1734.00,97.61
1733.00,97.61
1732.00,97.59
1731.00,97.58
1730.00,97.59
1729.00,97.58
1728.00,97.57
1727.00,97.56
1726.00,97.55
1725.00,97.52
1724.00,97.48
1723.00,97.45
1722.00,97.45
1721.00,97.44
1720.00,97.41
1719.00,97.36
1718.00,97.28
1717.00,97.19
1716.00,97.09
1715.00,97.00
1714.00,96.90
1713.00,96.74
1712.00,96.53
1711.00,96.30
1710.00,96.05
1709.00,95.75
1708.00,95.38
1707.00,94.89
1706.00,94.26
1705.00,93.52
1704.00,92.85
1703.00,92.29
1702.00,91.73
1701.00,91.02
1700.00,90.29
1699.00,89.82
1698.00,89.59
1697.00,89.50
1696.00,89.50
1695.00,89.58
1694.00,89.67
1693.00,89.73
1692.00,89.74
1691.00,89.73
1690.00,89.68
1689.00,89.62
1688.00,89.55
1687.00,89.47
1686.00,89.35
1685.00,89.14
1684.00,88.88
1683.00,88.69
1682.00,88.54
1681.00,88.34
1680.00,88.10
1679.00,87.89
1678.00,87.71
1677.00,87.52
1676.00,87.26
1675.00,86.96
1674.00,86.69
1673.00,86.45
1672.00,86.19
1671.00,85.90
1670.00,85.56
1669.00,85.22
1668.00,84.91
1667.00,84.64
1666.00,84.38
1665.00,84.12
1664.00,83.80
1663.00,83.43
1662.00,83.05
1661.00,82.68
1660.00,82.32
1659.00,81.97
1658.00,81.67
1657.00,81.43
1656.00,81.21
1655.00,80.96
1654.00,80.55
1653.00,79.99
1652.00,79.58
1651.00,79.32
1650.00,79.12
1649.00,78.88
1648.00,78.53
1647.00,78.11
1646.00,77.74
1645.00,77.44
1644.00,77.15
1643.00,76.87
1642.00,76.61
1641.00,76.33
1640.00,76.06
1639.00,75.81
1638.00,75.56
1637.00,75.22
1636.00,74.76
1635.00,74.32
1634.00,73.99
1633.00,73.72
1632.00,73.44
1631.00,73.16
1630.00,72.90
1629.00,72.63
1628.00,72.36
1627.00,72.14
1626.00,71.99
1625.00,71.87
1624.00,71.74
1623.00,71.63
1622.00,71.59
1621.00,71.62
1620.00,71.67
1619.00,71.77
1618.00,71.93
1617.00,72.19
1616.00,72.52
1615.00,72.87
1614.00,73.23
1613.00,73.62
1612.00,74.04
1611.00,74.52
1610.00,75.05
1609.00,75.62
1608.00,76.19
1607.00,76.76
1606.00,77.32
1605.00,77.88
1604.00,78.42
1603.00,78.95
1602.00,79.45
1601.00,79.93
1600.00,80.39
1599.00,80.82
1598.00,81.21
1597.00,81.57
1596.00,81.92
1595.00,82.27
1594.00,82.60
1593.00,82.92
1592.00,83.24
1591.00,83.53
1590.00,83.79
1589.00,84.02
1588.00,84.24
1587.00,84.45
1586.00,84.62
1585.00,84.74
1584.00,84.84
1583.00,84.90
1582.00,84.93
1581.00,84.93
1580.00,84.95
1579.00,84.94
1578.00,84.89
1577.00,84.79
1576.00,84.70
1575.00,84.65
1574.00,84.60
1573.00,84.54
1572.00,84.46
1571.00,84.34
1570.00,84.14
1569.00,83.91
1568.00,83.71
1567.00,83.51
1566.00,83.27
1565.00,83.00
1564.00,82.77
1563.00,82.59
1562.00,82.45
1561.00,82.29
1560.00,82.01
1559.00,81.56
1558.00,81.21
1557.00,80.99
1556.00,80.77
1555.00,80.51
1554.00,80.23
1553.00,79.98
1552.00,79.76
1551.00,79.54
1550.00,79.29
1549.00,79.02
1548.00,78.79
1547.00,78.59
1546.00,78.36
1545.00,78.09
1544.00,77.83
1543.00,77.58
1542.00,77.31
1541.00,76.93
1540.00,76.49
1539.00,76.13
1538.00,75.89
1537.00,75.72
1536.00,75.56
1535.00,75.36
1534.00,75.06
1533.00,74.72
1532.00,74.44
1531.00,74.19
1530.00,73.94
1529.00,73.67
1528.00,73.38
1527.00,73.07
1526.00,72.76
1525.00,72.48
1524.00,72.22
1523.00,71.92
1522.00,71.50
1521.00,71.03
1520.00,70.66
1519.00,70.34
1518.00,69.97
1517.00,69.55
1516.00,69.18
1515.00,68.93
1514.00,68.77
1513.00,68.67
1512.00,68.62
1511.00,68.63
1510.00,68.65
1509.00,68.69
1508.00,68.75
1507.00,68.87
1506.00,69.08
1505.00,69.29
1504.00,69.47
1503.00,69.63
1502.00,69.82
1501.00,70.05
1500.00,70.33
1499.00,70.65
1498.00,71.00
1497.00,71.38
1496.00,71.78
1495.00,72.16
1494.00,72.51
1493.00,72.86
1492.00,73.25
1491.00,73.68
1490.00,74.15
1489.00,74.62
1488.00,75.07
1487.00,75.47
1486.00,75.83
1485.00,76.19
1484.00,76.54
1483.00,76.89
1482.00,77.23
1481.00,77.57
1480.00,77.89
1479.00,78.19
1478.00,78.46
1477.00,78.73
1476.00,78.98
1475.00,79.20
1474.00,79.38
1473.00,79.55
1472.00,79.72
1471.00,79.88
1470.00,80.01
1469.00,80.13
1468.00,80.24
1467.00,80.35
1466.00,80.46
1465.00,80.57
1464.00,80.65
1463.00,80.71
1462.00,80.74
1461.00,80.75
1460.00,80.75
1459.00,80.71
1458.00,80.57
1457.00,80.31
1456.00,80.03
1455.00,79.77
1454.00,79.50
1453.00,79.20
1452.00,78.90
1451.00,78.62
1450.00,78.39
1449.00,78.17
1448.00,77.97
1447.00,77.83
1446.00,77.73
1445.00,77.66
1444.00,77.63
1443.00,77.63
1442.00,77.66
1441.00,77.72
1440.00,77.82
1439.00,77.96
1438.00,78.17
1437.00,78.43
1436.00,78.70
1435.00,78.95
1434.00,79.18
1433.00,79.44
1432.00,79.72
1431.00,80.03
1430.00,80.33
1429.00,80.60
1428.00,80.81
1427.00,80.98
1426.00,81.12
1425.00,81.25
1424.00,81.36
1423.00,81.47
1422.00,81.57
1421.00,81.65
1420.00,81.70
1419.00,81.68
1418.00,81.64
1417.00,81.61
1416.00,81.57
1415.00,81.53
1414.00,81.48
1413.00,81.42
1412.00,81.36
1411.00,81.31
1410.00,81.26
1409.00,81.22
1408.00,81.19
1407.00,81.16
1406.00,81.15
1405.00,81.16
1404.00,81.20
1403.00,81.25
1402.00,81.33
1401.00,81.41
1400.00,81.49
1399.00,81.57
1398.00,81.66
1397.00,81.75
1396.00,81.82
1395.00,81.89
1394.00,81.96
1393.00,82.02
1392.00,82.07
1391.00,82.12
1390.00,82.17
1389.00,82.25
1388.00,82.34
1387.00,82.41
1386.00,82.46
1385.00,82.50
1384.00,82.54
1383.00,82.58
1382.00,82.63
1381.00,82.68
1380.00,82.72
1379.00,82.76
1378.00,82.81
1377.00,82.84
1376.00,82.87
1375.00,82.87
1374.00,82.88
1373.00,82.89
1372.00,82.89
1371.00,82.88
1370.00,82.87
1369.00,82.89
1368.00,82.94
1367.00,83.02
1366.00,83.13
1365.00,83.27
1364.00,83.44
1363.00,83.63
1362.00,83.83
1361.00,84.00
1360.00,84.14
1359.00,84.26
1358.00,84.37
1357.00,84.48
1356.00,84.58
1355.00,84.67
1354.00,84.74
1353.00,84.80
1352.00,84.86
1351.00,84.90
1350.00,84.94
1349.00,84.97
1348.00,84.98
1347.00,84.98
1346.00,84.96
1345.00,84.94
1344.00,84.91
1343.00,84.88
1342.00,84.86
1341.00,84.84
1340.00,84.83
1339.00,84.82
1338.00,84.82
1337.00,84.82
1336.00,84.82
1335.00,84.82
1334.00,84.83
1333.00,84.86
1332.00,84.90
1331.00,84.93
1330.00,84.97
1329.00,85.03
1328.00,85.09
1327.00,85.16
1326.00,85.22
1325.00,85.28
1324.00,85.34
1323.00,85.40
1322.00,85.46
1321.00,85.52
1320.00,85.57
1319.00,85.59
1318.00,85.61
1317.00,85.62
1316.00,85.63
1315.00,85.64
1314.00,85.65
1313.00,85.67
1312.00,85.68
1311.00,85.70
1310.00,85.72
1309.00,85.74
1308.00,85.76
1307.00,85.78
1306.00,85.80
1305.00,85.83
1304.00,85.86
1303.00,85.89
1302.00,85.92
1301.00,85.94
1300.00,85.96
1299.00,85.98
1298.00,86.01
1297.00,86.04
1296.00,86.07
1295.00,86.08
1294.00,86.10
1293.00,86.11
1292.00,86.12
1291.00,86.11
1290.00,86.09
1289.00,86.08
1288.00,86.06
1287.00,86.03
1286.00,86.00
1285.00,85.96
1284.00,85.91
1283.00,85.85
1282.00,85.79
1281.00,85.71
1280.00,85.61
1279.00,85.49
1278.00,85.36
1277.00,85.20
1276.00,85.02
1275.00,84.82
1274.00,84.61
1273.00,84.39
1272.00,84.15
1271.00,83.89
1270.00,83.62
1269.00,83.33
1268.00,83.06
1267.00,82.80
1266.00,82.57
1265.00,82.38
1264.00,82.21
1263.00,82.07
1262.00,81.96
1261.00,81.88
1260.00,81.83
1259.00,81.81
1258.00,81.82
1257.00,81.83
1256.00,81.83
1255.00,81.82
1254.00,81.79
1253.00,81.76
1252.00,81.71
1251.00,81.65
1250.00,81.59
1249.00,81.52
1248.00,81.45
1247.00,81.37
1246.00,81.28
1245.00,81.18
1244.00,81.07
1243.00,80.94
1242.00,80.79
1241.00,80.63
1240.00,80.45
1239.00,80.23
1238.00,80.00
1237.00,79.76
1236.00,79.52
1235.00,79.30
1234.00,79.09
1233.00,78.89
1232.00,78.71
1231.00,78.56
1230.00,78.44
1229.00,78.36
1228.00,78.32
1227.00,78.32
1226.00,78.36
1225.00,78.43
1224.00,78.53
1223.00,78.64
1222.00,78.75
1221.00,78.87
1220.00,79.00
1219.00,79.15
1218.00,79.32
1217.00,79.49
1216.00,79.67
1215.00,79.86
1214.00,80.06
1213.00,80.28
1212.00,80.52
1211.00,80.78
1210.00,81.06
1209.00,81.34
1208.00,81.63
1207.00,81.92
1206.00,82.22
1205.00,82.51
1204.00,82.80
1203.00,83.07
1202.00,83.33
1201.00,83.58
1200.00,83.83
1199.00,84.08
1198.00,84.32
1197.00,84.54
1196.00,84.72
1195.00,84.87
1194.00,85.01
1193.00,85.17
1192.00,85.33
1191.00,85.48
1190.00,85.62
1189.00,85.73
1188.00,85.82
1187.00,85.90
1186.00,85.98
1185.00,86.04
1184.00,86.09
1183.00,86.10
1182.00,86.10
1181.00,86.08
1180.00,86.04
1179.00,85.97
1178.00,85.85
1177.00,85.72
1176.00,85.56
1175.00,85.37
1174.00,85.16
1173.00,84.93
1172.00,84.74
1171.00,84.59
1170.00,84.48
1169.00,84.39
1168.00,84.30
1167.00,84.22
1166.00,84.15
1165.00,84.10
1164.00,84.05
1163.00,84.01
1162.00,83.98
1161.00,83.96
1160.00,83.97
1159.00,83.99
1158.00,84.03
1157.00,84.09
1156.00,84.18
1155.00,84.28
1154.00,84.42
1153.00,84.58
1152.00,84.76
1151.00,84.94
1150.00,85.13
1149.00,85.33
1148.00,85.52
1147.00,85.70
1146.00,85.87
1145.00,86.03
1144.00,86.20
1143.00,86.35
1142.00,86.47
1141.00,86.58
1140.00,86.67
1139.00,86.76
1138.00,86.87
1137.00,87.00
1136.00,87.14
1135.00,87.25
1134.00,87.33
1133.00,87.38
1132.00,87.41
1131.00,87.43
1130.00,87.46
1129.00,87.50
1128.00,87.56
1127.00,87.64
1126.00,87.72
1125.00,87.77
1124.00,87.79
1123.00,87.81
1122.00,87.83
1121.00,87.87
1120.00,87.93
1119.00,87.98
1118.00,88.01
1117.00,88.02
1116.00,88.01
1115.00,87.99
1114.00,87.98
1113.00,87.98
1112.00,88.00
1111.00,88.05
1110.00,88.12
1109.00,88.17
1108.00,88.20
1107.00,88.18
1106.00,88.14
1105.00,88.09
1104.00,88.05
1103.00,88.03
1102.00,88.05
1101.00,88.08
1100.00,88.11
1099.00,88.13
1098.00,88.14
1097.00,88.15
1096.00,88.16
1095.00,88.17
1094.00,88.18
1093.00,88.18
1092.00,88.18
1091.00,88.14
1090.00,88.07
1089.00,87.97
1088.00,87.86
1087.00,87.74
1086.00,87.60
1085.00,87.45
1084.00,87.27
1083.00,87.07
1082.00,86.86
1081.00,86.66
1080.00,86.48
1079.00,86.34
1078.00,86.19
1077.00,86.03
1076.00,85.85
1075.00,85.67
1074.00,85.51
1073.00,85.38
1072.00,85.27
1071.00,85.17
1070.00,85.06
1069.00,84.97
1068.00,84.91
1067.00,84.86
1066.00,84.85
1065.00,84.84
1064.00,84.83
1063.00,84.84
1062.00,84.87
1061.00,84.91
1060.00,84.95
1059.00,84.98
1058.00,85.01
1057.00,85.05
1056.00,85.12
1055.00,85.19
1054.00,85.28
1053.00,85.36
1052.00,85.43
1051.00,85.51
1050.00,85.58
1049.00,85.65
1048.00,85.69
1047.00,85.71
1046.00,85.73
1045.00,85.76
1044.00,85.81
1043.00,85.87
1042.00,85.91
1041.00,85.94
1040.00,85.95
1039.00,85.98
1038.00,86.03
1037.00,86.13
1036.00,86.25
1035.00,86.38
1034.00,86.48
1033.00,86.57
1032.00,86.65
1031.00,86.73
1030.00,86.83
1029.00,86.94
1028.00,87.08
1027.00,87.21
1026.00,87.32
1025.00,87.41
1024.00,87.48
1023.00,87.52
1022.00,87.56
1021.00,87.59
1020.00,87.62
1019.00,87.64
1018.00,87.63
1017.00,87.60
1016.00,87.56
1015.00,87.52
1014.00,87.49
1013.00,87.48
1012.00,87.48
1011.00,87.48
1010.00,87.46
1009.00,87.44
1008.00,87.40
1007.00,87.36
1006.00,87.29
1005.00,87.19
1004.00,87.06
1003.00,86.91
1002.00,86.76
1001.00,86.63
1000.00,86.52
999.00,86.42
998.00,86.33
997.00,86.26
996.00,86.23
995.00,86.24
994.00,86.28
993.00,86.37
992.00,86.49
991.00,86.65
990.00,86.84
989.00,87.04
988.00,87.23
987.00,87.36
986.00,87.43
985.00,87.44
984.00,87.41
983.00,87.34
982.00,87.25
981.00,87.11
980.00,86.94
979.00,86.76
978.00,86.59
977.00,86.45
976.00,86.36
975.00,86.32
974.00,86.34
973.00,86.41
972.00,86.52
971.00,86.65
970.00,86.80
969.00,86.96
968.00,87.12
967.00,87.30
966.00,87.46
965.00,87.61
964.00,87.74
963.00,87.85
962.00,87.94
961.00,88.03
960.00,88.12
959.00,88.20
958.00,88.27
957.00,88.33
956.00,88.39
955.00,88.45
954.00,88.51
953.00,88.57
952.00,88.62
951.00,88.66
950.00,88.70
949.00,88.76
948.00,88.83
947.00,88.93
946.00,89.03
945.00,89.11
944.00,89.16
943.00,89.18
942.00,89.18
941.00,89.18
940.00,89.19
939.00,89.21
938.00,89.24
937.00,89.27
936.00,89.30
935.00,89.30
934.00,89.29
933.00,89.29
932.00,89.29
931.00,89.31
930.00,89.32
929.00,89.33
928.00,89.33
927.00,89.36
926.00,89.40
925.00,89.46
924.00,89.53
923.00,89.60
922.00,89.68
921.00,89.76
920.00,89.82
919.00,89.87
918.00,89.89
917.00,89.90
916.00,89.93
915.00,89.97
914.00,90.05
913.00,90.14
912.00,90.23
911.00,90.31
910.00,90.35
909.00,90.37
908.00,90.38
907.00,90.39
906.00,90.40
905.00,90.42
904.00,90.43
903.00,90.44
902.00,90.46
901.00,90.47
900.00,90.47
899.00,90.45
898.00,90.44
897.00,90.43
896.00,90.43
895.00,90.43
894.00,90.44
893.00,90.45
892.00,90.48
891.00,90.50
890.00,90.52
889.00,90.54
888.00,90.56
887.00,90.56
886.00,90.56
885.00,90.57
884.00,90.59
883.00,90.61
882.00,90.62
881.00,90.62
880.00,90.62
879.00,90.62
878.00,90.63
877.00,90.64
876.00,90.64
875.00,90.63
874.00,90.63
873.00,90.65
872.00,90.68
871.00,90.71
870.00,90.74
869.00,90.76
868.00,90.77
867.00,90.79
866.00,90.80
865.00,90.80
864.00,90.79
863.00,90.74
862.00,90.65
861.00,90.54
860.00,90.43
859.00,90.32
858.00,90.23
857.00,90.17
856.00,90.11
855.00,90.06
854.00,90.01
853.00,89.96
852.00,89.93
851.00,89.92
850.00,89.92
849.00,89.94
848.00,89.97
847.00,89.99
846.00,90.01
845.00,90.02
844.00,90.03
843.00,90.02
842.00,89.99
841.00,89.94
840.00,89.86
839.00,89.77
838.00,89.70
837.00,89.66
836.00,89.61
835.00,89.54
834.00,89.45
833.00,89.36
832.00,89.29
831.00,89.24
830.00,89.20
829.00,89.16
828.00,89.14
827.00,89.14
826.00,89.13
825.00,89.12
824.00,89.12
823.00,89.13
822.00,89.17
821.00,89.21
820.00,89.23
819.00,89.21
818.00,89.18
817.00,89.15
816.00,89.11
815.00,89.07
814.00,89.04
813.00,89.02
812.00,89.00
811.00,89.00
810.00,88.99
809.00,88.99
808.00,88.99
807.00,89.00
806.00,89.02
805.00,89.03
804.00,89.02
803.00,88.99
802.00,88.96
801.00,88.92
800.00,88.86
799.00,88.79
798.00,88.75
797.00,88.75
796.00,88.74
795.00,88.72
794.00,88.67
793.00,88.62
792.00,88.57
791.00,88.51
790.00,88.45
789.00,88.36
788.00,88.26
787.00,88.14
786.00,88.01
785.00,87.90
784.00,87.81
783.00,87.76
782.00,87.73
781.00,87.69
780.00,87.62
779.00,87.53
778.00,87.44
777.00,87.37
776.00,87.31
775.00,87.24
774.00,87.15
773.00,87.02
772.00,86.86
771.00,86.70
770.00,86.57
769.00,86.47
768.00,86.38
767.00,86.28
766.00,86.18
765.00,86.08
764.00,86.01
763.00,85.96
762.00,85.92
761.00,85.89
760.00,85.83
759.00,85.75
758.00,85.67
757.00,85.58
756.00,85.50
755.00,85.40
754.00,85.28
753.00,85.15
752.00,85.03
751.00,84.93
750.00,84.83
749.00,84.71
748.00,84.57
747.00,84.43
746.00,84.29
745.00,84.15
744.00,84.01
743.00,83.85
742.00,83.66
741.00,83.45
740.00,83.24
739.00,83.03
738.00,82.84
737.00,82.66
736.00,82.49
735.00,82.32
734.00,82.13
733.00,81.94
732.00,81.73
731.00,81.52
730.00,81.32
729.00,81.11
728.00,80.91
727.00,80.70
726.00,80.51
725.00,80.32
724.00,80.13
723.00,79.96
722.00,79.78
721.00,79.61
720.00,79.43
719.00,79.27
718.00,79.12
717.00,78.99
716.00,78.86
715.00,78.72
714.00,78.56
713.00,78.39
712.00,78.21
711.00,78.03
710.00,77.86
709.00,77.72
708.00,77.60
707.00,77.49
706.00,77.35
705.00,77.18
704.00,77.00
703.00,76.83
702.00,76.68
701.00,76.53
700.00,76.39
699.00,76.25
698.00,76.11
697.00,75.95
696.00,75.79
695.00,75.66
694.00,75.57
693.00,75.51
692.00,75.44
691.00,75.37
690.00,75.32
689.00,75.27
688.00,75.19
687.00,75.10
686.00,74.99
685.00,74.89
684.00,74.82
683.00,74.80
682.00,74.82
681.00,74.83
680.00,74.78
679.00,74.67
678.00,74.58
677.00,74.54
676.00,74.55
675.00,74.54
674.00,74.51
673.00,74.50
672.00,74.55
671.00,74.64
670.00,74.70
669.00,74.60
668.00,74.30
667.00,74.10
666.00,74.13
665.00,74.25
664.00,74.31
663.00,74.26
662.00,74.11
661.00,73.93
660.00,73.75
659.00,73.60
658.00,73.49
657.00,73.41
656.00,73.35
655.00,73.31
654.00,73.28
653.00,73.23
652.00,73.14
651.00,73.02
650.00,72.90
649.00,72.77
648.00,72.62
647.00,72.46
646.00,72.31
645.00,72.14
644.00,71.93
643.00,71.70
642.00,71.49
641.00,71.34
640.00,71.28
639.00,71.29
638.00,71.32
637.00,71.32
636.00,71.25
635.00,71.14
634.00,70.97
633.00,70.71
632.00,70.42
631.00,70.22
630.00,70.15
629.00,70.14
628.00,70.11
627.00,70.08
626.00,70.10
625.00,70.17
624.00,70.22
623.00,70.27
622.00,70.33
621.00,70.41
620.00,70.47
619.00,70.48
618.00,70.46
617.00,70.36
616.00,70.20
615.00,70.03
614.00,69.92
613.00,69.85
612.00,69.85
611.00,69.96
610.00,70.13
609.00,70.17
608.00,70.03
607.00,69.89
606.00,69.95
605.00,70.22
604.00,70.56
603.00,70.93
602.00,71.31
601.00,71.64
600.00,71.74
599.00,71.59
598.00,71.34
597.00,71.18
596.00,71.18
595.00,71.29
594.00,71.37
593.00,71.28
592.00,71.01
591.00,70.78
590.00,70.82
589.00,71.14
588.00,71.53
587.00,71.74
586.00,71.76
585.00,71.71
584.00,71.68
583.00,71.71
582.00,71.79
581.00,71.83
580.00,71.74
579.00,71.59
578.00,71.52
577.00,71.55
576.00,71.62
575.00,71.74
574.00,72.01
573.00,72.29
572.00,72.30
571.00,72.02
570.00,71.82
569.00,71.90
568.00,71.99
567.00,71.73
566.00,71.10
565.00,70.41
564.00,69.82
563.00,69.34
562.00,69.08
561.00,69.14
560.00,69.34
559.00,69.29
558.00,68.76
557.00,67.92
556.00,67.07
555.00,66.38
554.00,65.81
553.00,65.26
552.00,64.72
551.00,64.26
550.00,63.88
