Created as New Dataset,18.1 Wild, two colors from India (dark)
cm-1,%T
4000.00,103.17
3999.00,103.18
3998.00,103.20
3997.00,103.21
3996.00,103.21
3995.00,103.21
3994.00,103.20
3993.00,103.20
3992.00,103.20
3991.00,103.20
3990.00,103.20
3989.00,103.18
3988.00,103.17
3987.00,103.16
3986.00,103.15
3985.00,103.14
3984.00,103.13
3983.00,103.13
3982.00,103.13
3981.00,103.13
3980.00,103.13
3979.00,103.14
3978.00,103.13
3977.00,103.14
3976.00,103.15
3975.00,103.17
3974.00,103.18
3973.00,103.18
3972.00,103.17
3971.00,103.16
3970.00,103.15
3969.00,103.15
3968.00,103.15
3967.00,103.16
3966.00,103.17
3965.00,103.18
3964.00,103.18
3963.00,103.18
3962.00,103.18
3961.00,103.18
3960.00,103.19
3959.00,103.20
3958.00,103.21
3957.00,103.22
3956.00,103.23
3955.00,103.22
3954.00,103.21
3953.00,103.19
3952.00,103.17
3951.00,103.15
3950.00,103.13
3949.00,103.13
3948.00,103.13
3947.00,103.13
3946.00,103.13
3945.00,103.13
3944.00,103.14
3943.00,103.14
3942.00,103.14
3941.00,103.14
3940.00,103.15
3939.00,103.16
3938.00,103.18
3937.00,103.19
3936.00,103.21
3935.00,103.21
3934.00,103.21
3933.00,103.18
3932.00,103.16
3931.00,103.14
3930.00,103.14
3929.00,103.15
3928.00,103.16
3927.00,103.16
3926.00,103.14
3925.00,103.12
3924.00,103.11
3923.00,103.10
3922.00,103.11
3921.00,103.13
3920.00,103.14
3919.00,103.15
3918.00,103.14
3917.00,103.13
3916.00,103.11
3915.00,103.09
3914.00,103.08
3913.00,103.08
3912.00,103.08
3911.00,103.09
3910.00,103.10
3909.00,103.10
3908.00,103.11
3907.00,103.12
3906.00,103.13
3905.00,103.13
3904.00,103.12
3903.00,103.13
3902.00,103.14
3901.00,103.15
3900.00,103.16
3899.00,103.16
3898.00,103.14
3897.00,103.13
3896.00,103.12
3895.00,103.12
3894.00,103.13
3893.00,103.13
3892.00,103.13
3891.00,103.12
3890.00,103.12
3889.00,103.11
3888.00,103.12
3887.00,103.12
3886.00,103.11
3885.00,103.10
3884.00,103.10
3883.00,103.13
3882.00,103.16
3881.00,103.19
3880.00,103.21
3879.00,103.20
3878.00,103.18
3877.00,103.15
3876.00,103.14
3875.00,103.13
3874.00,103.12
3873.00,103.11
3872.00,103.09
3871.00,103.08
3870.00,103.08
3869.00,103.09
3868.00,103.10
3867.00,103.12
3866.00,103.14
3865.00,103.15
3864.00,103.14
3863.00,103.13
3862.00,103.12
3861.00,103.11
3860.00,103.09
3859.00,103.07
3858.00,103.05
3857.00,103.03
3856.00,103.02
3855.00,103.04
3854.00,103.06
3853.00,103.07
3852.00,103.08
3851.00,103.10
3850.00,103.13
3849.00,103.16
3848.00,103.18
3847.00,103.19
3846.00,103.18
3845.00,103.17
3844.00,103.15
3843.00,103.14
3842.00,103.13
3841.00,103.12
3840.00,103.11
3839.00,103.10
3838.00,103.08
3837.00,103.08
3836.00,103.07
3835.00,103.06
3834.00,103.06
3833.00,103.06
3832.00,103.06
3831.00,103.07
3830.00,103.08
3829.00,103.09
3828.00,103.10
3827.00,103.11
3826.00,103.12
3825.00,103.11
3824.00,103.10
3823.00,103.10
3822.00,103.09
3821.00,103.09
3820.00,103.07
3819.00,103.05
3818.00,103.04
3817.00,103.04
3816.00,103.05
3815.00,103.06
3814.00,103.08
3813.00,103.09
3812.00,103.11
3811.00,103.13
3810.00,103.13
3809.00,103.13
3808.00,103.13
3807.00,103.13
3806.00,103.11
3805.00,103.09
3804.00,103.07
3803.00,103.08
3802.00,103.10
3801.00,103.11
3800.00,103.11
3799.00,103.11
3798.00,103.11
3797.00,103.11
3796.00,103.11
3795.00,103.10
3794.00,103.10
3793.00,103.09
3792.00,103.09
3791.00,103.09
3790.00,103.08
3789.00,103.08
3788.00,103.08
3787.00,103.09
3786.00,103.10
3785.00,103.10
3784.00,103.09
3783.00,103.07
3782.00,103.06
3781.00,103.06
3780.00,103.07
3779.00,103.08
3778.00,103.09
3777.00,103.09
3776.00,103.09
3775.00,103.09
3774.00,103.07
3773.00,103.04
3772.00,103.02
3771.00,103.02
3770.00,103.03
3769.00,103.05
3768.00,103.06
3767.00,103.08
3766.00,103.10
3765.00,103.10
3764.00,103.09
3763.00,103.07
3762.00,103.06
3761.00,103.07
3760.00,103.08
3759.00,103.08
3758.00,103.06
3757.00,103.03
3756.00,103.01
3755.00,103.00
3754.00,103.02
3753.00,103.05
3752.00,103.07
3751.00,103.07
3750.00,103.07
3749.00,103.06
3748.00,103.03
3747.00,102.98
3746.00,102.94
3745.00,102.93
3744.00,102.95
3743.00,102.98
3742.00,103.02
3741.00,103.06
3740.00,103.09
3739.00,103.11
3738.00,103.13
3737.00,103.13
3736.00,103.11
3735.00,103.06
3734.00,103.02
3733.00,103.01
3732.00,103.03
3731.00,103.07
3730.00,103.10
3729.00,103.11
3728.00,103.11
3727.00,103.10
3726.00,103.11
3725.00,103.14
3724.00,103.15
3723.00,103.14
3722.00,103.11
3721.00,103.08
3720.00,103.08
3719.00,103.10
3718.00,103.12
3717.00,103.13
3716.00,103.12
3715.00,103.09
3714.00,103.07
3713.00,103.08
3712.00,103.10
3711.00,103.13
3710.00,103.14
3709.00,103.14
3708.00,103.13
3707.00,103.11
3706.00,103.09
3705.00,103.06
3704.00,103.04
3703.00,103.02
3702.00,103.01
3701.00,103.00
3700.00,102.99
3699.00,103.00
3698.00,103.01
3697.00,103.02
3696.00,103.04
3695.00,103.06
3694.00,103.07
3693.00,103.08
3692.00,103.07
3691.00,103.06
3690.00,103.04
3689.00,103.03
3688.00,103.02
3687.00,103.01
3686.00,103.01
3685.00,103.00
3684.00,103.00
3683.00,102.99
3682.00,102.98
3681.00,102.98
3680.00,102.98
3679.00,102.98
3678.00,102.96
3677.00,102.96
3676.00,102.97
3675.00,102.97
3674.00,102.97
3673.00,102.96
3672.00,102.95
3671.00,102.95
3670.00,102.95
3669.00,102.93
3668.00,102.91
3667.00,102.90
3666.00,102.90
3665.00,102.91
3664.00,102.93
3663.00,102.94
3662.00,102.94
3661.00,102.93
3660.00,102.91
3659.00,102.87
3658.00,102.83
3657.00,102.80
3656.00,102.79
3655.00,102.79
3654.00,102.80
3653.00,102.81
3652.00,102.84
3651.00,102.87
3650.00,102.88
3649.00,102.87
3648.00,102.83
3647.00,102.79
3646.00,102.77
3645.00,102.76
3644.00,102.76
3643.00,102.78
3642.00,102.79
3641.00,102.79
3640.00,102.78
3639.00,102.76
3638.00,102.75
3637.00,102.74
3636.00,102.73
3635.00,102.72
3634.00,102.72
3633.00,102.70
3632.00,102.69
3631.00,102.67
3630.00,102.64
3629.00,102.61
3628.00,102.57
3627.00,102.54
3626.00,102.52
3625.00,102.50
3624.00,102.50
3623.00,102.50
3622.00,102.51
3621.00,102.52
3620.00,102.52
3619.00,102.50
3618.00,102.50
3617.00,102.52
3616.00,102.55
3615.00,102.57
3614.00,102.55
3613.00,102.51
3612.00,102.47
3611.00,102.44
3610.00,102.44
3609.00,102.45
3608.00,102.46
3607.00,102.45
3606.00,102.43
3605.00,102.39
3604.00,102.36
3603.00,102.34
3602.00,102.34
3601.00,102.34
3600.00,102.33
3599.00,102.30
3598.00,102.27
3597.00,102.25
3596.00,102.23
3595.00,102.23
3594.00,102.22
3593.00,102.22
3592.00,102.21
3591.00,102.22
3590.00,102.22
3589.00,102.21
3588.00,102.20
3587.00,102.19
3586.00,102.19
3585.00,102.19
3584.00,102.20
3583.00,102.20
3582.00,102.19
3581.00,102.16
3580.00,102.14
3579.00,102.12
3578.00,102.10
3577.00,102.10
3576.00,102.10
3575.00,102.10
3574.00,102.11
3573.00,102.11
3572.00,102.11
3571.00,102.10
3570.00,102.08
3569.00,102.06
3568.00,102.05
3567.00,102.03
3566.00,102.00
3565.00,101.98
3564.00,101.96
3563.00,101.95
3562.00,101.93
3561.00,101.92
3560.00,101.90
3559.00,101.90
3558.00,101.89
3557.00,101.88
3556.00,101.86
3555.00,101.83
3554.00,101.81
3553.00,101.79
3552.00,101.78
3551.00,101.78
3550.00,101.78
3549.00,101.78
3548.00,101.78
3547.00,101.79
3546.00,101.78
3545.00,101.75
3544.00,101.69
3543.00,101.64
3542.00,101.59
3541.00,101.58
3540.00,101.59
3539.00,101.62
3538.00,101.65
3537.00,101.65
3536.00,101.62
3535.00,101.57
3534.00,101.53
3533.00,101.50
3532.00,101.51
3531.00,101.53
3530.00,101.55
3529.00,101.55
3528.00,101.53
3527.00,101.50
3526.00,101.47
3525.00,101.44
3524.00,101.43
3523.00,101.43
3522.00,101.42
3521.00,101.41
3520.00,101.38
3519.00,101.36
3518.00,101.34
3517.00,101.34
3516.00,101.34
3515.00,101.34
3514.00,101.33
3513.00,101.31
3512.00,101.29
3511.00,101.28
3510.00,101.27
3509.00,101.27
3508.00,101.27
3507.00,101.25
3506.00,101.23
3505.00,101.20
3504.00,101.17
3503.00,101.15
3502.00,101.14
3501.00,101.14
3500.00,101.15
3499.00,101.16
3498.00,101.17
3497.00,101.17
3496.00,101.16
3495.00,101.15
3494.00,101.14
3493.00,101.13
3492.00,101.12
3491.00,101.09
3490.00,101.07
3489.00,101.04
3488.00,101.02
3487.00,101.00
3486.00,100.99
3485.00,100.98
3484.00,100.98
3483.00,100.98
3482.00,100.98
3481.00,100.97
3480.00,100.96
3479.00,100.93
3478.00,100.92
3477.00,100.91
3476.00,100.91
3475.00,100.89
3474.00,100.87
3473.00,100.85
3472.00,100.84
3471.00,100.83
3470.00,100.83
3469.00,100.83
3468.00,100.84
3467.00,100.84
3466.00,100.84
3465.00,100.82
3464.00,100.80
3463.00,100.77
3462.00,100.76
3461.00,100.75
3460.00,100.75
3459.00,100.75
3458.00,100.76
3457.00,100.77
3456.00,100.77
3455.00,100.76
3454.00,100.73
3453.00,100.71
3452.00,100.69
3451.00,100.69
3450.00,100.68
3449.00,100.67
3448.00,100.64
3447.00,100.62
3446.00,100.61
3445.00,100.59
3444.00,100.56
3443.00,100.53
3442.00,100.51
3441.00,100.51
3440.00,100.53
3439.00,100.54
3438.00,100.53
3437.00,100.52
3436.00,100.51
3435.00,100.52
3434.00,100.53
3433.00,100.54
3432.00,100.54
3431.00,100.53
3430.00,100.51
3429.00,100.49
3428.00,100.46
3427.00,100.42
3426.00,100.38
3425.00,100.35
3424.00,100.34
3423.00,100.36
3422.00,100.39
3421.00,100.40
3420.00,100.40
3419.00,100.38
3418.00,100.35
3417.00,100.31
3416.00,100.27
3415.00,100.24
3414.00,100.22
3413.00,100.20
3412.00,100.20
3411.00,100.20
3410.00,100.20
3409.00,100.19
3408.00,100.17
3407.00,100.14
3406.00,100.11
3405.00,100.09
3404.00,100.08
3403.00,100.07
3402.00,100.07
3401.00,100.07
3400.00,100.07
3399.00,100.08
3398.00,100.08
3397.00,100.06
3396.00,100.03
3395.00,100.00
3394.00,99.97
3393.00,99.96
3392.00,99.95
3391.00,99.95
3390.00,99.94
3389.00,99.94
3388.00,99.93
3387.00,99.92
3386.00,99.89
3385.00,99.86
3384.00,99.84
3383.00,99.84
3382.00,99.83
3381.00,99.82
3380.00,99.81
3379.00,99.80
3378.00,99.80
3377.00,99.80
3376.00,99.80
3375.00,99.79
3374.00,99.78
3373.00,99.77
3372.00,99.76
3371.00,99.76
3370.00,99.75
3369.00,99.74
3368.00,99.72
3367.00,99.69
3366.00,99.67
3365.00,99.66
3364.00,99.65
3363.00,99.63
3362.00,99.60
3361.00,99.57
3360.00,99.54
3359.00,99.53
3358.00,99.52
3357.00,99.51
3356.00,99.50
3355.00,99.49
3354.00,99.46
3353.00,99.43
3352.00,99.39
3351.00,99.35
3350.00,99.33
3349.00,99.32
3348.00,99.33
3347.00,99.33
3346.00,99.32
3345.00,99.29
3344.00,99.24
3343.00,99.18
3342.00,99.13
3341.00,99.10
3340.00,99.08
3339.00,99.07
3338.00,99.04
3337.00,99.01
3336.00,98.98
3335.00,98.95
3334.00,98.92
3333.00,98.89
3332.00,98.87
3331.00,98.84
3330.00,98.80
3329.00,98.75
3328.00,98.70
3327.00,98.66
3326.00,98.63
3325.00,98.60
3324.00,98.57
3323.00,98.54
3322.00,98.50
3321.00,98.47
3320.00,98.44
3319.00,98.41
3318.00,98.38
3317.00,98.35
3316.00,98.30
3315.00,98.26
3314.00,98.20
3313.00,98.15
3312.00,98.10
3311.00,98.07
3310.00,98.04
3309.00,98.00
3308.00,97.96
3307.00,97.91
3306.00,97.85
3305.00,97.79
3304.00,97.73
3303.00,97.66
3302.00,97.61
3301.00,97.56
3300.00,97.52
3299.00,97.47
3298.00,97.42
3297.00,97.36
3296.00,97.29
3295.00,97.23
3294.00,97.18
3293.00,97.13
3292.00,97.06
3291.00,96.99
3290.00,96.93
3289.00,96.86
3288.00,96.79
3287.00,96.73
3286.00,96.66
3285.00,96.60
3284.00,96.56
3283.00,96.51
3282.00,96.47
3281.00,96.42
3280.00,96.37
3279.00,96.33
3278.00,96.29
3277.00,96.27
3276.00,96.25
3275.00,96.24
3274.00,96.24
3273.00,96.25
3272.00,96.26
3271.00,96.26
3270.00,96.27
3269.00,96.28
3268.00,96.29
3267.00,96.32
3266.00,96.36
3265.00,96.41
3264.00,96.47
3263.00,96.54
3262.00,96.60
3261.00,96.64
3260.00,96.67
3259.00,96.69
3258.00,96.72
3257.00,96.76
3256.00,96.81
3255.00,96.86
3254.00,96.91
3253.00,96.97
3252.00,97.02
3251.00,97.07
3250.00,97.12
3249.00,97.17
3248.00,97.21
3247.00,97.24
3246.00,97.25
3245.00,97.27
3244.00,97.31
3243.00,97.36
3242.00,97.42
3241.00,97.47
3240.00,97.51
3239.00,97.55
3238.00,97.59
3237.00,97.62
3236.00,97.64
3235.00,97.67
3234.00,97.71
3233.00,97.76
3232.00,97.82
3231.00,97.87
3230.00,97.90
3229.00,97.92
3228.00,97.93
3227.00,97.94
3226.00,97.95
3225.00,97.97
3224.00,97.99
3223.00,98.01
3222.00,98.04
3221.00,98.07
3220.00,98.11
3219.00,98.16
3218.00,98.19
3217.00,98.20
3216.00,98.21
3215.00,98.22
3214.00,98.24
3213.00,98.27
3212.00,98.31
3211.00,98.36
3210.00,98.40
3209.00,98.45
3208.00,98.48
3207.00,98.50
3206.00,98.52
3205.00,98.55
3204.00,98.58
3203.00,98.61
3202.00,98.62
3201.00,98.62
3200.00,98.64
3199.00,98.66
3198.00,98.69
3197.00,98.72
3196.00,98.75
3195.00,98.78
3194.00,98.81
3193.00,98.83
3192.00,98.84
3191.00,98.86
3190.00,98.89
3189.00,98.92
3188.00,98.96
3187.00,98.99
3186.00,99.02
3185.00,99.05
3184.00,99.07
3183.00,99.11
3182.00,99.14
3181.00,99.16
3180.00,99.18
3179.00,99.20
3178.00,99.22
3177.00,99.24
3176.00,99.25
3175.00,99.27
3174.00,99.29
3173.00,99.32
3172.00,99.36
3171.00,99.39
3170.00,99.41
3169.00,99.44
3168.00,99.47
3167.00,99.50
3166.00,99.52
3165.00,99.51
3164.00,99.51
3163.00,99.52
3162.00,99.54
3161.00,99.58
3160.00,99.61
3159.00,99.63
3158.00,99.64
3157.00,99.65
3156.00,99.66
3155.00,99.68
3154.00,99.70
3153.00,99.72
3152.00,99.74
3151.00,99.76
3150.00,99.79
3149.00,99.81
3148.00,99.81
3147.00,99.81
3146.00,99.81
3145.00,99.81
3144.00,99.82
3143.00,99.84
3142.00,99.85
3141.00,99.86
3140.00,99.87
3139.00,99.89
3138.00,99.90
3137.00,99.91
3136.00,99.92
3135.00,99.92
3134.00,99.93
3133.00,99.94
3132.00,99.96
3131.00,99.98
3130.00,100.00
3129.00,100.02
3128.00,100.02
3127.00,100.02
3126.00,100.02
3125.00,100.02
3124.00,100.01
3123.00,100.00
3122.00,100.00
3121.00,100.01
3120.00,100.02
3119.00,100.03
3118.00,100.03
3117.00,100.02
3116.00,100.01
3115.00,99.99
3114.00,99.98
3113.00,99.98
3112.00,99.98
3111.00,99.98
3110.00,99.98
3109.00,99.97
3108.00,99.97
3107.00,99.97
3106.00,99.96
3105.00,99.96
3104.00,99.96
3103.00,99.97
3102.00,99.99
3101.00,100.00
3100.00,100.01
3099.00,100.00
3098.00,99.98
3097.00,99.95
3096.00,99.91
3095.00,99.89
3094.00,99.89
3093.00,99.88
3092.00,99.87
3091.00,99.86
3090.00,99.85
3089.00,99.84
3088.00,99.84
3087.00,99.84
3086.00,99.84
3085.00,99.83
3084.00,99.81
3083.00,99.80
3082.00,99.78
3081.00,99.76
3080.00,99.75
3079.00,99.75
3078.00,99.73
3077.00,99.72
3076.00,99.70
3075.00,99.69
3074.00,99.70
3073.00,99.71
3072.00,99.72
3071.00,99.72
3070.00,99.72
3069.00,99.72
3068.00,99.72
3067.00,99.73
3066.00,99.75
3065.00,99.77
3064.00,99.77
3063.00,99.77
3062.00,99.78
3061.00,99.79
3060.00,99.81
3059.00,99.83
3058.00,99.83
3057.00,99.84
3056.00,99.86
3055.00,99.89
3054.00,99.92
3053.00,99.95
3052.00,99.97
3051.00,99.98
3050.00,100.00
3049.00,100.01
3048.00,100.02
3047.00,100.03
3046.00,100.05
3045.00,100.07
3044.00,100.09
3043.00,100.11
3042.00,100.12
3041.00,100.14
3040.00,100.15
3039.00,100.17
3038.00,100.19
3037.00,100.20
3036.00,100.21
3035.00,100.21
3034.00,100.22
3033.00,100.24
3032.00,100.26
3031.00,100.28
3030.00,100.29
3029.00,100.31
3028.00,100.33
3027.00,100.36
3026.00,100.39
3025.00,100.41
3024.00,100.41
3023.00,100.41
3022.00,100.40
3021.00,100.40
3020.00,100.41
3019.00,100.42
3018.00,100.44
3017.00,100.45
3016.00,100.44
3015.00,100.44
3014.00,100.45
3013.00,100.47
3012.00,100.50
3011.00,100.51
3010.00,100.52
3009.00,100.52
3008.00,100.51
3007.00,100.50
3006.00,100.48
3005.00,100.47
3004.00,100.46
3003.00,100.46
3002.00,100.46
3001.00,100.47
3000.00,100.47
2999.00,100.47
2998.00,100.47
2997.00,100.48
2996.00,100.48
2995.00,100.46
2994.00,100.43
2993.00,100.38
2992.00,100.33
2991.00,100.30
2990.00,100.29
2989.00,100.28
2988.00,100.28
2987.00,100.26
2986.00,100.24
2985.00,100.23
2984.00,100.22
2983.00,100.21
2982.00,100.20
2981.00,100.20
2980.00,100.19
2979.00,100.20
2978.00,100.20
2977.00,100.20
2976.00,100.19
2975.00,100.18
2974.00,100.17
2973.00,100.16
2972.00,100.16
2971.00,100.16
2970.00,100.17
2969.00,100.16
2968.00,100.16
2967.00,100.15
2966.00,100.14
2965.00,100.14
2964.00,100.13
2963.00,100.14
2962.00,100.15
2961.00,100.16
2960.00,100.16
2959.00,100.15
2958.00,100.15
2957.00,100.16
2956.00,100.18
2955.00,100.20
2954.00,100.21
2953.00,100.20
2952.00,100.19
2951.00,100.19
2950.00,100.18
2949.00,100.19
2948.00,100.19
2947.00,100.18
2946.00,100.17
2945.00,100.16
2944.00,100.14
2943.00,100.11
2942.00,100.07
2941.00,100.03
2940.00,99.98
2939.00,99.94
2938.00,99.89
2937.00,99.86
2936.00,99.83
2935.00,99.80
2934.00,99.77
2933.00,99.74
2932.00,99.72
2931.00,99.71
2930.00,99.72
2929.00,99.72
2928.00,99.72
2927.00,99.71
2926.00,99.71
2925.00,99.72
2924.00,99.75
2923.00,99.78
2922.00,99.81
2921.00,99.85
2920.00,99.88
2919.00,99.92
2918.00,99.96
2917.00,100.00
2916.00,100.04
2915.00,100.09
2914.00,100.13
2913.00,100.17
2912.00,100.19
2911.00,100.21
2910.00,100.24
2909.00,100.27
2908.00,100.30
2907.00,100.34
2906.00,100.38
2905.00,100.41
2904.00,100.45
2903.00,100.46
2902.00,100.47
2901.00,100.47
2900.00,100.47
2899.00,100.47
2898.00,100.49
2897.00,100.51
2896.00,100.53
2895.00,100.55
2894.00,100.56
2893.00,100.56
2892.00,100.55
2891.00,100.54
2890.00,100.53
2889.00,100.54
2888.00,100.55
2887.00,100.55
2886.00,100.56
2885.00,100.57
2884.00,100.59
2883.00,100.61
2882.00,100.63
2881.00,100.62
2880.00,100.60
2879.00,100.58
2878.00,100.56
2877.00,100.55
2876.00,100.54
2875.00,100.53
2874.00,100.52
2873.00,100.51
2872.00,100.51
2871.00,100.52
2870.00,100.53
2869.00,100.55
2868.00,100.57
2867.00,100.59
2866.00,100.60
2865.00,100.61
2864.00,100.62
2863.00,100.63
2862.00,100.63
2861.00,100.62
2860.00,100.60
2859.00,100.59
2858.00,100.59
2857.00,100.59
2856.00,100.58
2855.00,100.57
2854.00,100.57
2853.00,100.57
2852.00,100.59
2851.00,100.62
2850.00,100.65
2849.00,100.69
2848.00,100.73
2847.00,100.77
2846.00,100.81
2845.00,100.85
2844.00,100.88
2843.00,100.91
2842.00,100.93
2841.00,100.94
2840.00,100.96
2839.00,100.98
2838.00,101.00
2837.00,101.03
2836.00,101.06
2835.00,101.08
2834.00,101.09
2833.00,101.10
2832.00,101.11
2831.00,101.13
2830.00,101.14
2829.00,101.15
2828.00,101.15
2827.00,101.14
2826.00,101.14
2825.00,101.13
2824.00,101.13
2823.00,101.14
2822.00,101.15
2821.00,101.17
2820.00,101.19
2819.00,101.19
2818.00,101.19
2817.00,101.17
2816.00,101.15
2815.00,101.13
2814.00,101.12
2813.00,101.13
2812.00,101.16
2811.00,101.18
2810.00,101.20
2809.00,101.19
2808.00,101.19
2807.00,101.19
2806.00,101.20
2805.00,101.21
2804.00,101.23
2803.00,101.23
2802.00,101.23
2801.00,101.22
2800.00,101.21
2799.00,101.21
2798.00,101.20
2797.00,101.20
2796.00,101.21
2795.00,101.21
2794.00,101.22
2793.00,101.23
2792.00,101.23
2791.00,101.24
2790.00,101.24
2789.00,101.25
2788.00,101.26
2787.00,101.26
2786.00,101.27
2785.00,101.27
2784.00,101.28
2783.00,101.27
2782.00,101.26
2781.00,101.25
2780.00,101.25
2779.00,101.26
2778.00,101.26
2777.00,101.27
2776.00,101.26
2775.00,101.26
2774.00,101.26
2773.00,101.27
2772.00,101.28
2771.00,101.31
2770.00,101.33
2769.00,101.34
2768.00,101.34
2767.00,101.34
2766.00,101.34
2765.00,101.34
2764.00,101.34
2763.00,101.34
2762.00,101.34
2761.00,101.35
2760.00,101.36
2759.00,101.37
2758.00,101.37
2757.00,101.38
2756.00,101.38
2755.00,101.38
2754.00,101.38
2753.00,101.39
2752.00,101.39
2751.00,101.38
2750.00,101.38
2749.00,101.39
2748.00,101.40
2747.00,101.41
2746.00,101.41
2745.00,101.42
2744.00,101.42
2743.00,101.43
2742.00,101.43
2741.00,101.42
2740.00,101.42
2739.00,101.42
2738.00,101.42
2737.00,101.43
2736.00,101.43
2735.00,101.42
2734.00,101.41
2733.00,101.40
2732.00,101.40
2731.00,101.40
2730.00,101.40
2729.00,101.40
2728.00,101.42
2727.00,101.43
2726.00,101.45
2725.00,101.46
2724.00,101.47
2723.00,101.47
2722.00,101.47
2721.00,101.46
2720.00,101.47
2719.00,101.49
2718.00,101.49
2717.00,101.49
2716.00,101.48
2715.00,101.47
2714.00,101.48
2713.00,101.49
2712.00,101.50
2711.00,101.51
2710.00,101.52
2709.00,101.52
2708.00,101.52
2707.00,101.53
2706.00,101.54
2705.00,101.55
2704.00,101.55
2703.00,101.54
2702.00,101.54
2701.00,101.53
2700.00,101.54
2699.00,101.54
2698.00,101.54
2697.00,101.54
2696.00,101.54
2695.00,101.53
2694.00,101.53
2693.00,101.52
2692.00,101.52
2691.00,101.52
2690.00,101.53
2689.00,101.54
2688.00,101.55
2687.00,101.55
2686.00,101.55
2685.00,101.54
2684.00,101.54
2683.00,101.53
2682.00,101.52
2681.00,101.52
2680.00,101.51
2679.00,101.52
2678.00,101.53
2677.00,101.56
2676.00,101.58
2675.00,101.60
2674.00,101.61
2673.00,101.60
2672.00,101.59
2671.00,101.58
2670.00,101.58
2669.00,101.58
2668.00,101.58
2667.00,101.59
2666.00,101.59
2665.00,101.58
2664.00,101.58
2663.00,101.59
2662.00,101.59
2661.00,101.59
2660.00,101.58
2659.00,101.57
2658.00,101.56
2657.00,101.55
2656.00,101.55
2655.00,101.56
2654.00,101.57
2653.00,101.58
2652.00,101.59
2651.00,101.59
2650.00,101.59
2649.00,101.58
2648.00,101.57
2647.00,101.56
2646.00,101.56
2645.00,101.57
2644.00,101.57
2643.00,101.57
2642.00,101.57
2641.00,101.57
2640.00,101.57
2639.00,101.56
2638.00,101.56
2637.00,101.56
2636.00,101.57
2635.00,101.59
2634.00,101.60
2633.00,101.60
2632.00,101.59
2631.00,101.58
2630.00,101.57
2629.00,101.56
2628.00,101.56
2627.00,101.56
2626.00,101.56
2625.00,101.55
2624.00,101.54
2623.00,101.55
2622.00,101.56
2621.00,101.56
2620.00,101.57
2619.00,101.58
2618.00,101.59
2617.00,101.60
2616.00,101.59
2615.00,101.58
2614.00,101.57
2613.00,101.56
2612.00,101.56
2611.00,101.57
2610.00,101.59
2609.00,101.61
2608.00,101.63
2607.00,101.64
2606.00,101.64
2605.00,101.63
2604.00,101.61
2603.00,101.59
2602.00,101.58
2601.00,101.57
2600.00,101.58
2599.00,101.59
2598.00,101.61
2597.00,101.62
2596.00,101.63
2595.00,101.64
2594.00,101.63
2593.00,101.62
2592.00,101.60
2591.00,101.60
2590.00,101.62
2589.00,101.65
2588.00,101.67
2587.00,101.67
2586.00,101.65
2585.00,101.63
2584.00,101.62
2583.00,101.63
2582.00,101.65
2581.00,101.67
2580.00,101.68
2579.00,101.67
2578.00,101.67
2577.00,101.66
2576.00,101.65
2575.00,101.65
2574.00,101.65
2573.00,101.66
2572.00,101.67
2571.00,101.68
2570.00,101.69
2569.00,101.69
2568.00,101.70
2567.00,101.72
2566.00,101.72
2565.00,101.71
2564.00,101.69
2563.00,101.68
2562.00,101.68
2561.00,101.69
2560.00,101.70
2559.00,101.72
2558.00,101.74
2557.00,101.75
2556.00,101.75
2555.00,101.72
2554.00,101.68
2553.00,101.64
2552.00,101.62
2551.00,101.62
2550.00,101.63
2549.00,101.66
2548.00,101.68
2547.00,101.70
2546.00,101.72
2545.00,101.73
2544.00,101.75
2543.00,101.76
2542.00,101.76
2541.00,101.75
2540.00,101.74
2539.00,101.73
2538.00,101.74
2537.00,101.74
2536.00,101.74
2535.00,101.74
2534.00,101.73
2533.00,101.72
2532.00,101.71
2531.00,101.72
2530.00,101.73
2529.00,101.74
2528.00,101.73
2527.00,101.71
2526.00,101.70
2525.00,101.69
2524.00,101.69
2523.00,101.69
2522.00,101.70
2521.00,101.71
2520.00,101.73
2519.00,101.73
2518.00,101.72
2517.00,101.70
2516.00,101.68
2515.00,101.68
2514.00,101.69
2513.00,101.69
2512.00,101.69
2511.00,101.70
2510.00,101.70
2509.00,101.71
2508.00,101.71
2507.00,101.72
2506.00,101.73
2505.00,101.75
2504.00,101.76
2503.00,101.77
2502.00,101.78
2501.00,101.78
2500.00,101.79
2499.00,101.78
2498.00,101.78
2497.00,101.77
2496.00,101.77
2495.00,101.76
2494.00,101.74
2493.00,101.71
2492.00,101.69
2491.00,101.70
2490.00,101.72
2489.00,101.74
2488.00,101.74
2487.00,101.74
2486.00,101.73
2485.00,101.72
2484.00,101.72
2483.00,101.71
2482.00,101.70
2481.00,101.70
2480.00,101.71
2479.00,101.74
2478.00,101.76
2477.00,101.76
2476.00,101.74
2475.00,101.72
2474.00,101.71
2473.00,101.72
2472.00,101.73
2471.00,101.74
2470.00,101.75
2469.00,101.76
2468.00,101.76
2467.00,101.75
2466.00,101.75
2465.00,101.75
2464.00,101.76
2463.00,101.76
2462.00,101.77
2461.00,101.75
2460.00,101.74
2459.00,101.71
2458.00,101.69
2457.00,101.68
2456.00,101.68
2455.00,101.69
2454.00,101.70
2453.00,101.71
2452.00,101.72
2451.00,101.73
2450.00,101.73
2449.00,101.73
2448.00,101.73
2447.00,101.73
2446.00,101.75
2445.00,101.76
2444.00,101.76
2443.00,101.76
2442.00,101.75
2441.00,101.74
2440.00,101.75
2439.00,101.76
2438.00,101.79
2437.00,101.80
2436.00,101.80
2435.00,101.78
2434.00,101.77
2433.00,101.76
2432.00,101.76
2431.00,101.78
2430.00,101.79
2429.00,101.80
2428.00,101.79
2427.00,101.79
2426.00,101.80
2425.00,101.81
2424.00,101.81
2423.00,101.81
2422.00,101.81
2421.00,101.82
2420.00,101.82
2419.00,101.80
2418.00,101.78
2417.00,101.77
2416.00,101.77
2415.00,101.78
2414.00,101.78
2413.00,101.76
2412.00,101.74
2411.00,101.72
2410.00,101.72
2409.00,101.73
2408.00,101.76
2407.00,101.79
2406.00,101.79
2405.00,101.78
2404.00,101.76
2403.00,101.75
2402.00,101.75
2401.00,101.76
2400.00,101.78
2399.00,101.80
2398.00,101.82
2397.00,101.82
2396.00,101.82
2395.00,101.82
2394.00,101.83
2393.00,101.84
2392.00,101.85
2391.00,101.85
2390.00,101.84
2389.00,101.83
2388.00,101.82
2387.00,101.83
2386.00,101.83
2385.00,101.82
2384.00,101.81
2383.00,101.81
2382.00,101.82
2381.00,101.83
2380.00,101.84
2379.00,101.84
2378.00,101.85
2377.00,101.84
2376.00,101.82
2375.00,101.79
2374.00,101.78
2373.00,101.79
2372.00,101.81
2371.00,101.84
2370.00,101.88
2369.00,101.92
2368.00,101.93
2367.00,101.90
2366.00,101.81
2365.00,101.69
2364.00,101.58
2363.00,101.52
2362.00,101.56
2361.00,101.68
2360.00,101.81
2359.00,101.87
2358.00,101.85
2357.00,101.79
2356.00,101.75
2355.00,101.74
2354.00,101.76
2353.00,101.78
2352.00,101.78
2351.00,101.78
2350.00,101.79
2349.00,101.82
2348.00,101.86
2347.00,101.88
2346.00,101.86
2345.00,101.82
2344.00,101.76
2343.00,101.71
2342.00,101.68
2341.00,101.68
2340.00,101.70
2339.00,101.73
2338.00,101.74
2337.00,101.74
2336.00,101.73
2335.00,101.74
2334.00,101.74
2333.00,101.75
2332.00,101.75
2331.00,101.75
2330.00,101.73
2329.00,101.70
2328.00,101.66
2327.00,101.61
2326.00,101.56
2325.00,101.54
2324.00,101.55
2323.00,101.60
2322.00,101.65
2321.00,101.69
2320.00,101.70
2319.00,101.70
2318.00,101.70
2317.00,101.69
2316.00,101.67
2315.00,101.67
2314.00,101.67
2313.00,101.68
2312.00,101.70
2311.00,101.71
2310.00,101.71
2309.00,101.70
2308.00,101.68
2307.00,101.67
2306.00,101.66
2305.00,101.65
2304.00,101.64
2303.00,101.63
2302.00,101.62
2301.00,101.61
2300.00,101.60
2299.00,101.61
2298.00,101.62
2297.00,101.64
2296.00,101.66
2295.00,101.67
2294.00,101.67
2293.00,101.67
2292.00,101.67
2291.00,101.65
2290.00,101.63
2289.00,101.61
2288.00,101.59
2287.00,101.59
2286.00,101.59
2285.00,101.59
2284.00,101.60
2283.00,101.62
2282.00,101.66
2281.00,101.68
2280.00,101.68
2279.00,101.67
2278.00,101.66
2277.00,101.66
2276.00,101.67
2275.00,101.67
2274.00,101.68
2273.00,101.69
2272.00,101.71
2271.00,101.75
2270.00,101.77
2269.00,101.77
2268.00,101.74
2267.00,101.70
2266.00,101.66
2265.00,101.63
2264.00,101.60
2263.00,101.60
2262.00,101.60
2261.00,101.61
2260.00,101.60
2259.00,101.59
2258.00,101.60
2257.00,101.63
2256.00,101.68
2255.00,101.72
2254.00,101.75
2253.00,101.76
2252.00,101.75
2251.00,101.74
2250.00,101.73
2249.00,101.72
2248.00,101.72
2247.00,101.69
2246.00,101.66
2245.00,101.64
2244.00,101.63
2243.00,101.64
2242.00,101.64
2241.00,101.64
2240.00,101.64
2239.00,101.67
2238.00,101.72
2237.00,101.74
2236.00,101.74
2235.00,101.71
2234.00,101.70
2233.00,101.69
2232.00,101.71
2231.00,101.73
2230.00,101.75
2229.00,101.78
2228.00,101.79
2227.00,101.80
2226.00,101.80
2225.00,101.79
2224.00,101.77
2223.00,101.74
2222.00,101.70
2221.00,101.68
2220.00,101.68
2219.00,101.68
2218.00,101.69
2217.00,101.70
2216.00,101.70
2215.00,101.71
2214.00,101.70
2213.00,101.68
2212.00,101.65
2211.00,101.64
2210.00,101.65
2209.00,101.67
2208.00,101.70
2207.00,101.71
2206.00,101.72
2205.00,101.72
2204.00,101.71
2203.00,101.71
2202.00,101.70
2201.00,101.68
2200.00,101.65
2199.00,101.61
2198.00,101.59
2197.00,101.61
2196.00,101.63
2195.00,101.65
2194.00,101.63
2193.00,101.60
2192.00,101.58
2191.00,101.59
2190.00,101.63
2189.00,101.65
2188.00,101.66
2187.00,101.64
2186.00,101.60
2185.00,101.58
2184.00,101.57
2183.00,101.60
2182.00,101.67
2181.00,101.73
2180.00,101.75
2179.00,101.73
2178.00,101.69
2177.00,101.66
2176.00,101.68
2175.00,101.73
2174.00,101.79
2173.00,101.83
2172.00,101.83
2171.00,101.80
2170.00,101.75
2169.00,101.68
2168.00,101.58
2167.00,101.47
2166.00,101.39
2165.00,101.36
2164.00,101.40
2163.00,101.51
2162.00,101.62
2161.00,101.73
2160.00,101.81
2159.00,101.88
2158.00,101.92
2157.00,101.93
2156.00,101.90
2155.00,101.87
2154.00,101.84
2153.00,101.84
2152.00,101.88
2151.00,101.92
2150.00,101.93
2149.00,101.89
2148.00,101.83
2147.00,101.79
2146.00,101.76
2145.00,101.73
2144.00,101.70
2143.00,101.70
2142.00,101.73
2141.00,101.75
2140.00,101.77
2139.00,101.79
2138.00,101.81
2137.00,101.84
2136.00,101.88
2135.00,101.92
2134.00,101.91
2133.00,101.86
2132.00,101.81
2131.00,101.78
2130.00,101.79
2129.00,101.81
2128.00,101.83
2127.00,101.83
2126.00,101.82
2125.00,101.81
2124.00,101.78
2123.00,101.77
2122.00,101.75
2121.00,101.74
2120.00,101.74
2119.00,101.75
2118.00,101.77
2117.00,101.77
2116.00,101.75
2115.00,101.71
2114.00,101.66
2113.00,101.63
2112.00,101.60
2111.00,101.58
2110.00,101.58
2109.00,101.59
2108.00,101.61
2107.00,101.61
2106.00,101.62
2105.00,101.63
2104.00,101.65
2103.00,101.68
2102.00,101.70
2101.00,101.71
2100.00,101.71
2099.00,101.70
2098.00,101.69
2097.00,101.67
2096.00,101.66
2095.00,101.67
2094.00,101.69
2093.00,101.70
2092.00,101.70
2091.00,101.71
2090.00,101.70
2089.00,101.68
2088.00,101.67
2087.00,101.68
2086.00,101.69
2085.00,101.68
2084.00,101.64
2083.00,101.59
2082.00,101.56
2081.00,101.56
2080.00,101.59
2079.00,101.63
2078.00,101.65
2077.00,101.64
2076.00,101.61
2075.00,101.60
2074.00,101.62
2073.00,101.64
2072.00,101.66
2071.00,101.66
2070.00,101.67
2069.00,101.68
2068.00,101.70
2067.00,101.74
2066.00,101.76
2065.00,101.76
2064.00,101.73
2063.00,101.71
2062.00,101.71
2061.00,101.74
2060.00,101.78
2059.00,101.82
2058.00,101.84
2057.00,101.84
2056.00,101.80
2055.00,101.74
2054.00,101.68
2053.00,101.64
2052.00,101.62
2051.00,101.61
2050.00,101.61
2049.00,101.65
2048.00,101.68
2047.00,101.69
2046.00,101.66
2045.00,101.60
2044.00,101.54
2043.00,101.51
2042.00,101.51
2041.00,101.54
2040.00,101.59
2039.00,101.64
2038.00,101.69
2037.00,101.70
2036.00,101.67
2035.00,101.64
2034.00,101.62
2033.00,101.63
2032.00,101.67
2031.00,101.71
2030.00,101.74
2029.00,101.75
2028.00,101.76
2027.00,101.77
2026.00,101.78
2025.00,101.77
2024.00,101.76
2023.00,101.76
2022.00,101.76
2021.00,101.73
2020.00,101.69
2019.00,101.64
2018.00,101.62
2017.00,101.66
2016.00,101.73
2015.00,101.80
2014.00,101.84
2013.00,101.83
2012.00,101.79
2011.00,101.74
2010.00,101.72
2009.00,101.73
2008.00,101.79
2007.00,101.85
2006.00,101.85
2005.00,101.78
2004.00,101.71
2003.00,101.67
2002.00,101.66
2001.00,101.67
2000.00,101.68
1999.00,101.71
1998.00,101.73
1997.00,101.72
1996.00,101.72
1995.00,101.73
1994.00,101.75
1993.00,101.75
1992.00,101.74
1991.00,101.75
1990.00,101.78
1989.00,101.80
1988.00,101.80
1987.00,101.79
1986.00,101.80
1985.00,101.80
1984.00,101.78
1983.00,101.73
1982.00,101.65
1981.00,101.57
1980.00,101.50
1979.00,101.48
1978.00,101.51
1977.00,101.57
1976.00,101.63
1975.00,101.67
1974.00,101.68
1973.00,101.68
1972.00,101.69
1971.00,101.71
1970.00,101.74
1969.00,101.76
1968.00,101.77
1967.00,101.79
1966.00,101.80
1965.00,101.79
1964.00,101.76
1963.00,101.74
1962.00,101.76
1961.00,101.79
1960.00,101.80
1959.00,101.79
1958.00,101.77
1957.00,101.75
1956.00,101.71
1955.00,101.68
1954.00,101.65
1953.00,101.64
1952.00,101.64
1951.00,101.66
1950.00,101.70
1949.00,101.75
1948.00,101.79
1947.00,101.82
1946.00,101.84
1945.00,101.85
1944.00,101.85
1943.00,101.85
1942.00,101.85
1941.00,101.84
1940.00,101.84
1939.00,101.83
1938.00,101.82
1937.00,101.81
1936.00,101.80
1935.00,101.77
1934.00,101.74
1933.00,101.74
1932.00,101.76
1931.00,101.81
1930.00,101.85
1929.00,101.86
1928.00,101.83
1927.00,101.82
1926.00,101.83
1925.00,101.85
1924.00,101.87
1923.00,101.87
1922.00,101.86
1921.00,101.84
1920.00,101.81
1919.00,101.79
1918.00,101.79
1917.00,101.81
1916.00,101.84
1915.00,101.85
1914.00,101.84
1913.00,101.80
1912.00,101.77
1911.00,101.77
1910.00,101.78
1909.00,101.79
1908.00,101.79
1907.00,101.79
1906.00,101.79
1905.00,101.79
1904.00,101.79
1903.00,101.79
1902.00,101.80
1901.00,101.81
1900.00,101.81
1899.00,101.81
1898.00,101.81
1897.00,101.82
1896.00,101.85
1895.00,101.86
1894.00,101.87
1893.00,101.85
1892.00,101.83
1891.00,101.83
1890.00,101.83
1889.00,101.84
1888.00,101.84
1887.00,101.85
1886.00,101.85
1885.00,101.85
1884.00,101.84
1883.00,101.82
1882.00,101.80
1881.00,101.80
1880.00,101.80
1879.00,101.80
1878.00,101.80
1877.00,101.79
1876.00,101.78
1875.00,101.80
1874.00,101.83
1873.00,101.85
1872.00,101.86
1871.00,101.84
1870.00,101.80
1869.00,101.76
1868.00,101.75
1867.00,101.76
1866.00,101.78
1865.00,101.79
1864.00,101.80
1863.00,101.80
1862.00,101.82
1861.00,101.83
1860.00,101.85
1859.00,101.85
1858.00,101.84
1857.00,101.82
1856.00,101.81
1855.00,101.82
1854.00,101.84
1853.00,101.85
1852.00,101.87
1851.00,101.89
1850.00,101.92
1849.00,101.94
1848.00,101.94
1847.00,101.92
1846.00,101.91
1845.00,101.90
1844.00,101.89
1843.00,101.89
1842.00,101.89
1841.00,101.88
1840.00,101.87
1839.00,101.86
1838.00,101.87
1837.00,101.89
1836.00,101.91
1835.00,101.93
1834.00,101.94
1833.00,101.93
1832.00,101.92
1831.00,101.90
1830.00,101.88
1829.00,101.87
1828.00,101.87
1827.00,101.88
1826.00,101.89
1825.00,101.89
1824.00,101.88
1823.00,101.87
1822.00,101.87
1821.00,101.87
1820.00,101.88
1819.00,101.88
1818.00,101.88
1817.00,101.88
1816.00,101.87
1815.00,101.87
1814.00,101.86
1813.00,101.87
1812.00,101.88
1811.00,101.91
1810.00,101.93
1809.00,101.93
1808.00,101.91
1807.00,101.89
1806.00,101.87
1805.00,101.86
1804.00,101.86
1803.00,101.87
1802.00,101.88
1801.00,101.88
1800.00,101.87
1799.00,101.86
1798.00,101.85
1797.00,101.83
1796.00,101.81
1795.00,101.80
1794.00,101.81
1793.00,101.82
1792.00,101.82
1791.00,101.81
1790.00,101.81
1789.00,101.81
1788.00,101.83
1787.00,101.85
1786.00,101.86
1785.00,101.86
1784.00,101.86
1783.00,101.85
1782.00,101.84
1781.00,101.83
1780.00,101.81
1779.00,101.82
1778.00,101.84
1777.00,101.85
1776.00,101.83
1775.00,101.79
1774.00,101.75
1773.00,101.73
1772.00,101.73
1771.00,101.74
1770.00,101.76
1769.00,101.75
1768.00,101.73
1767.00,101.72
1766.00,101.72
1765.00,101.71
1764.00,101.71
1763.00,101.72
1762.00,101.73
1761.00,101.73
1760.00,101.73
1759.00,101.72
1758.00,101.70
1757.00,101.68
1756.00,101.66
1755.00,101.63
1754.00,101.61
1753.00,101.58
1752.00,101.56
1751.00,101.55
1750.00,101.55
1749.00,101.54
1748.00,101.54
1747.00,101.54
1746.00,101.53
1745.00,101.50
1744.00,101.46
1743.00,101.42
1742.00,101.39
1741.00,101.36
1740.00,101.34
1739.00,101.34
1738.00,101.32
1737.00,101.29
1736.00,101.24
1735.00,101.22
1734.00,101.21
1733.00,101.22
1732.00,101.22
1731.00,101.21
1730.00,101.19
1729.00,101.15
1728.00,101.11
1727.00,101.07
1726.00,101.04
1725.00,101.00
1724.00,100.94
1723.00,100.87
1722.00,100.79
1721.00,100.71
1720.00,100.64
1719.00,100.60
1718.00,100.60
1717.00,100.58
1716.00,100.52
1715.00,100.45
1714.00,100.38
1713.00,100.31
1712.00,100.24
1711.00,100.18
1710.00,100.10
1709.00,100.01
1708.00,99.89
1707.00,99.75
1706.00,99.59
1705.00,99.38
1704.00,99.13
1703.00,98.85
1702.00,98.54
1701.00,98.24
1700.00,97.99
1699.00,97.82
1698.00,97.67
1697.00,97.53
1696.00,97.44
1695.00,97.43
1694.00,97.44
1693.00,97.43
1692.00,97.39
1691.00,97.35
1690.00,97.29
1689.00,97.19
1688.00,97.06
1687.00,96.90
1686.00,96.74
1685.00,96.63
1684.00,96.56
1683.00,96.54
1682.00,96.49
1681.00,96.38
1680.00,96.24
1679.00,96.09
1678.00,95.92
1677.00,95.75
1676.00,95.59
1675.00,95.45
1674.00,95.34
1673.00,95.22
1672.00,95.07
1671.00,94.90
1670.00,94.73
1669.00,94.59
1668.00,94.45
1667.00,94.32
1666.00,94.17
1665.00,93.99
1664.00,93.80
1663.00,93.62
1662.00,93.47
1661.00,93.33
1660.00,93.19
1659.00,93.04
1658.00,92.89
1657.00,92.71
1656.00,92.47
1655.00,92.20
1654.00,91.98
1653.00,91.89
1652.00,91.87
1651.00,91.82
1650.00,91.67
1649.00,91.46
1648.00,91.23
1647.00,91.04
1646.00,90.93
1645.00,90.83
1644.00,90.68
1643.00,90.51
1642.00,90.32
1641.00,90.11
1640.00,89.88
1639.00,89.64
1638.00,89.38
1637.00,89.13
1636.00,88.92
1635.00,88.79
1634.00,88.68
1633.00,88.53
1632.00,88.33
1631.00,88.11
1630.00,87.92
1629.00,87.75
1628.00,87.61
1627.00,87.48
1626.00,87.36
1625.00,87.25
1624.00,87.18
1623.00,87.18
1622.00,87.21
1621.00,87.20
1620.00,87.13
1619.00,87.07
1618.00,87.11
1617.00,87.33
1616.00,87.65
1615.00,87.93
1614.00,88.12
1613.00,88.27
1612.00,88.42
1611.00,88.62
1610.00,88.87
1609.00,89.16
1608.00,89.48
1607.00,89.79
1606.00,90.09
1605.00,90.37
1604.00,90.63
1603.00,90.90
1602.00,91.16
1601.00,91.42
1600.00,91.67
1599.00,91.90
1598.00,92.11
1597.00,92.30
1596.00,92.50
1595.00,92.70
1594.00,92.88
1593.00,93.06
1592.00,93.22
1591.00,93.38
1590.00,93.54
1589.00,93.69
1588.00,93.84
1587.00,93.95
1586.00,94.04
1585.00,94.12
1584.00,94.19
1583.00,94.26
1582.00,94.32
1581.00,94.36
1580.00,94.38
1579.00,94.37
1578.00,94.34
1577.00,94.35
1576.00,94.41
1575.00,94.46
1574.00,94.45
1573.00,94.37
1572.00,94.27
1571.00,94.18
1570.00,94.11
1569.00,94.05
1568.00,93.99
1567.00,93.88
1566.00,93.75
1565.00,93.59
1564.00,93.44
1563.00,93.26
1562.00,93.04
1561.00,92.81
1560.00,92.65
1559.00,92.58
1558.00,92.58
1557.00,92.53
1556.00,92.44
1555.00,92.32
1554.00,92.21
1553.00,92.11
1552.00,92.01
1551.00,91.89
1550.00,91.76
1549.00,91.62
1548.00,91.49
1547.00,91.37
1546.00,91.22
1545.00,91.08
1544.00,90.93
1543.00,90.79
1542.00,90.63
1541.00,90.49
1540.00,90.41
1539.00,90.39
1538.00,90.35
1537.00,90.26
1536.00,90.10
1535.00,89.93
1534.00,89.79
1533.00,89.68
1532.00,89.60
1531.00,89.50
1530.00,89.38
1529.00,89.26
1528.00,89.14
1527.00,89.02
1526.00,88.91
1525.00,88.79
1524.00,88.68
1523.00,88.55
1522.00,88.44
1521.00,88.34
1520.00,88.25
1519.00,88.16
1518.00,88.04
1517.00,87.92
1516.00,87.83
1515.00,87.74
1514.00,87.67
1513.00,87.63
1512.00,87.66
1511.00,87.72
1510.00,87.73
1509.00,87.72
1508.00,87.75
1507.00,87.92
1506.00,88.21
1505.00,88.47
1504.00,88.64
1503.00,88.74
1502.00,88.83
1501.00,88.93
1500.00,89.06
1499.00,89.22
1498.00,89.43
1497.00,89.68
1496.00,89.96
1495.00,90.21
1494.00,90.39
1493.00,90.53
1492.00,90.70
1491.00,90.92
1490.00,91.20
1489.00,91.47
1488.00,91.69
1487.00,91.88
1486.00,92.05
1485.00,92.20
1484.00,92.35
1483.00,92.50
1482.00,92.65
1481.00,92.81
1480.00,92.95
1479.00,93.07
1478.00,93.20
1477.00,93.31
1476.00,93.41
1475.00,93.46
1474.00,93.51
1473.00,93.56
1472.00,93.64
1471.00,93.72
1470.00,93.78
1469.00,93.82
1468.00,93.82
1467.00,93.82
1466.00,93.81
1465.00,93.81
1464.00,93.80
1463.00,93.79
1462.00,93.73
1461.00,93.64
1460.00,93.51
1459.00,93.36
1458.00,93.22
1457.00,93.12
1456.00,93.07
1455.00,93.03
1454.00,92.95
1453.00,92.84
1452.00,92.72
1451.00,92.59
1450.00,92.46
1449.00,92.33
1448.00,92.22
1447.00,92.15
1446.00,92.11
1445.00,92.09
1444.00,92.09
1443.00,92.13
1442.00,92.19
1441.00,92.27
1440.00,92.34
1439.00,92.42
1438.00,92.53
1437.00,92.72
1436.00,92.93
1435.00,93.10
1434.00,93.21
1433.00,93.29
1432.00,93.38
1431.00,93.49
1430.00,93.60
1429.00,93.69
1428.00,93.76
1427.00,93.82
1426.00,93.86
1425.00,93.90
1424.00,93.93
1423.00,93.94
1422.00,93.92
1421.00,93.92
1420.00,93.94
1419.00,93.99
1418.00,94.01
1417.00,94.00
1416.00,93.97
1415.00,93.94
1414.00,93.92
1413.00,93.89
1412.00,93.86
1411.00,93.83
1410.00,93.79
1409.00,93.76
1408.00,93.72
1407.00,93.69
1406.00,93.66
1405.00,93.63
1404.00,93.63
1403.00,93.63
1402.00,93.64
1401.00,93.64
1400.00,93.66
1399.00,93.68
1398.00,93.69
1397.00,93.69
1396.00,93.69
1395.00,93.70
1394.00,93.73
1393.00,93.76
1392.00,93.77
1391.00,93.76
1390.00,93.75
1389.00,93.73
1388.00,93.73
1387.00,93.75
1386.00,93.77
1385.00,93.80
1384.00,93.82
1383.00,93.84
1382.00,93.86
1381.00,93.88
1380.00,93.88
1379.00,93.87
1378.00,93.87
1377.00,93.85
1376.00,93.82
1375.00,93.76
1374.00,93.69
1373.00,93.63
1372.00,93.59
1371.00,93.58
1370.00,93.60
1369.00,93.64
1368.00,93.71
1367.00,93.80
1366.00,93.88
1365.00,93.97
1364.00,94.07
1363.00,94.16
1362.00,94.25
1361.00,94.32
1360.00,94.39
1359.00,94.45
1358.00,94.51
1357.00,94.58
1356.00,94.65
1355.00,94.71
1354.00,94.77
1353.00,94.82
1352.00,94.85
1351.00,94.88
1350.00,94.91
1349.00,94.93
1348.00,94.94
1347.00,94.93
1346.00,94.92
1345.00,94.90
1344.00,94.88
1343.00,94.87
1342.00,94.86
1341.00,94.87
1340.00,94.87
1339.00,94.86
1338.00,94.82
1337.00,94.77
1336.00,94.70
1335.00,94.64
1334.00,94.60
1333.00,94.57
1332.00,94.56
1331.00,94.54
1330.00,94.53
1329.00,94.52
1328.00,94.52
1327.00,94.52
1326.00,94.51
1325.00,94.50
1324.00,94.48
1323.00,94.44
1322.00,94.39
1321.00,94.35
1320.00,94.31
1319.00,94.28
1318.00,94.26
1317.00,94.22
1316.00,94.19
1315.00,94.17
1314.00,94.18
1313.00,94.23
1312.00,94.31
1311.00,94.39
1310.00,94.48
1309.00,94.56
1308.00,94.64
1307.00,94.71
1306.00,94.79
1305.00,94.85
1304.00,94.91
1303.00,94.98
1302.00,95.04
1301.00,95.11
1300.00,95.16
1299.00,95.19
1298.00,95.21
1297.00,95.23
1296.00,95.25
1295.00,95.27
1294.00,95.28
1293.00,95.30
1292.00,95.32
1291.00,95.33
1290.00,95.33
1289.00,95.34
1288.00,95.35
1287.00,95.37
1286.00,95.38
1285.00,95.38
1284.00,95.38
1283.00,95.37
1282.00,95.35
1281.00,95.33
1280.00,95.30
1279.00,95.26
1278.00,95.22
1277.00,95.18
1276.00,95.15
1275.00,95.12
1274.00,95.08
1273.00,95.03
1272.00,94.97
1271.00,94.90
1270.00,94.84
1269.00,94.79
1268.00,94.74
1267.00,94.69
1266.00,94.62
1265.00,94.55
1264.00,94.49
1263.00,94.44
1262.00,94.40
1261.00,94.37
1260.00,94.34
1259.00,94.30
1258.00,94.26
1257.00,94.23
1256.00,94.19
1255.00,94.14
1254.00,94.06
1253.00,93.98
1252.00,93.89
1251.00,93.82
1250.00,93.75
1249.00,93.67
1248.00,93.58
1247.00,93.49
1246.00,93.38
1245.00,93.28
1244.00,93.17
1243.00,93.08
1242.00,92.99
1241.00,92.90
1240.00,92.82
1239.00,92.76
1238.00,92.72
1237.00,92.69
1236.00,92.67
1235.00,92.65
1234.00,92.61
1233.00,92.57
1232.00,92.53
1231.00,92.49
1230.00,92.46
1229.00,92.44
1228.00,92.43
1227.00,92.41
1226.00,92.39
1225.00,92.36
1224.00,92.34
1223.00,92.32
1222.00,92.31
1221.00,92.30
1220.00,92.30
1219.00,92.31
1218.00,92.35
1217.00,92.39
1216.00,92.44
1215.00,92.50
1214.00,92.60
1213.00,92.74
1212.00,92.90
1211.00,93.05
1210.00,93.19
1209.00,93.32
1208.00,93.46
1207.00,93.61
1206.00,93.75
1205.00,93.87
1204.00,93.98
1203.00,94.08
1202.00,94.18
1201.00,94.28
1200.00,94.36
1199.00,94.44
1198.00,94.51
1197.00,94.58
1196.00,94.65
1195.00,94.71
1194.00,94.75
1193.00,94.79
1192.00,94.81
1191.00,94.83
1190.00,94.86
1189.00,94.89
1188.00,94.92
1187.00,94.95
1186.00,94.97
1185.00,94.97
1184.00,94.96
1183.00,94.94
1182.00,94.90
1181.00,94.83
1180.00,94.74
1179.00,94.63
1178.00,94.52
1177.00,94.40
1176.00,94.28
1175.00,94.16
1174.00,94.05
1173.00,93.95
1172.00,93.86
1171.00,93.77
1170.00,93.70
1169.00,93.64
1168.00,93.60
1167.00,93.58
1166.00,93.58
1165.00,93.60
1164.00,93.63
1163.00,93.66
1162.00,93.68
1161.00,93.72
1160.00,93.78
1159.00,93.85
1158.00,93.93
1157.00,94.01
1156.00,94.10
1155.00,94.21
1154.00,94.32
1153.00,94.44
1152.00,94.55
1151.00,94.66
1150.00,94.78
1149.00,94.88
1148.00,94.97
1147.00,95.05
1146.00,95.12
1145.00,95.18
1144.00,95.23
1143.00,95.29
1142.00,95.35
1141.00,95.40
1140.00,95.44
1139.00,95.48
1138.00,95.53
1137.00,95.57
1136.00,95.58
1135.00,95.59
1134.00,95.61
1133.00,95.63
1132.00,95.66
1131.00,95.68
1130.00,95.71
1129.00,95.73
1128.00,95.75
1127.00,95.76
1126.00,95.75
1125.00,95.74
1124.00,95.75
1123.00,95.77
1122.00,95.80
1121.00,95.82
1120.00,95.82
1119.00,95.81
1118.00,95.78
1117.00,95.77
1116.00,95.79
1115.00,95.81
1114.00,95.84
1113.00,95.86
1112.00,95.86
1111.00,95.85
1110.00,95.81
1109.00,95.77
1108.00,95.76
1107.00,95.79
1106.00,95.84
1105.00,95.88
1104.00,95.90
1103.00,95.91
1102.00,95.91
1101.00,95.92
1100.00,95.92
1099.00,95.91
1098.00,95.89
1097.00,95.86
1096.00,95.82
1095.00,95.78
1094.00,95.74
1093.00,95.71
1092.00,95.70
1091.00,95.70
1090.00,95.70
1089.00,95.67
1088.00,95.61
1087.00,95.51
1086.00,95.42
1085.00,95.33
1084.00,95.25
1083.00,95.18
1082.00,95.13
1081.00,95.08
1080.00,95.05
1079.00,95.03
1078.00,95.02
1077.00,94.99
1076.00,94.94
1075.00,94.89
1074.00,94.84
1073.00,94.81
1072.00,94.76
1071.00,94.71
1070.00,94.68
1069.00,94.66
1068.00,94.66
1067.00,94.64
1066.00,94.62
1065.00,94.60
1064.00,94.59
1063.00,94.58
1062.00,94.55
1061.00,94.50
1060.00,94.44
1059.00,94.38
1058.00,94.31
1057.00,94.24
1056.00,94.18
1055.00,94.12
1054.00,94.06
1053.00,94.01
1052.00,93.98
1051.00,93.96
1050.00,93.97
1049.00,94.00
1048.00,94.06
1047.00,94.14
1046.00,94.23
1045.00,94.33
1044.00,94.41
1043.00,94.46
1042.00,94.50
1041.00,94.55
1040.00,94.61
1039.00,94.67
1038.00,94.71
1037.00,94.70
1036.00,94.67
1035.00,94.63
1034.00,94.60
1033.00,94.60
1032.00,94.63
1031.00,94.67
1030.00,94.72
1029.00,94.77
1028.00,94.83
1027.00,94.91
1026.00,94.99
1025.00,95.06
1024.00,95.14
1023.00,95.21
1022.00,95.29
1021.00,95.34
1020.00,95.38
1019.00,95.42
1018.00,95.47
1017.00,95.53
1016.00,95.59
1015.00,95.63
1014.00,95.66
1013.00,95.67
1012.00,95.67
1011.00,95.68
1010.00,95.69
1009.00,95.71
1008.00,95.74
1007.00,95.79
1006.00,95.84
1005.00,95.92
1004.00,95.99
1003.00,96.06
1002.00,96.12
1001.00,96.17
1000.00,96.22
999.00,96.27
998.00,96.33
997.00,96.40
996.00,96.48
995.00,96.54
994.00,96.58
993.00,96.61
992.00,96.64
991.00,96.68
990.00,96.74
989.00,96.81
988.00,96.88
987.00,96.93
986.00,96.95
985.00,96.95
984.00,96.94
983.00,96.95
982.00,96.96
981.00,96.98
980.00,96.99
979.00,96.97
978.00,96.94
977.00,96.90
976.00,96.87
975.00,96.82
974.00,96.73
973.00,96.59
972.00,96.40
971.00,96.18
970.00,95.92
969.00,95.65
968.00,95.39
967.00,95.17
966.00,95.02
965.00,94.94
964.00,94.92
963.00,94.97
962.00,95.06
961.00,95.19
960.00,95.35
959.00,95.53
958.00,95.71
957.00,95.88
956.00,96.04
955.00,96.19
954.00,96.32
953.00,96.42
952.00,96.50
951.00,96.57
950.00,96.63
949.00,96.68
948.00,96.72
947.00,96.78
946.00,96.83
945.00,96.88
944.00,96.91
943.00,96.92
942.00,96.92
941.00,96.94
940.00,96.96
939.00,96.98
938.00,97.02
937.00,97.04
936.00,97.05
935.00,97.04
934.00,97.01
933.00,96.98
932.00,96.95
931.00,96.91
930.00,96.87
929.00,96.85
928.00,96.84
927.00,96.85
926.00,96.86
925.00,96.89
924.00,96.92
923.00,96.93
922.00,96.94
921.00,96.96
920.00,97.02
919.00,97.10
918.00,97.18
917.00,97.23
916.00,97.26
915.00,97.27
914.00,97.29
913.00,97.33
912.00,97.38
911.00,97.43
910.00,97.46
909.00,97.47
908.00,97.45
907.00,97.42
906.00,97.39
905.00,97.37
904.00,97.34
903.00,97.31
902.00,97.28
901.00,97.26
900.00,97.28
899.00,97.33
898.00,97.37
897.00,97.42
896.00,97.45
895.00,97.48
894.00,97.49
893.00,97.47
892.00,97.44
891.00,97.43
890.00,97.44
889.00,97.47
888.00,97.49
887.00,97.49
886.00,97.49
885.00,97.51
884.00,97.55
883.00,97.58
882.00,97.62
881.00,97.64
880.00,97.64
879.00,97.61
878.00,97.57
877.00,97.57
876.00,97.63
875.00,97.72
874.00,97.80
873.00,97.83
872.00,97.84
871.00,97.84
870.00,97.86
869.00,97.86
868.00,97.86
867.00,97.85
866.00,97.86
865.00,97.86
864.00,97.85
863.00,97.82
862.00,97.79
861.00,97.77
860.00,97.76
859.00,97.76
858.00,97.75
857.00,97.71
856.00,97.65
855.00,97.59
854.00,97.54
853.00,97.52
852.00,97.54
851.00,97.58
850.00,97.60
849.00,97.60
848.00,97.59
847.00,97.58
846.00,97.57
845.00,97.56
844.00,97.54
843.00,97.51
842.00,97.46
841.00,97.38
840.00,97.30
839.00,97.24
838.00,97.19
837.00,97.16
836.00,97.13
835.00,97.10
834.00,97.06
833.00,97.02
832.00,96.97
831.00,96.95
830.00,96.96
829.00,96.99
828.00,97.02
827.00,97.02
826.00,97.00
825.00,96.95
824.00,96.92
823.00,96.91
822.00,96.90
821.00,96.89
820.00,96.88
819.00,96.87
818.00,96.86
817.00,96.84
816.00,96.84
815.00,96.86
814.00,96.89
813.00,96.92
812.00,96.94
811.00,96.92
810.00,96.89
809.00,96.84
808.00,96.81
807.00,96.78
806.00,96.76
805.00,96.73
804.00,96.70
803.00,96.69
802.00,96.69
801.00,96.68
800.00,96.67
799.00,96.65
798.00,96.64
797.00,96.62
796.00,96.60
795.00,96.59
794.00,96.58
793.00,96.56
792.00,96.53
791.00,96.49
790.00,96.43
789.00,96.35
788.00,96.26
787.00,96.14
786.00,95.99
785.00,95.82
784.00,95.63
783.00,95.45
782.00,95.29
781.00,95.14
780.00,95.04
779.00,94.99
778.00,95.00
777.00,95.06
776.00,95.12
775.00,95.17
774.00,95.21
773.00,95.25
772.00,95.26
771.00,95.25
770.00,95.22
769.00,95.19
768.00,95.18
767.00,95.16
766.00,95.14
765.00,95.10
764.00,95.07
763.00,95.08
762.00,95.09
761.00,95.09
760.00,95.06
759.00,95.02
758.00,95.03
757.00,95.07
756.00,95.08
755.00,95.06
754.00,95.00
753.00,94.94
752.00,94.89
751.00,94.86
750.00,94.83
749.00,94.80
748.00,94.79
747.00,94.79
746.00,94.77
745.00,94.72
744.00,94.63
743.00,94.53
742.00,94.45
741.00,94.42
740.00,94.43
739.00,94.44
738.00,94.42
737.00,94.36
736.00,94.27
735.00,94.17
734.00,94.10
733.00,94.06
732.00,94.04
731.00,94.01
730.00,93.95
729.00,93.84
728.00,93.73
727.00,93.63
726.00,93.53
725.00,93.42
724.00,93.27
723.00,93.12
722.00,92.97
721.00,92.84
720.00,92.72
719.00,92.59
718.00,92.44
717.00,92.24
716.00,92.02
715.00,91.81
714.00,91.62
713.00,91.43
712.00,91.23
711.00,91.03
710.00,90.84
709.00,90.68
708.00,90.56
707.00,90.46
706.00,90.39
705.00,90.28
704.00,90.13
703.00,89.96
702.00,89.81
701.00,89.67
700.00,89.56
699.00,89.47
698.00,89.42
697.00,89.41
696.00,89.39
695.00,89.35
694.00,89.31
693.00,89.25
692.00,89.18
691.00,89.09
690.00,89.00
689.00,88.91
688.00,88.85
687.00,88.84
686.00,88.84
685.00,88.85
684.00,88.87
683.00,88.91
682.00,88.97
681.00,89.00
680.00,88.98
679.00,88.94
678.00,88.90
677.00,88.87
676.00,88.85
675.00,88.85
674.00,88.88
673.00,88.89
672.00,88.87
671.00,88.83
670.00,88.83
669.00,88.90
668.00,88.99
667.00,89.01
666.00,88.95
665.00,88.87
664.00,88.79
663.00,88.74
662.00,88.73
661.00,88.76
660.00,88.80
659.00,88.81
658.00,88.80
657.00,88.77
656.00,88.76
655.00,88.76
654.00,88.74
653.00,88.70
652.00,88.63
651.00,88.59
650.00,88.62
649.00,88.69
648.00,88.77
647.00,88.85
646.00,88.92
645.00,88.94
644.00,88.88
643.00,88.79
642.00,88.75
641.00,88.77
640.00,88.79
639.00,88.75
638.00,88.66
637.00,88.51
636.00,88.31
635.00,88.11
634.00,88.02
633.00,88.04
632.00,88.08
631.00,88.04
630.00,87.92
629.00,87.82
628.00,87.77
627.00,87.75
626.00,87.69
625.00,87.55
624.00,87.35
623.00,87.12
622.00,86.95
621.00,86.90
620.00,86.98
619.00,87.08
618.00,87.10
617.00,87.05
616.00,87.10
615.00,87.33
614.00,87.65
613.00,87.90
612.00,88.06
611.00,88.17
610.00,88.14
609.00,87.84
608.00,87.28
607.00,86.75
606.00,86.54
605.00,86.66
604.00,86.83
603.00,86.74
602.00,86.38
601.00,86.07
600.00,86.10
599.00,86.45
598.00,86.80
597.00,86.94
596.00,86.96
595.00,87.02
594.00,87.08
593.00,86.97
592.00,86.85
591.00,87.05
590.00,87.64
589.00,88.29
588.00,88.69
587.00,88.76
586.00,88.57
585.00,88.20
584.00,87.77
583.00,87.52
582.00,87.61
581.00,87.93
580.00,88.39
579.00,88.94
578.00,89.35
577.00,89.27
576.00,88.62
575.00,87.79
574.00,87.22
573.00,86.82
572.00,86.36
571.00,85.96
570.00,85.97
569.00,86.41
568.00,86.94
567.00,87.29
566.00,87.36
565.00,87.25
564.00,87.10
563.00,87.05
562.00,86.95
561.00,86.56
560.00,85.88
559.00,85.33
558.00,85.33
557.00,85.76
556.00,86.26
555.00,86.66
554.00,86.99
553.00,87.23
552.00,87.38
551.00,87.50
550.00,87.59
