Created as New Dataset,
cm-1,%T
4000.00,100.43
3999.00,100.43
3998.00,100.44
3997.00,100.44
3996.00,100.45
3995.00,100.45
3994.00,100.45
3993.00,100.44
3992.00,100.43
3991.00,100.42
3990.00,100.41
3989.00,100.41
3988.00,100.41
3987.00,100.42
3986.00,100.41
3985.00,100.41
3984.00,100.40
3983.00,100.40
3982.00,100.41
3981.00,100.42
3980.00,100.43
3979.00,100.42
3978.00,100.41
3977.00,100.40
3976.00,100.40
3975.00,100.40
3974.00,100.41
3973.00,100.41
3972.00,100.40
3971.00,100.39
3970.00,100.38
3969.00,100.39
3968.00,100.41
3967.00,100.43
3966.00,100.45
3965.00,100.46
3964.00,100.46
3963.00,100.46
3962.00,100.46
3961.00,100.46
3960.00,100.46
3959.00,100.47
3958.00,100.48
3957.00,100.48
3956.00,100.47
3955.00,100.47
3954.00,100.45
3953.00,100.45
3952.00,100.45
3951.00,100.45
3950.00,100.45
3949.00,100.44
3948.00,100.43
3947.00,100.43
3946.00,100.43
3945.00,100.43
3944.00,100.43
3943.00,100.43
3942.00,100.43
3941.00,100.44
3940.00,100.44
3939.00,100.44
3938.00,100.43
3937.00,100.42
3936.00,100.42
3935.00,100.42
3934.00,100.43
3933.00,100.44
3932.00,100.46
3931.00,100.48
3930.00,100.48
3929.00,100.47
3928.00,100.45
3927.00,100.43
3926.00,100.41
3925.00,100.40
3924.00,100.41
3923.00,100.42
3922.00,100.43
3921.00,100.44
3920.00,100.45
3919.00,100.45
3918.00,100.45
3917.00,100.43
3916.00,100.42
3915.00,100.41
3914.00,100.41
3913.00,100.41
3912.00,100.42
3911.00,100.42
3910.00,100.42
3909.00,100.42
3908.00,100.43
3907.00,100.43
3906.00,100.44
3905.00,100.45
3904.00,100.47
3903.00,100.49
3902.00,100.50
3901.00,100.51
3900.00,100.51
3899.00,100.51
3898.00,100.52
3897.00,100.52
3896.00,100.52
3895.00,100.52
3894.00,100.52
3893.00,100.51
3892.00,100.50
3891.00,100.49
3890.00,100.50
3889.00,100.51
3888.00,100.50
3887.00,100.48
3886.00,100.46
3885.00,100.46
3884.00,100.48
3883.00,100.48
3882.00,100.46
3881.00,100.45
3880.00,100.45
3879.00,100.46
3878.00,100.47
3877.00,100.47
3876.00,100.45
3875.00,100.46
3874.00,100.49
3873.00,100.53
3872.00,100.55
3871.00,100.52
3870.00,100.48
3869.00,100.47
3868.00,100.49
3867.00,100.49
3866.00,100.49
3865.00,100.49
3864.00,100.49
3863.00,100.50
3862.00,100.50
3861.00,100.50
3860.00,100.50
3859.00,100.52
3858.00,100.55
3857.00,100.58
3856.00,100.60
3855.00,100.57
3854.00,100.53
3853.00,100.51
3852.00,100.54
3851.00,100.54
3850.00,100.49
3849.00,100.43
3848.00,100.40
3847.00,100.41
3846.00,100.43
3845.00,100.47
3844.00,100.51
3843.00,100.54
3842.00,100.56
3841.00,100.55
3840.00,100.52
3839.00,100.48
3838.00,100.45
3837.00,100.45
3836.00,100.48
3835.00,100.50
3834.00,100.51
3833.00,100.50
3832.00,100.50
3831.00,100.49
3830.00,100.48
3829.00,100.47
3828.00,100.46
3827.00,100.45
3826.00,100.45
3825.00,100.47
3824.00,100.49
3823.00,100.49
3822.00,100.49
3821.00,100.51
3820.00,100.54
3819.00,100.56
3818.00,100.54
3817.00,100.48
3816.00,100.43
3815.00,100.41
3814.00,100.41
3813.00,100.40
3812.00,100.38
3811.00,100.39
3810.00,100.42
3809.00,100.45
3808.00,100.46
3807.00,100.47
3806.00,100.48
3805.00,100.50
3804.00,100.49
3803.00,100.46
3802.00,100.43
3801.00,100.43
3800.00,100.45
3799.00,100.44
3798.00,100.40
3797.00,100.36
3796.00,100.34
3795.00,100.35
3794.00,100.37
3793.00,100.37
3792.00,100.36
3791.00,100.37
3790.00,100.38
3789.00,100.39
3788.00,100.40
3787.00,100.40
3786.00,100.40
3785.00,100.39
3784.00,100.39
3783.00,100.40
3782.00,100.41
3781.00,100.41
3780.00,100.40
3779.00,100.40
3778.00,100.40
3777.00,100.39
3776.00,100.38
3775.00,100.37
3774.00,100.38
3773.00,100.39
3772.00,100.39
3771.00,100.37
3770.00,100.36
3769.00,100.37
3768.00,100.37
3767.00,100.37
3766.00,100.35
3765.00,100.34
3764.00,100.35
3763.00,100.37
3762.00,100.38
3761.00,100.39
3760.00,100.39
3759.00,100.40
3758.00,100.40
3757.00,100.39
3756.00,100.39
3755.00,100.40
3754.00,100.40
3753.00,100.38
3752.00,100.36
3751.00,100.34
3750.00,100.36
3749.00,100.40
3748.00,100.46
3747.00,100.48
3746.00,100.48
3745.00,100.45
3744.00,100.43
3743.00,100.44
3742.00,100.43
3741.00,100.37
3740.00,100.33
3739.00,100.35
3738.00,100.41
3737.00,100.47
3736.00,100.50
3735.00,100.49
3734.00,100.46
3733.00,100.43
3732.00,100.42
3731.00,100.42
3730.00,100.43
3729.00,100.41
3728.00,100.39
3727.00,100.37
3726.00,100.36
3725.00,100.36
3724.00,100.33
3723.00,100.30
3722.00,100.27
3721.00,100.26
3720.00,100.27
3719.00,100.28
3718.00,100.29
3717.00,100.29
3716.00,100.30
3715.00,100.30
3714.00,100.31
3713.00,100.30
3712.00,100.29
3711.00,100.27
3710.00,100.27
3709.00,100.27
3708.00,100.28
3707.00,100.29
3706.00,100.30
3705.00,100.31
3704.00,100.32
3703.00,100.34
3702.00,100.35
3701.00,100.34
3700.00,100.32
3699.00,100.29
3698.00,100.25
3697.00,100.22
3696.00,100.21
3695.00,100.22
3694.00,100.25
3693.00,100.28
3692.00,100.31
3691.00,100.32
3690.00,100.30
3689.00,100.26
3688.00,100.24
3687.00,100.24
3686.00,100.24
3685.00,100.23
3684.00,100.22
3683.00,100.21
3682.00,100.21
3681.00,100.22
3680.00,100.24
3679.00,100.27
3678.00,100.32
3677.00,100.36
3676.00,100.38
3675.00,100.41
3674.00,100.43
3673.00,100.41
3672.00,100.35
3671.00,100.27
3670.00,100.22
3669.00,100.21
3668.00,100.20
3667.00,100.18
3666.00,100.15
3665.00,100.13
3664.00,100.13
3663.00,100.14
3662.00,100.15
3661.00,100.15
3660.00,100.13
3659.00,100.11
3658.00,100.09
3657.00,100.07
3656.00,100.07
3655.00,100.09
3654.00,100.10
3653.00,100.10
3652.00,100.10
3651.00,100.09
3650.00,100.08
3649.00,100.07
3648.00,100.06
3647.00,100.06
3646.00,100.05
3645.00,100.03
3644.00,100.01
3643.00,99.99
3642.00,99.97
3641.00,99.96
3640.00,99.95
3639.00,99.94
3638.00,99.93
3637.00,99.92
3636.00,99.91
3635.00,99.90
3634.00,99.90
3633.00,99.92
3632.00,99.94
3631.00,99.95
3630.00,99.95
3629.00,99.94
3628.00,99.95
3627.00,99.97
3626.00,99.95
3625.00,99.91
3624.00,99.87
3623.00,99.86
3622.00,99.85
3621.00,99.83
3620.00,99.80
3619.00,99.78
3618.00,99.77
3617.00,99.78
3616.00,99.78
3615.00,99.77
3614.00,99.76
3613.00,99.75
3612.00,99.74
3611.00,99.73
3610.00,99.72
3609.00,99.72
3608.00,99.72
3607.00,99.72
3606.00,99.70
3605.00,99.69
3604.00,99.69
3603.00,99.69
3602.00,99.68
3601.00,99.66
3600.00,99.63
3599.00,99.61
3598.00,99.62
3597.00,99.64
3596.00,99.64
3595.00,99.63
3594.00,99.60
3593.00,99.57
3592.00,99.56
3591.00,99.56
3590.00,99.56
3589.00,99.57
3588.00,99.56
3587.00,99.54
3586.00,99.52
3585.00,99.51
3584.00,99.51
3583.00,99.50
3582.00,99.49
3581.00,99.47
3580.00,99.44
3579.00,99.43
3578.00,99.42
3577.00,99.41
3576.00,99.38
3575.00,99.36
3574.00,99.35
3573.00,99.35
3572.00,99.36
3571.00,99.37
3570.00,99.37
3569.00,99.37
3568.00,99.36
3567.00,99.35
3566.00,99.34
3565.00,99.33
3564.00,99.32
3563.00,99.30
3562.00,99.27
3561.00,99.23
3560.00,99.19
3559.00,99.16
3558.00,99.15
3557.00,99.13
3556.00,99.12
3555.00,99.11
3554.00,99.10
3553.00,99.10
3552.00,99.10
3551.00,99.11
3550.00,99.10
3549.00,99.06
3548.00,99.01
3547.00,98.96
3546.00,98.93
3545.00,98.92
3544.00,98.94
3543.00,98.97
3542.00,98.98
3541.00,98.98
3540.00,98.96
3539.00,98.94
3538.00,98.91
3537.00,98.90
3536.00,98.89
3535.00,98.89
3534.00,98.89
3533.00,98.89
3532.00,98.89
3531.00,98.90
3530.00,98.90
3529.00,98.91
3528.00,98.89
3527.00,98.86
3526.00,98.83
3525.00,98.81
3524.00,98.81
3523.00,98.80
3522.00,98.79
3521.00,98.78
3520.00,98.75
3519.00,98.72
3518.00,98.70
3517.00,98.69
3516.00,98.69
3515.00,98.70
3514.00,98.71
3513.00,98.71
3512.00,98.72
3511.00,98.72
3510.00,98.72
3509.00,98.70
3508.00,98.68
3507.00,98.66
3506.00,98.66
3505.00,98.68
3504.00,98.70
3503.00,98.70
3502.00,98.67
3501.00,98.63
3500.00,98.58
3499.00,98.54
3498.00,98.52
3497.00,98.52
3496.00,98.54
3495.00,98.56
3494.00,98.57
3493.00,98.57
3492.00,98.54
3491.00,98.51
3490.00,98.49
3489.00,98.48
3488.00,98.49
3487.00,98.51
3486.00,98.52
3485.00,98.52
3484.00,98.50
3483.00,98.48
3482.00,98.46
3481.00,98.46
3480.00,98.46
3479.00,98.45
3478.00,98.44
3477.00,98.41
3476.00,98.40
3475.00,98.39
3474.00,98.41
3473.00,98.43
3472.00,98.44
3471.00,98.43
3470.00,98.42
3469.00,98.40
3468.00,98.39
3467.00,98.38
3466.00,98.38
3465.00,98.38
3464.00,98.37
3463.00,98.35
3462.00,98.34
3461.00,98.33
3460.00,98.32
3459.00,98.31
3458.00,98.29
3457.00,98.26
3456.00,98.22
3455.00,98.20
3454.00,98.19
3453.00,98.19
3452.00,98.20
3451.00,98.21
3450.00,98.21
3449.00,98.20
3448.00,98.20
3447.00,98.19
3446.00,98.18
3445.00,98.17
3444.00,98.16
3443.00,98.16
3442.00,98.18
3441.00,98.20
3440.00,98.21
3439.00,98.20
3438.00,98.17
3437.00,98.13
3436.00,98.11
3435.00,98.09
3434.00,98.09
3433.00,98.09
3432.00,98.08
3431.00,98.07
3430.00,98.06
3429.00,98.04
3428.00,98.03
3427.00,98.02
3426.00,98.01
3425.00,97.99
3424.00,97.97
3423.00,97.97
3422.00,97.96
3421.00,97.97
3420.00,97.97
3419.00,97.98
3418.00,97.99
3417.00,97.98
3416.00,97.97
3415.00,97.94
3414.00,97.91
3413.00,97.88
3412.00,97.85
3411.00,97.83
3410.00,97.81
3409.00,97.81
3408.00,97.81
3407.00,97.81
3406.00,97.81
3405.00,97.81
3404.00,97.81
3403.00,97.80
3402.00,97.78
3401.00,97.76
3400.00,97.74
3399.00,97.72
3398.00,97.71
3397.00,97.70
3396.00,97.69
3395.00,97.68
3394.00,97.67
3393.00,97.66
3392.00,97.64
3391.00,97.62
3390.00,97.61
3389.00,97.61
3388.00,97.61
3387.00,97.61
3386.00,97.60
3385.00,97.59
3384.00,97.58
3383.00,97.58
3382.00,97.58
3381.00,97.56
3380.00,97.54
3379.00,97.53
3378.00,97.52
3377.00,97.51
3376.00,97.49
3375.00,97.47
3374.00,97.45
3373.00,97.42
3372.00,97.40
3371.00,97.39
3370.00,97.39
3369.00,97.37
3368.00,97.34
3367.00,97.31
3366.00,97.29
3365.00,97.27
3364.00,97.25
3363.00,97.23
3362.00,97.20
3361.00,97.17
3360.00,97.14
3359.00,97.12
3358.00,97.10
3357.00,97.07
3356.00,97.05
3355.00,97.02
3354.00,97.01
3353.00,96.99
3352.00,96.97
3351.00,96.94
3350.00,96.91
3349.00,96.87
3348.00,96.84
3347.00,96.81
3346.00,96.78
3345.00,96.75
3344.00,96.73
3343.00,96.71
3342.00,96.68
3341.00,96.62
3340.00,96.55
3339.00,96.47
3338.00,96.40
3337.00,96.35
3336.00,96.30
3335.00,96.26
3334.00,96.22
3333.00,96.18
3332.00,96.14
3331.00,96.09
3330.00,96.05
3329.00,95.99
3328.00,95.92
3327.00,95.85
3326.00,95.79
3325.00,95.72
3324.00,95.66
3323.00,95.59
3322.00,95.51
3321.00,95.42
3320.00,95.33
3319.00,95.24
3318.00,95.15
3317.00,95.09
3316.00,95.03
3315.00,94.97
3314.00,94.89
3313.00,94.80
3312.00,94.71
3311.00,94.63
3310.00,94.55
3309.00,94.46
3308.00,94.37
3307.00,94.28
3306.00,94.20
3305.00,94.12
3304.00,94.03
3303.00,93.93
3302.00,93.82
3301.00,93.70
3300.00,93.59
3299.00,93.50
3298.00,93.42
3297.00,93.35
3296.00,93.29
3295.00,93.22
3294.00,93.15
3293.00,93.07
3292.00,92.98
3291.00,92.90
3290.00,92.82
3289.00,92.75
3288.00,92.67
3287.00,92.61
3286.00,92.57
3285.00,92.53
3284.00,92.49
3283.00,92.46
3282.00,92.42
3281.00,92.39
3280.00,92.36
3279.00,92.35
3278.00,92.36
3277.00,92.38
3276.00,92.40
3275.00,92.42
3274.00,92.45
3273.00,92.49
3272.00,92.53
3271.00,92.58
3270.00,92.62
3269.00,92.68
3268.00,92.74
3267.00,92.80
3266.00,92.86
3265.00,92.91
3264.00,92.96
3263.00,93.01
3262.00,93.07
3261.00,93.14
3260.00,93.22
3259.00,93.32
3258.00,93.41
3257.00,93.49
3256.00,93.56
3255.00,93.62
3254.00,93.68
3253.00,93.75
3252.00,93.83
3251.00,93.92
3250.00,94.00
3249.00,94.06
3248.00,94.11
3247.00,94.17
3246.00,94.22
3245.00,94.28
3244.00,94.33
3243.00,94.37
3242.00,94.40
3241.00,94.45
3240.00,94.51
3239.00,94.58
3238.00,94.64
3237.00,94.68
3236.00,94.72
3235.00,94.77
3234.00,94.81
3233.00,94.85
3232.00,94.90
3231.00,94.93
3230.00,94.97
3229.00,95.00
3228.00,95.03
3227.00,95.07
3226.00,95.10
3225.00,95.13
3224.00,95.17
3223.00,95.21
3222.00,95.25
3221.00,95.30
3220.00,95.33
3219.00,95.35
3218.00,95.37
3217.00,95.40
3216.00,95.44
3215.00,95.48
3214.00,95.53
3213.00,95.58
3212.00,95.63
3211.00,95.68
3210.00,95.71
3209.00,95.73
3208.00,95.76
3207.00,95.80
3206.00,95.82
3205.00,95.84
3204.00,95.86
3203.00,95.89
3202.00,95.92
3201.00,95.96
3200.00,96.00
3199.00,96.04
3198.00,96.09
3197.00,96.13
3196.00,96.16
3195.00,96.20
3194.00,96.23
3193.00,96.26
3192.00,96.29
3191.00,96.32
3190.00,96.35
3189.00,96.37
3188.00,96.39
3187.00,96.41
3186.00,96.44
3185.00,96.47
3184.00,96.50
3183.00,96.53
3182.00,96.55
3181.00,96.58
3180.00,96.61
3179.00,96.64
3178.00,96.67
3177.00,96.71
3176.00,96.74
3175.00,96.77
3174.00,96.79
3173.00,96.81
3172.00,96.84
3171.00,96.86
3170.00,96.89
3169.00,96.92
3168.00,96.94
3167.00,96.95
3166.00,96.96
3165.00,96.97
3164.00,97.00
3163.00,97.04
3162.00,97.07
3161.00,97.09
3160.00,97.09
3159.00,97.10
3158.00,97.11
3157.00,97.14
3156.00,97.17
3155.00,97.20
3154.00,97.24
3153.00,97.26
3152.00,97.28
3151.00,97.29
3150.00,97.30
3149.00,97.31
3148.00,97.32
3147.00,97.34
3146.00,97.35
3145.00,97.36
3144.00,97.37
3143.00,97.38
3142.00,97.40
3141.00,97.42
3140.00,97.45
3139.00,97.46
3138.00,97.47
3137.00,97.46
3136.00,97.45
3135.00,97.45
3134.00,97.46
3133.00,97.47
3132.00,97.48
3131.00,97.49
3130.00,97.51
3129.00,97.53
3128.00,97.56
3127.00,97.58
3126.00,97.59
3125.00,97.60
3124.00,97.59
3123.00,97.58
3122.00,97.57
3121.00,97.56
3120.00,97.55
3119.00,97.55
3118.00,97.53
3117.00,97.52
3116.00,97.51
3115.00,97.50
3114.00,97.50
3113.00,97.50
3112.00,97.49
3111.00,97.49
3110.00,97.50
3109.00,97.50
3108.00,97.50
3107.00,97.50
3106.00,97.49
3105.00,97.48
3104.00,97.47
3103.00,97.46
3102.00,97.45
3101.00,97.45
3100.00,97.44
3099.00,97.43
3098.00,97.43
3097.00,97.41
3096.00,97.39
3095.00,97.35
3094.00,97.32
3093.00,97.31
3092.00,97.30
3091.00,97.30
3090.00,97.30
3089.00,97.28
3088.00,97.27
3087.00,97.25
3086.00,97.25
3085.00,97.26
3084.00,97.27
3083.00,97.27
3082.00,97.26
3081.00,97.25
3080.00,97.23
3079.00,97.22
3078.00,97.23
3077.00,97.23
3076.00,97.23
3075.00,97.22
3074.00,97.22
3073.00,97.21
3072.00,97.21
3071.00,97.22
3070.00,97.22
3069.00,97.22
3068.00,97.22
3067.00,97.23
3066.00,97.24
3065.00,97.26
3064.00,97.27
3063.00,97.29
3062.00,97.31
3061.00,97.34
3060.00,97.37
3059.00,97.39
3058.00,97.40
3057.00,97.40
3056.00,97.42
3055.00,97.44
3054.00,97.47
3053.00,97.50
3052.00,97.52
3051.00,97.53
3050.00,97.54
3049.00,97.56
3048.00,97.59
3047.00,97.62
3046.00,97.65
3045.00,97.67
3044.00,97.70
3043.00,97.72
3042.00,97.73
3041.00,97.74
3040.00,97.76
3039.00,97.77
3038.00,97.79
3037.00,97.82
3036.00,97.85
3035.00,97.88
3034.00,97.90
3033.00,97.91
3032.00,97.91
3031.00,97.91
3030.00,97.92
3029.00,97.93
3028.00,97.94
3027.00,97.96
3026.00,97.98
3025.00,97.99
3024.00,97.99
3023.00,97.99
3022.00,97.99
3021.00,98.01
3020.00,98.04
3019.00,98.08
3018.00,98.10
3017.00,98.10
3016.00,98.10
3015.00,98.09
3014.00,98.09
3013.00,98.10
3012.00,98.11
3011.00,98.11
3010.00,98.12
3009.00,98.12
3008.00,98.12
3007.00,98.11
3006.00,98.09
3005.00,98.08
3004.00,98.07
3003.00,98.06
3002.00,98.07
3001.00,98.08
3000.00,98.08
2999.00,98.08
2998.00,98.07
2997.00,98.06
2996.00,98.04
2995.00,98.03
2994.00,98.01
2993.00,98.00
2992.00,97.99
2991.00,97.98
2990.00,97.96
2989.00,97.94
2988.00,97.93
2987.00,97.93
2986.00,97.92
2985.00,97.91
2984.00,97.88
2983.00,97.85
2982.00,97.83
2981.00,97.81
2980.00,97.81
2979.00,97.82
2978.00,97.83
2977.00,97.84
2976.00,97.84
2975.00,97.83
2974.00,97.82
2973.00,97.80
2972.00,97.79
2971.00,97.79
2970.00,97.79
2969.00,97.79
2968.00,97.81
2967.00,97.81
2966.00,97.81
2965.00,97.79
2964.00,97.79
2963.00,97.79
2962.00,97.80
2961.00,97.82
2960.00,97.82
2959.00,97.81
2958.00,97.81
2957.00,97.82
2956.00,97.83
2955.00,97.85
2954.00,97.86
2953.00,97.86
2952.00,97.86
2951.00,97.86
2950.00,97.84
2949.00,97.82
2948.00,97.80
2947.00,97.78
2946.00,97.76
2945.00,97.75
2944.00,97.74
2943.00,97.73
2942.00,97.71
2941.00,97.70
2940.00,97.69
2939.00,97.67
2938.00,97.65
2937.00,97.61
2936.00,97.58
2935.00,97.55
2934.00,97.52
2933.00,97.49
2932.00,97.47
2931.00,97.46
2930.00,97.48
2929.00,97.50
2928.00,97.51
2927.00,97.51
2926.00,97.51
2925.00,97.51
2924.00,97.51
2923.00,97.52
2922.00,97.54
2921.00,97.57
2920.00,97.60
2919.00,97.63
2918.00,97.66
2917.00,97.68
2916.00,97.69
2915.00,97.72
2914.00,97.76
2913.00,97.81
2912.00,97.85
2911.00,97.89
2910.00,97.91
2909.00,97.93
2908.00,97.97
2907.00,98.00
2906.00,98.02
2905.00,98.02
2904.00,98.02
2903.00,98.02
2902.00,98.03
2901.00,98.06
2900.00,98.08
2899.00,98.10
2898.00,98.11
2897.00,98.11
2896.00,98.12
2895.00,98.12
2894.00,98.13
2893.00,98.13
2892.00,98.14
2891.00,98.15
2890.00,98.16
2889.00,98.16
2888.00,98.15
2887.00,98.15
2886.00,98.14
2885.00,98.14
2884.00,98.14
2883.00,98.15
2882.00,98.15
2881.00,98.16
2880.00,98.17
2879.00,98.18
2878.00,98.18
2877.00,98.18
2876.00,98.17
2875.00,98.17
2874.00,98.17
2873.00,98.18
2872.00,98.18
2871.00,98.18
2870.00,98.19
2869.00,98.20
2868.00,98.21
2867.00,98.21
2866.00,98.20
2865.00,98.20
2864.00,98.20
2863.00,98.21
2862.00,98.22
2861.00,98.24
2860.00,98.25
2859.00,98.27
2858.00,98.28
2857.00,98.28
2856.00,98.26
2855.00,98.23
2854.00,98.22
2853.00,98.22
2852.00,98.24
2851.00,98.25
2850.00,98.26
2849.00,98.27
2848.00,98.29
2847.00,98.32
2846.00,98.35
2845.00,98.39
2844.00,98.42
2843.00,98.46
2842.00,98.49
2841.00,98.52
2840.00,98.54
2839.00,98.57
2838.00,98.59
2837.00,98.60
2836.00,98.61
2835.00,98.61
2834.00,98.61
2833.00,98.61
2832.00,98.60
2831.00,98.59
2830.00,98.58
2829.00,98.58
2828.00,98.60
2827.00,98.62
2826.00,98.63
2825.00,98.64
2824.00,98.65
2823.00,98.65
2822.00,98.65
2821.00,98.65
2820.00,98.64
2819.00,98.65
2818.00,98.66
2817.00,98.67
2816.00,98.69
2815.00,98.70
2814.00,98.70
2813.00,98.69
2812.00,98.69
2811.00,98.69
2810.00,98.69
2809.00,98.69
2808.00,98.69
2807.00,98.69
2806.00,98.69
2805.00,98.68
2804.00,98.67
2803.00,98.66
2802.00,98.67
2801.00,98.68
2800.00,98.69
2799.00,98.71
2798.00,98.73
2797.00,98.74
2796.00,98.74
2795.00,98.73
2794.00,98.72
2793.00,98.72
2792.00,98.73
2791.00,98.73
2790.00,98.72
2789.00,98.71
2788.00,98.70
2787.00,98.70
2786.00,98.70
2785.00,98.71
2784.00,98.72
2783.00,98.73
2782.00,98.74
2781.00,98.75
2780.00,98.75
2779.00,98.75
2778.00,98.76
2777.00,98.77
2776.00,98.78
2775.00,98.78
2774.00,98.78
2773.00,98.78
2772.00,98.77
2771.00,98.77
2770.00,98.78
2769.00,98.79
2768.00,98.81
2767.00,98.83
2766.00,98.85
2765.00,98.86
2764.00,98.86
2763.00,98.85
2762.00,98.84
2761.00,98.85
2760.00,98.86
2759.00,98.87
2758.00,98.87
2757.00,98.87
2756.00,98.86
2755.00,98.86
2754.00,98.86
2753.00,98.86
2752.00,98.86
2751.00,98.87
2750.00,98.87
2749.00,98.88
2748.00,98.88
2747.00,98.88
2746.00,98.89
2745.00,98.90
2744.00,98.90
2743.00,98.90
2742.00,98.89
2741.00,98.88
2740.00,98.88
2739.00,98.89
2738.00,98.91
2737.00,98.92
2736.00,98.92
2735.00,98.93
2734.00,98.93
2733.00,98.94
2732.00,98.95
2731.00,98.95
2730.00,98.95
2729.00,98.94
2728.00,98.93
2727.00,98.93
2726.00,98.93
2725.00,98.94
2724.00,98.95
2723.00,98.96
2722.00,98.97
2721.00,98.98
2720.00,98.98
2719.00,98.99
2718.00,98.98
2717.00,98.97
2716.00,98.96
2715.00,98.97
2714.00,98.99
2713.00,99.01
2712.00,99.02
2711.00,99.03
2710.00,99.03
2709.00,99.03
2708.00,99.02
2707.00,99.01
2706.00,99.00
2705.00,99.00
2704.00,99.01
2703.00,99.02
2702.00,99.02
2701.00,99.02
2700.00,99.03
2699.00,99.04
2698.00,99.04
2697.00,99.04
2696.00,99.03
2695.00,99.03
2694.00,99.03
2693.00,99.03
2692.00,99.03
2691.00,99.03
2690.00,99.03
2689.00,99.02
2688.00,99.01
2687.00,99.00
2686.00,99.00
2685.00,99.00
2684.00,99.02
2683.00,99.02
2682.00,99.02
2681.00,99.02
2680.00,99.02
2679.00,99.03
2678.00,99.05
2677.00,99.07
2676.00,99.09
2675.00,99.10
2674.00,99.10
2673.00,99.09
2672.00,99.08
2671.00,99.08
2670.00,99.09
2669.00,99.09
2668.00,99.09
2667.00,99.08
2666.00,99.06
2665.00,99.05
2664.00,99.06
2663.00,99.07
2662.00,99.09
2661.00,99.09
2660.00,99.07
2659.00,99.06
2658.00,99.06
2657.00,99.05
2656.00,99.04
2655.00,99.03
2654.00,99.01
2653.00,99.00
2652.00,99.01
2651.00,99.02
2650.00,99.03
2649.00,99.03
2648.00,99.03
2647.00,99.02
2646.00,98.99
2645.00,98.97
2644.00,98.95
2643.00,98.93
2642.00,98.91
2641.00,98.90
2640.00,98.90
2639.00,98.90
2638.00,98.92
2637.00,98.93
2636.00,98.93
2635.00,98.93
2634.00,98.92
2633.00,98.91
2632.00,98.89
2631.00,98.87
2630.00,98.84
2629.00,98.81
2628.00,98.79
2627.00,98.79
2626.00,98.80
2625.00,98.82
2624.00,98.83
2623.00,98.85
2622.00,98.86
2621.00,98.85
2620.00,98.84
2619.00,98.82
2618.00,98.82
2617.00,98.82
2616.00,98.83
2615.00,98.82
2614.00,98.82
2613.00,98.81
2612.00,98.80
2611.00,98.78
2610.00,98.77
2609.00,98.77
2608.00,98.78
2607.00,98.79
2606.00,98.80
2605.00,98.80
2604.00,98.78
2603.00,98.77
2602.00,98.77
2601.00,98.78
2600.00,98.78
2599.00,98.78
2598.00,98.77
2597.00,98.75
2596.00,98.74
2595.00,98.75
2594.00,98.77
2593.00,98.80
2592.00,98.80
2591.00,98.79
2590.00,98.77
2589.00,98.75
2588.00,98.73
2587.00,98.71
2586.00,98.69
2585.00,98.67
2584.00,98.67
2583.00,98.70
2582.00,98.74
2581.00,98.77
2580.00,98.76
2579.00,98.73
2578.00,98.70
2577.00,98.68
2576.00,98.69
2575.00,98.71
2574.00,98.73
2573.00,98.75
2572.00,98.77
2571.00,98.76
2570.00,98.75
2569.00,98.73
2568.00,98.74
2567.00,98.76
2566.00,98.78
2565.00,98.79
2564.00,98.78
2563.00,98.76
2562.00,98.73
2561.00,98.71
2560.00,98.69
2559.00,98.69
2558.00,98.69
2557.00,98.70
2556.00,98.70
2555.00,98.72
2554.00,98.73
2553.00,98.74
2552.00,98.75
2551.00,98.76
2550.00,98.77
2549.00,98.76
2548.00,98.75
2547.00,98.74
2546.00,98.74
2545.00,98.75
2544.00,98.77
2543.00,98.77
2542.00,98.75
2541.00,98.75
2540.00,98.75
2539.00,98.76
2538.00,98.76
2537.00,98.74
2536.00,98.73
2535.00,98.71
2534.00,98.70
2533.00,98.69
2532.00,98.70
2531.00,98.71
2530.00,98.71
2529.00,98.71
2528.00,98.72
2527.00,98.72
2526.00,98.73
2525.00,98.72
2524.00,98.72
2523.00,98.71
2522.00,98.72
2521.00,98.74
2520.00,98.76
2519.00,98.77
2518.00,98.77
2517.00,98.77
2516.00,98.77
2515.00,98.76
2514.00,98.75
2513.00,98.75
2512.00,98.75
2511.00,98.77
2510.00,98.79
2509.00,98.78
2508.00,98.77
2507.00,98.75
2506.00,98.75
2505.00,98.75
2504.00,98.76
2503.00,98.77
2502.00,98.77
2501.00,98.77
2500.00,98.78
2499.00,98.77
2498.00,98.76
2497.00,98.74
2496.00,98.73
2495.00,98.74
2494.00,98.75
2493.00,98.77
2492.00,98.78
2491.00,98.79
2490.00,98.80
2489.00,98.81
2488.00,98.81
2487.00,98.78
2486.00,98.75
2485.00,98.73
2484.00,98.73
2483.00,98.77
2482.00,98.80
2481.00,98.82
2480.00,98.82
2479.00,98.81
2478.00,98.80
2477.00,98.78
2476.00,98.77
2475.00,98.76
2474.00,98.75
2473.00,98.75
2472.00,98.76
2471.00,98.78
2470.00,98.79
2469.00,98.80
2468.00,98.80
2467.00,98.81
2466.00,98.80
2465.00,98.79
2464.00,98.77
2463.00,98.76
2462.00,98.75
2461.00,98.75
2460.00,98.75
2459.00,98.76
2458.00,98.76
2457.00,98.76
2456.00,98.75
2455.00,98.73
2454.00,98.71
2453.00,98.69
2452.00,98.68
2451.00,98.68
2450.00,98.70
2449.00,98.73
2448.00,98.78
2447.00,98.82
2446.00,98.84
2445.00,98.82
2444.00,98.80
2443.00,98.78
2442.00,98.78
2441.00,98.79
2440.00,98.81
2439.00,98.83
2438.00,98.84
2437.00,98.83
2436.00,98.83
2435.00,98.83
2434.00,98.84
2433.00,98.85
2432.00,98.84
2431.00,98.84
2430.00,98.85
2429.00,98.86
2428.00,98.86
2427.00,98.85
2426.00,98.83
2425.00,98.82
2424.00,98.82
2423.00,98.82
2422.00,98.84
2421.00,98.84
2420.00,98.84
2419.00,98.84
2418.00,98.85
2417.00,98.86
2416.00,98.86
2415.00,98.87
2414.00,98.87
2413.00,98.87
2412.00,98.86
2411.00,98.84
2410.00,98.83
2409.00,98.82
2408.00,98.82
2407.00,98.83
2406.00,98.85
2405.00,98.88
2404.00,98.90
2403.00,98.93
2402.00,98.93
2401.00,98.93
2400.00,98.92
2399.00,98.91
2398.00,98.92
2397.00,98.94
2396.00,98.95
2395.00,98.96
2394.00,98.96
2393.00,98.96
2392.00,98.95
2391.00,98.95
2390.00,98.96
2389.00,98.98
2388.00,99.01
2387.00,99.04
2386.00,99.05
2385.00,99.06
2384.00,99.06
2383.00,99.06
2382.00,99.05
2381.00,99.05
2380.00,99.06
2379.00,99.08
2378.00,99.11
2377.00,99.14
2376.00,99.18
2375.00,99.23
2374.00,99.28
2373.00,99.33
2372.00,99.33
2371.00,99.31
2370.00,99.26
2369.00,99.23
2368.00,99.22
2367.00,99.23
2366.00,99.23
2365.00,99.22
2364.00,99.21
2363.00,99.24
2362.00,99.29
2361.00,99.33
2360.00,99.31
2359.00,99.27
2358.00,99.23
2357.00,99.22
2356.00,99.24
2355.00,99.25
2354.00,99.24
2353.00,99.24
2352.00,99.27
2351.00,99.30
2350.00,99.30
2349.00,99.27
2348.00,99.24
2347.00,99.24
2346.00,99.27
2345.00,99.28
2344.00,99.27
2343.00,99.25
2342.00,99.23
2341.00,99.23
2340.00,99.24
2339.00,99.25
2338.00,99.25
2337.00,99.26
2336.00,99.26
2335.00,99.24
2334.00,99.21
2333.00,99.19
2332.00,99.18
2331.00,99.20
2330.00,99.21
2329.00,99.21
2328.00,99.19
2327.00,99.16
2326.00,99.11
2325.00,99.08
2324.00,99.06
2323.00,99.05
2322.00,99.05
2321.00,99.05
2320.00,99.04
2319.00,99.04
2318.00,99.03
2317.00,99.02
2316.00,99.00
2315.00,98.99
2314.00,98.99
2313.00,98.99
2312.00,98.99
2311.00,98.98
2310.00,98.96
2309.00,98.95
2308.00,98.95
2307.00,98.94
2306.00,98.93
2305.00,98.90
2304.00,98.88
2303.00,98.87
2302.00,98.87
2301.00,98.86
2300.00,98.85
2299.00,98.83
2298.00,98.81
2297.00,98.81
2296.00,98.81
2295.00,98.81
2294.00,98.79
2293.00,98.78
2292.00,98.76
2291.00,98.74
2290.00,98.71
2289.00,98.67
2288.00,98.63
2287.00,98.59
2286.00,98.56
2285.00,98.54
2284.00,98.53
2283.00,98.52
2282.00,98.52
2281.00,98.52
2280.00,98.53
2279.00,98.53
2278.00,98.54
2277.00,98.53
2276.00,98.51
2275.00,98.46
2274.00,98.42
2273.00,98.42
2272.00,98.44
2271.00,98.47
2270.00,98.48
2269.00,98.47
2268.00,98.45
2267.00,98.43
2266.00,98.42
2265.00,98.41
2264.00,98.39
2263.00,98.37
2262.00,98.36
2261.00,98.33
2260.00,98.30
2259.00,98.27
2258.00,98.24
2257.00,98.21
2256.00,98.17
2255.00,98.15
2254.00,98.14
2253.00,98.14
2252.00,98.14
2251.00,98.14
2250.00,98.14
2249.00,98.15
2248.00,98.18
2247.00,98.23
2246.00,98.26
2245.00,98.27
2244.00,98.25
2243.00,98.24
2242.00,98.24
2241.00,98.22
2240.00,98.19
2239.00,98.12
2238.00,98.05
2237.00,98.00
2236.00,98.00
2235.00,98.02
2234.00,98.02
2233.00,97.98
2232.00,97.92
2231.00,97.89
2230.00,97.89
2229.00,97.90
2228.00,97.91
2227.00,97.93
2226.00,97.97
2225.00,98.00
2224.00,97.99
2223.00,97.96
2222.00,97.93
2221.00,97.93
2220.00,97.95
2219.00,97.99
2218.00,97.99
2217.00,97.95
2216.00,97.89
2215.00,97.83
2214.00,97.80
2213.00,97.81
2212.00,97.84
2211.00,97.86
2210.00,97.88
2209.00,97.89
2208.00,97.91
2207.00,97.93
2206.00,97.92
2205.00,97.89
2204.00,97.86
2203.00,97.85
2202.00,97.85
2201.00,97.84
2200.00,97.80
2199.00,97.73
2198.00,97.68
2197.00,97.65
2196.00,97.66
2195.00,97.70
2194.00,97.73
2193.00,97.74
2192.00,97.71
2191.00,97.66
2190.00,97.61
2189.00,97.58
2188.00,97.55
2187.00,97.54
2186.00,97.53
2185.00,97.52
2184.00,97.50
2183.00,97.48
2182.00,97.49
2181.00,97.51
2180.00,97.52
2179.00,97.50
2178.00,97.46
2177.00,97.43
2176.00,97.41
2175.00,97.42
2174.00,97.44
2173.00,97.45
2172.00,97.46
2171.00,97.47
2170.00,97.46
2169.00,97.43
2168.00,97.38
2167.00,97.32
2166.00,97.26
2165.00,97.23
2164.00,97.24
2163.00,97.24
2162.00,97.23
2161.00,97.23
2160.00,97.27
2159.00,97.35
2158.00,97.42
2157.00,97.45
2156.00,97.47
2155.00,97.48
2154.00,97.48
2153.00,97.49
2152.00,97.50
2151.00,97.55
2150.00,97.64
2149.00,97.74
2148.00,97.82
2147.00,97.86
2146.00,97.87
2145.00,97.87
2144.00,97.87
2143.00,97.88
2142.00,97.91
2141.00,97.93
2140.00,97.96
2139.00,97.98
2138.00,98.01
2137.00,98.04
2136.00,98.09
2135.00,98.17
2134.00,98.24
2133.00,98.29
2132.00,98.30
2131.00,98.28
2130.00,98.26
2129.00,98.26
2128.00,98.27
2127.00,98.28
2126.00,98.29
2125.00,98.30
2124.00,98.32
2123.00,98.34
2122.00,98.36
2121.00,98.35
2120.00,98.35
2119.00,98.35
2118.00,98.35
2117.00,98.33
2116.00,98.33
2115.00,98.35
2114.00,98.37
2113.00,98.37
2112.00,98.36
2111.00,98.34
2110.00,98.33
2109.00,98.34
2108.00,98.34
2107.00,98.33
2106.00,98.31
2105.00,98.30
2104.00,98.30
2103.00,98.29
2102.00,98.27
2101.00,98.24
2100.00,98.23
2099.00,98.25
2098.00,98.29
2097.00,98.33
2096.00,98.37
2095.00,98.38
2094.00,98.37
2093.00,98.36
2092.00,98.37
2091.00,98.39
2090.00,98.40
2089.00,98.37
2088.00,98.32
2087.00,98.27
2086.00,98.24
2085.00,98.23
2084.00,98.22
2083.00,98.22
2082.00,98.23
2081.00,98.24
2080.00,98.25
2079.00,98.26
2078.00,98.27
2077.00,98.26
2076.00,98.26
2075.00,98.25
2074.00,98.23
2073.00,98.19
2072.00,98.16
2071.00,98.15
2070.00,98.16
2069.00,98.17
2068.00,98.18
2067.00,98.18
2066.00,98.18
2065.00,98.16
2064.00,98.14
2063.00,98.13
2062.00,98.13
2061.00,98.12
2060.00,98.11
2059.00,98.10
2058.00,98.10
2057.00,98.10
2056.00,98.11
2055.00,98.11
2054.00,98.07
2053.00,97.98
2052.00,97.88
2051.00,97.82
2050.00,97.80
2049.00,97.81
2048.00,97.83
2047.00,97.83
2046.00,97.80
2045.00,97.77
2044.00,97.73
2043.00,97.70
2042.00,97.66
2041.00,97.58
2040.00,97.49
2039.00,97.43
2038.00,97.39
2037.00,97.36
2036.00,97.36
2035.00,97.40
2034.00,97.46
2033.00,97.52
2032.00,97.56
2031.00,97.58
2030.00,97.59
2029.00,97.58
2028.00,97.57
2027.00,97.55
2026.00,97.51
2025.00,97.46
2024.00,97.45
2023.00,97.48
2022.00,97.54
2021.00,97.60
2020.00,97.68
2019.00,97.77
2018.00,97.88
2017.00,97.96
2016.00,97.96
2015.00,97.89
2014.00,97.77
2013.00,97.67
2012.00,97.64
2011.00,97.67
2010.00,97.71
2009.00,97.72
2008.00,97.70
2007.00,97.71
2006.00,97.74
2005.00,97.75
2004.00,97.75
2003.00,97.76
2002.00,97.79
2001.00,97.83
2000.00,97.86
1999.00,97.90
1998.00,97.91
1997.00,97.90
1996.00,97.87
1995.00,97.87
1994.00,97.91
1993.00,97.97
1992.00,97.99
1991.00,97.96
1990.00,97.91
1989.00,97.87
1988.00,97.86
1987.00,97.87
1986.00,97.87
1985.00,97.86
1984.00,97.83
1983.00,97.79
1982.00,97.73
1981.00,97.68
1980.00,97.67
1979.00,97.70
1978.00,97.73
1977.00,97.74
1976.00,97.73
1975.00,97.75
1974.00,97.76
1973.00,97.74
1972.00,97.73
1971.00,97.76
1970.00,97.83
1969.00,97.90
1968.00,97.95
1967.00,97.97
1966.00,97.98
1965.00,97.98
1964.00,97.98
1963.00,98.00
1962.00,98.03
1961.00,98.05
1960.00,98.06
1959.00,98.09
1958.00,98.13
1957.00,98.16
1956.00,98.19
1955.00,98.22
1954.00,98.24
1953.00,98.25
1952.00,98.24
1951.00,98.23
1950.00,98.25
1949.00,98.28
1948.00,98.32
1947.00,98.35
1946.00,98.37
1945.00,98.39
1944.00,98.38
1943.00,98.37
1942.00,98.36
1941.00,98.38
1940.00,98.44
1939.00,98.51
1938.00,98.54
1937.00,98.54
1936.00,98.53
1935.00,98.53
1934.00,98.55
1933.00,98.56
1932.00,98.58
1931.00,98.59
1930.00,98.60
1929.00,98.60
1928.00,98.60
1927.00,98.61
1926.00,98.63
1925.00,98.67
1924.00,98.70
1923.00,98.72
1922.00,98.73
1921.00,98.74
1920.00,98.75
1919.00,98.76
1918.00,98.76
1917.00,98.75
1916.00,98.75
1915.00,98.76
1914.00,98.77
1913.00,98.79
1912.00,98.80
1911.00,98.81
1910.00,98.81
1909.00,98.80
1908.00,98.79
1907.00,98.79
1906.00,98.81
1905.00,98.82
1904.00,98.82
1903.00,98.84
1902.00,98.86
1901.00,98.89
1900.00,98.91
1899.00,98.93
1898.00,98.95
1897.00,98.96
1896.00,98.96
1895.00,98.96
1894.00,98.94
1893.00,98.91
1892.00,98.88
1891.00,98.88
1890.00,98.89
1889.00,98.92
1888.00,98.95
1887.00,98.98
1886.00,99.00
1885.00,99.00
1884.00,98.98
1883.00,98.96
1882.00,98.95
1881.00,98.93
1880.00,98.93
1879.00,98.94
1878.00,98.96
1877.00,98.99
1876.00,99.01
1875.00,99.00
1874.00,98.98
1873.00,98.97
1872.00,98.98
1871.00,99.04
1870.00,99.10
1869.00,99.11
1868.00,99.10
1867.00,99.08
1866.00,99.07
1865.00,99.08
1864.00,99.09
1863.00,99.10
1862.00,99.12
1861.00,99.14
1860.00,99.15
1859.00,99.17
1858.00,99.17
1857.00,99.17
1856.00,99.16
1855.00,99.15
1854.00,99.16
1853.00,99.16
1852.00,99.16
1851.00,99.15
1850.00,99.14
1849.00,99.14
1848.00,99.16
1847.00,99.19
1846.00,99.23
1845.00,99.25
1844.00,99.26
1843.00,99.26
1842.00,99.26
1841.00,99.25
1840.00,99.25
1839.00,99.25
1838.00,99.26
1837.00,99.27
1836.00,99.29
1835.00,99.30
1834.00,99.30
1833.00,99.30
1832.00,99.30
1831.00,99.31
1830.00,99.31
1829.00,99.30
1828.00,99.29
1827.00,99.30
1826.00,99.30
1825.00,99.28
1824.00,99.25
1823.00,99.25
1822.00,99.26
1821.00,99.27
1820.00,99.28
1819.00,99.31
1818.00,99.35
1817.00,99.37
1816.00,99.37
1815.00,99.36
1814.00,99.36
1813.00,99.36
1812.00,99.35
1811.00,99.34
1810.00,99.35
1809.00,99.36
1808.00,99.37
1807.00,99.39
1806.00,99.38
1805.00,99.37
1804.00,99.35
1803.00,99.37
1802.00,99.42
1801.00,99.46
1800.00,99.47
1799.00,99.46
1798.00,99.45
1797.00,99.45
1796.00,99.46
1795.00,99.47
1794.00,99.48
1793.00,99.49
1792.00,99.49
1791.00,99.49
1790.00,99.49
1789.00,99.49
1788.00,99.47
1787.00,99.45
1786.00,99.44
1785.00,99.44
1784.00,99.45
1783.00,99.46
1782.00,99.46
1781.00,99.47
1780.00,99.47
1779.00,99.47
1778.00,99.47
1777.00,99.47
1776.00,99.48
1775.00,99.51
1774.00,99.54
1773.00,99.55
1772.00,99.52
1771.00,99.50
1770.00,99.51
1769.00,99.52
1768.00,99.52
1767.00,99.51
1766.00,99.51
1765.00,99.51
1764.00,99.51
1763.00,99.52
1762.00,99.51
1761.00,99.50
1760.00,99.49
1759.00,99.50
1758.00,99.51
1757.00,99.52
1756.00,99.52
1755.00,99.52
1754.00,99.52
1753.00,99.51
1752.00,99.51
1751.00,99.51
1750.00,99.52
1749.00,99.52
1748.00,99.51
1747.00,99.49
1746.00,99.47
1745.00,99.45
1744.00,99.43
1743.00,99.45
1742.00,99.47
1741.00,99.48
1740.00,99.46
1739.00,99.44
1738.00,99.46
1737.00,99.51
1736.00,99.55
1735.00,99.56
1734.00,99.52
1733.00,99.47
1732.00,99.46
1731.00,99.46
1730.00,99.46
1729.00,99.43
1728.00,99.40
1727.00,99.38
1726.00,99.38
1725.00,99.37
1724.00,99.34
1723.00,99.31
1722.00,99.30
1721.00,99.31
1720.00,99.31
1719.00,99.31
1718.00,99.26
1717.00,99.18
1716.00,99.09
1715.00,99.03
1714.00,98.96
1713.00,98.86
1712.00,98.73
1711.00,98.59
1710.00,98.44
1709.00,98.27
1708.00,98.05
1707.00,97.77
1706.00,97.41
1705.00,96.99
1704.00,96.61
1703.00,96.33
1702.00,96.05
1701.00,95.65
1700.00,95.21
1699.00,94.96
1698.00,94.91
1697.00,94.95
1696.00,94.97
1695.00,94.96
1694.00,94.95
1693.00,94.97
1692.00,94.98
1691.00,94.96
1690.00,94.92
1689.00,94.86
1688.00,94.82
1687.00,94.80
1686.00,94.76
1685.00,94.62
1684.00,94.39
1683.00,94.19
1682.00,94.09
1681.00,94.01
1680.00,93.89
1679.00,93.76
1678.00,93.63
1677.00,93.48
1676.00,93.30
1675.00,93.09
1674.00,92.92
1673.00,92.81
1672.00,92.69
1671.00,92.53
1670.00,92.29
1669.00,92.03
1668.00,91.82
1667.00,91.69
1666.00,91.59
1665.00,91.47
1664.00,91.29
1663.00,91.04
1662.00,90.77
1661.00,90.52
1660.00,90.30
1659.00,90.11
1658.00,89.95
1657.00,89.82
1656.00,89.72
1655.00,89.61
1654.00,89.33
1653.00,88.83
1652.00,88.43
1651.00,88.28
1650.00,88.26
1649.00,88.23
1648.00,88.08
1647.00,87.78
1646.00,87.45
1645.00,87.18
1644.00,86.98
1643.00,86.81
1642.00,86.65
1641.00,86.47
1640.00,86.27
1639.00,86.09
1638.00,85.92
1637.00,85.67
1636.00,85.27
1635.00,84.84
1634.00,84.52
1633.00,84.31
1632.00,84.14
1631.00,83.95
1630.00,83.72
1629.00,83.43
1628.00,83.11
1627.00,82.82
1626.00,82.61
1625.00,82.43
1624.00,82.21
1623.00,81.97
1622.00,81.79
1621.00,81.70
1620.00,81.68
1619.00,81.67
1618.00,81.67
1617.00,81.65
1616.00,81.66
1615.00,81.77
1614.00,81.98
1613.00,82.24
1612.00,82.51
1611.00,82.79
1610.00,83.10
1609.00,83.45
1608.00,83.82
1607.00,84.20
1606.00,84.60
1605.00,85.02
1604.00,85.45
1603.00,85.85
1602.00,86.25
1601.00,86.62
1600.00,86.99
1599.00,87.32
1598.00,87.63
1597.00,87.93
1596.00,88.23
1595.00,88.53
1594.00,88.80
1593.00,89.08
1592.00,89.34
1591.00,89.60
1590.00,89.83
1589.00,90.05
1588.00,90.25
1587.00,90.43
1586.00,90.59
1585.00,90.73
1584.00,90.85
1583.00,90.95
1582.00,91.01
1581.00,91.07
1580.00,91.14
1579.00,91.20
1578.00,91.22
1577.00,91.17
1576.00,91.07
1575.00,90.97
1574.00,90.93
1573.00,90.93
1572.00,90.92
1571.00,90.84
1570.00,90.66
1569.00,90.46
1568.00,90.31
1567.00,90.18
1566.00,90.03
1565.00,89.85
1564.00,89.69
1563.00,89.61
1562.00,89.58
1561.00,89.54
1560.00,89.35
1559.00,88.92
1558.00,88.53
1557.00,88.37
1556.00,88.29
1555.00,88.18
1554.00,88.02
1553.00,87.85
1552.00,87.72
1551.00,87.60
1550.00,87.45
1549.00,87.29
1548.00,87.16
1547.00,87.05
1546.00,86.94
1545.00,86.82
1544.00,86.71
1543.00,86.61
1542.00,86.46
1541.00,86.20
1540.00,85.85
1539.00,85.55
1538.00,85.39
1537.00,85.35
1536.00,85.34
1535.00,85.26
1534.00,85.08
1533.00,84.85
1532.00,84.69
1531.00,84.61
1530.00,84.55
1529.00,84.47
1528.00,84.36
1527.00,84.25
1526.00,84.14
1525.00,84.05
1524.00,83.99
1523.00,83.90
1522.00,83.73
1521.00,83.50
1520.00,83.34
1519.00,83.22
1518.00,83.08
1517.00,82.89
1516.00,82.71
1515.00,82.62
1514.00,82.61
1513.00,82.65
1512.00,82.72
1511.00,82.84
1510.00,83.01
1509.00,83.21
1508.00,83.41
1507.00,83.60
1506.00,83.74
1505.00,83.88
1504.00,84.05
1503.00,84.24
1502.00,84.45
1501.00,84.68
1500.00,84.92
1499.00,85.17
1498.00,85.42
1497.00,85.69
1496.00,85.95
1495.00,86.19
1494.00,86.42
1493.00,86.65
1492.00,86.90
1491.00,87.18
1490.00,87.47
1489.00,87.76
1488.00,88.01
1487.00,88.23
1486.00,88.43
1485.00,88.61
1484.00,88.79
1483.00,88.96
1482.00,89.14
1481.00,89.31
1480.00,89.47
1479.00,89.61
1478.00,89.75
1477.00,89.89
1476.00,90.02
1475.00,90.13
1474.00,90.22
1473.00,90.27
1472.00,90.29
1471.00,90.31
1470.00,90.34
1469.00,90.37
1468.00,90.39
1467.00,90.39
1466.00,90.38
1465.00,90.38
1464.00,90.39
1463.00,90.40
1462.00,90.41
1461.00,90.41
1460.00,90.39
1459.00,90.32
1458.00,90.17
1457.00,89.90
1456.00,89.62
1455.00,89.40
1454.00,89.22
1453.00,89.01
1452.00,88.78
1451.00,88.56
1450.00,88.37
1449.00,88.20
1448.00,88.04
1447.00,87.91
1446.00,87.82
1445.00,87.75
1444.00,87.70
1443.00,87.67
1442.00,87.66
1441.00,87.67
1440.00,87.71
1439.00,87.79
1438.00,87.91
1437.00,88.06
1436.00,88.23
1435.00,88.42
1434.00,88.61
1433.00,88.80
1432.00,88.99
1431.00,89.20
1430.00,89.40
1429.00,89.58
1428.00,89.73
1427.00,89.86
1426.00,89.97
1425.00,90.05
1424.00,90.12
1423.00,90.16
1422.00,90.20
1421.00,90.22
1420.00,90.23
1419.00,90.23
1418.00,90.22
1417.00,90.22
1416.00,90.20
1415.00,90.17
1414.00,90.13
1413.00,90.10
1412.00,90.08
1411.00,90.05
1410.00,90.04
1409.00,90.03
1408.00,90.03
1407.00,90.04
1406.00,90.05
1405.00,90.07
1404.00,90.10
1403.00,90.13
1402.00,90.18
1401.00,90.23
1400.00,90.29
1399.00,90.34
1398.00,90.40
1397.00,90.47
1396.00,90.51
1395.00,90.53
1394.00,90.53
1393.00,90.52
1392.00,90.53
1391.00,90.54
1390.00,90.57
1389.00,90.61
1388.00,90.64
1387.00,90.67
1386.00,90.70
1385.00,90.72
1384.00,90.73
1383.00,90.73
1382.00,90.73
1381.00,90.75
1380.00,90.78
1379.00,90.80
1378.00,90.80
1377.00,90.80
1376.00,90.81
1375.00,90.81
1374.00,90.80
1373.00,90.79
1372.00,90.76
1371.00,90.73
1370.00,90.71
1369.00,90.70
1368.00,90.71
1367.00,90.76
1366.00,90.83
1365.00,90.93
1364.00,91.04
1363.00,91.17
1362.00,91.30
1361.00,91.40
1360.00,91.48
1359.00,91.54
1358.00,91.60
1357.00,91.65
1356.00,91.70
1355.00,91.73
1354.00,91.77
1353.00,91.81
1352.00,91.85
1351.00,91.88
1350.00,91.90
1349.00,91.90
1348.00,91.89
1347.00,91.87
1346.00,91.85
1345.00,91.84
1344.00,91.83
1343.00,91.83
1342.00,91.83
1341.00,91.82
1340.00,91.82
1339.00,91.80
1338.00,91.79
1337.00,91.78
1336.00,91.76
1335.00,91.74
1334.00,91.73
1333.00,91.74
1332.00,91.75
1331.00,91.77
1330.00,91.80
1329.00,91.84
1328.00,91.88
1327.00,91.92
1326.00,91.95
1325.00,91.99
1324.00,92.02
1323.00,92.06
1322.00,92.10
1321.00,92.13
1320.00,92.16
1319.00,92.18
1318.00,92.20
1317.00,92.21
1316.00,92.23
1315.00,92.23
1314.00,92.24
1313.00,92.24
1312.00,92.25
1311.00,92.26
1310.00,92.27
1309.00,92.27
1308.00,92.26
1307.00,92.26
1306.00,92.26
1305.00,92.27
1304.00,92.28
1303.00,92.30
1302.00,92.33
1301.00,92.35
1300.00,92.37
1299.00,92.40
1298.00,92.42
1297.00,92.46
1296.00,92.48
1295.00,92.49
1294.00,92.49
1293.00,92.48
1292.00,92.48
1291.00,92.47
1290.00,92.45
1289.00,92.42
1288.00,92.39
1287.00,92.37
1286.00,92.35
1285.00,92.33
1284.00,92.31
1283.00,92.28
1282.00,92.23
1281.00,92.16
1280.00,92.08
1279.00,91.99
1278.00,91.90
1277.00,91.81
1276.00,91.70
1275.00,91.58
1274.00,91.44
1273.00,91.29
1272.00,91.14
1271.00,90.99
1270.00,90.85
1269.00,90.71
1268.00,90.57
1267.00,90.42
1266.00,90.28
1265.00,90.16
1264.00,90.08
1263.00,90.02
1262.00,90.00
1261.00,89.99
1260.00,89.97
1259.00,89.95
1258.00,89.94
1257.00,89.94
1256.00,89.94
1255.00,89.94
1254.00,89.92
1253.00,89.88
1252.00,89.84
1251.00,89.79
1250.00,89.74
1249.00,89.70
1248.00,89.66
1247.00,89.61
1246.00,89.55
1245.00,89.48
1244.00,89.40
1243.00,89.30
1242.00,89.21
1241.00,89.11
1240.00,89.01
1239.00,88.90
1238.00,88.79
1237.00,88.68
1236.00,88.58
1235.00,88.47
1234.00,88.36
1233.00,88.26
1232.00,88.17
1231.00,88.11
1230.00,88.07
1229.00,88.04
1228.00,88.03
1227.00,88.05
1226.00,88.09
1225.00,88.16
1224.00,88.23
1223.00,88.30
1222.00,88.37
1221.00,88.46
1220.00,88.56
1219.00,88.68
1218.00,88.80
1217.00,88.93
1216.00,89.06
1215.00,89.19
1214.00,89.33
1213.00,89.47
1212.00,89.62
1211.00,89.78
1210.00,89.96
1209.00,90.14
1208.00,90.30
1207.00,90.46
1206.00,90.63
1205.00,90.79
1204.00,90.95
1203.00,91.10
1202.00,91.23
1201.00,91.36
1200.00,91.49
1199.00,91.61
1198.00,91.74
1197.00,91.86
1196.00,91.97
1195.00,92.06
1194.00,92.14
1193.00,92.21
1192.00,92.28
1191.00,92.34
1190.00,92.41
1189.00,92.48
1188.00,92.53
1187.00,92.56
1186.00,92.58
1185.00,92.61
1184.00,92.64
1183.00,92.65
1182.00,92.64
1181.00,92.60
1180.00,92.54
1179.00,92.47
1178.00,92.40
1177.00,92.32
1176.00,92.23
1175.00,92.12
1174.00,92.03
1173.00,91.94
1172.00,91.87
1171.00,91.79
1170.00,91.74
1169.00,91.70
1168.00,91.69
1167.00,91.70
1166.00,91.70
1165.00,91.70
1164.00,91.69
1163.00,91.67
1162.00,91.66
1161.00,91.67
1160.00,91.69
1159.00,91.70
1158.00,91.70
1157.00,91.71
1156.00,91.76
1155.00,91.84
1154.00,91.95
1153.00,92.07
1152.00,92.18
1151.00,92.27
1150.00,92.35
1149.00,92.41
1148.00,92.47
1147.00,92.55
1146.00,92.65
1145.00,92.76
1144.00,92.87
1143.00,92.97
1142.00,93.06
1141.00,93.12
1140.00,93.16
1139.00,93.18
1138.00,93.21
1137.00,93.25
1136.00,93.28
1135.00,93.31
1134.00,93.31
1133.00,93.31
1132.00,93.32
1131.00,93.35
1130.00,93.38
1129.00,93.42
1128.00,93.45
1127.00,93.47
1126.00,93.50
1125.00,93.53
1124.00,93.56
1123.00,93.56
1122.00,93.55
1121.00,93.54
1120.00,93.54
1119.00,93.56
1118.00,93.58
1117.00,93.59
1116.00,93.59
1115.00,93.57
1114.00,93.55
1113.00,93.56
1112.00,93.58
1111.00,93.60
1110.00,93.59
1109.00,93.56
1108.00,93.53
1107.00,93.51
1106.00,93.50
1105.00,93.48
1104.00,93.45
1103.00,93.40
1102.00,93.37
1101.00,93.37
1100.00,93.41
1099.00,93.46
1098.00,93.50
1097.00,93.52
1096.00,93.54
1095.00,93.53
1094.00,93.51
1093.00,93.47
1092.00,93.43
1091.00,93.39
1090.00,93.34
1089.00,93.28
1088.00,93.20
1087.00,93.12
1086.00,93.04
1085.00,92.93
1084.00,92.83
1083.00,92.72
1082.00,92.60
1081.00,92.49
1080.00,92.36
1079.00,92.23
1078.00,92.10
1077.00,91.97
1076.00,91.85
1075.00,91.75
1074.00,91.66
1073.00,91.58
1072.00,91.50
1071.00,91.43
1070.00,91.39
1069.00,91.36
1068.00,91.35
1067.00,91.33
1066.00,91.32
1065.00,91.31
1064.00,91.30
1063.00,91.30
1062.00,91.32
1061.00,91.35
1060.00,91.38
1059.00,91.40
1058.00,91.39
1057.00,91.40
1056.00,91.44
1055.00,91.51
1054.00,91.60
1053.00,91.66
1052.00,91.71
1051.00,91.75
1050.00,91.79
1049.00,91.82
1048.00,91.85
1047.00,91.86
1046.00,91.88
1045.00,91.91
1044.00,91.95
1043.00,91.99
1042.00,92.02
1041.00,92.05
1040.00,92.06
1039.00,92.06
1038.00,92.09
1037.00,92.16
1036.00,92.24
1035.00,92.34
1034.00,92.43
1033.00,92.52
1032.00,92.60
1031.00,92.66
1030.00,92.72
1029.00,92.77
1028.00,92.82
1027.00,92.88
1026.00,92.93
1025.00,92.99
1024.00,93.03
1023.00,93.05
1022.00,93.06
1021.00,93.05
1020.00,93.04
1019.00,93.01
1018.00,92.98
1017.00,92.95
1016.00,92.93
1015.00,92.92
1014.00,92.92
1013.00,92.94
1012.00,92.96
1011.00,92.97
1010.00,92.97
1009.00,92.96
1008.00,92.93
1007.00,92.90
1006.00,92.87
1005.00,92.84
1004.00,92.80
1003.00,92.75
1002.00,92.69
1001.00,92.63
1000.00,92.59
999.00,92.56
998.00,92.55
997.00,92.54
996.00,92.54
995.00,92.55
994.00,92.57
993.00,92.61
992.00,92.68
991.00,92.78
990.00,92.89
989.00,93.00
988.00,93.11
987.00,93.21
986.00,93.26
985.00,93.27
984.00,93.25
983.00,93.19
982.00,93.14
981.00,93.08
980.00,93.03
979.00,92.97
978.00,92.90
977.00,92.83
976.00,92.78
975.00,92.76
974.00,92.76
973.00,92.79
972.00,92.84
971.00,92.91
970.00,92.98
969.00,93.05
968.00,93.11
967.00,93.18
966.00,93.26
965.00,93.35
964.00,93.42
963.00,93.49
962.00,93.53
961.00,93.56
960.00,93.58
959.00,93.61
958.00,93.65
957.00,93.69
956.00,93.73
955.00,93.77
954.00,93.80
953.00,93.84
952.00,93.85
951.00,93.85
950.00,93.85
949.00,93.85
948.00,93.85
947.00,93.86
946.00,93.87
945.00,93.88
944.00,93.89
943.00,93.91
942.00,93.93
941.00,93.94
940.00,93.92
939.00,93.90
938.00,93.88
937.00,93.88
936.00,93.90
935.00,93.90
934.00,93.89
933.00,93.88
932.00,93.88
931.00,93.87
930.00,93.86
929.00,93.84
928.00,93.85
927.00,93.88
926.00,93.91
925.00,93.94
924.00,93.95
923.00,93.98
922.00,94.03
921.00,94.08
920.00,94.12
919.00,94.15
918.00,94.17
917.00,94.21
916.00,94.28
915.00,94.35
914.00,94.41
913.00,94.44
912.00,94.43
911.00,94.42
910.00,94.42
909.00,94.44
908.00,94.47
907.00,94.50
906.00,94.51
905.00,94.53
904.00,94.55
903.00,94.57
902.00,94.60
901.00,94.61
900.00,94.59
899.00,94.57
898.00,94.54
897.00,94.50
896.00,94.47
895.00,94.47
894.00,94.49
893.00,94.51
892.00,94.53
891.00,94.53
890.00,94.53
889.00,94.53
888.00,94.54
887.00,94.53
886.00,94.52
885.00,94.51
884.00,94.49
883.00,94.47
882.00,94.46
881.00,94.47
880.00,94.48
879.00,94.49
878.00,94.48
877.00,94.47
876.00,94.48
875.00,94.50
874.00,94.53
873.00,94.54
872.00,94.54
871.00,94.53
870.00,94.54
869.00,94.57
868.00,94.60
867.00,94.59
866.00,94.56
865.00,94.52
864.00,94.49
863.00,94.45
862.00,94.41
861.00,94.38
860.00,94.35
859.00,94.33
858.00,94.29
857.00,94.23
856.00,94.17
855.00,94.10
854.00,94.03
853.00,93.98
852.00,93.95
851.00,93.92
850.00,93.90
849.00,93.89
848.00,93.90
847.00,93.92
846.00,93.95
845.00,93.99
844.00,94.02
843.00,94.03
842.00,94.01
841.00,93.98
840.00,93.94
839.00,93.91
838.00,93.87
837.00,93.81
836.00,93.74
835.00,93.67
834.00,93.61
833.00,93.55
832.00,93.49
831.00,93.41
830.00,93.35
829.00,93.30
828.00,93.27
827.00,93.27
826.00,93.27
825.00,93.27
824.00,93.27
823.00,93.29
822.00,93.32
821.00,93.35
820.00,93.37
819.00,93.38
818.00,93.38
817.00,93.36
816.00,93.34
815.00,93.30
814.00,93.27
813.00,93.24
812.00,93.23
811.00,93.22
810.00,93.23
809.00,93.24
808.00,93.26
807.00,93.27
806.00,93.25
805.00,93.22
804.00,93.18
803.00,93.17
802.00,93.17
801.00,93.18
800.00,93.18
799.00,93.16
798.00,93.15
797.00,93.13
796.00,93.12
795.00,93.09
794.00,93.03
793.00,92.94
792.00,92.87
791.00,92.83
790.00,92.82
789.00,92.82
788.00,92.80
787.00,92.75
786.00,92.68
785.00,92.62
784.00,92.56
783.00,92.51
782.00,92.46
781.00,92.41
780.00,92.37
779.00,92.32
778.00,92.28
777.00,92.23
776.00,92.17
775.00,92.12
774.00,92.06
773.00,91.98
772.00,91.88
771.00,91.76
770.00,91.66
769.00,91.58
768.00,91.51
767.00,91.44
766.00,91.36
765.00,91.30
764.00,91.27
763.00,91.26
762.00,91.24
761.00,91.21
760.00,91.17
759.00,91.12
758.00,91.08
757.00,91.05
756.00,91.00
755.00,90.91
754.00,90.80
753.00,90.69
752.00,90.60
751.00,90.52
750.00,90.45
749.00,90.37
748.00,90.29
747.00,90.20
746.00,90.11
745.00,90.01
744.00,89.88
743.00,89.74
742.00,89.61
741.00,89.48
740.00,89.35
739.00,89.21
738.00,89.07
737.00,88.96
736.00,88.85
735.00,88.72
734.00,88.55
733.00,88.34
732.00,88.15
731.00,88.02
730.00,87.92
729.00,87.81
728.00,87.66
727.00,87.48
726.00,87.30
725.00,87.16
724.00,87.05
723.00,86.97
722.00,86.89
721.00,86.81
720.00,86.71
719.00,86.61
718.00,86.50
717.00,86.38
716.00,86.25
715.00,86.15
714.00,86.07
713.00,86.00
712.00,85.92
711.00,85.82
710.00,85.71
709.00,85.59
708.00,85.49
707.00,85.40
706.00,85.32
705.00,85.21
704.00,85.09
703.00,84.97
702.00,84.84
701.00,84.68
700.00,84.52
699.00,84.37
698.00,84.26
697.00,84.18
696.00,84.12
695.00,84.09
694.00,84.07
693.00,84.03
692.00,83.95
691.00,83.87
690.00,83.82
689.00,83.81
688.00,83.80
687.00,83.79
686.00,83.74
685.00,83.68
684.00,83.62
683.00,83.57
682.00,83.54
681.00,83.49
680.00,83.46
679.00,83.47
678.00,83.51
677.00,83.53
676.00,83.52
675.00,83.46
674.00,83.39
673.00,83.34
672.00,83.32
671.00,83.37
670.00,83.44
669.00,83.49
668.00,83.44
667.00,83.31
666.00,83.25
665.00,83.27
664.00,83.27
663.00,83.21
662.00,83.10
661.00,83.00
660.00,82.93
659.00,82.89
658.00,82.88
657.00,82.85
656.00,82.82
655.00,82.77
654.00,82.68
653.00,82.55
652.00,82.43
651.00,82.37
650.00,82.35
649.00,82.29
648.00,82.17
647.00,82.07
646.00,82.03
645.00,82.03
644.00,82.03
643.00,82.05
642.00,82.08
641.00,82.09
640.00,82.05
639.00,82.00
638.00,81.93
637.00,81.80
636.00,81.63
635.00,81.50
634.00,81.45
633.00,81.44
632.00,81.44
631.00,81.44
630.00,81.44
629.00,81.35
628.00,81.18
627.00,81.04
626.00,81.01
625.00,81.08
624.00,81.15
623.00,81.19
622.00,81.16
621.00,80.96
620.00,80.63
619.00,80.31
618.00,80.10
617.00,79.94
616.00,79.83
615.00,79.90
614.00,80.16
613.00,80.41
612.00,80.48
611.00,80.38
610.00,80.24
609.00,80.10
608.00,80.02
607.00,80.11
606.00,80.38
605.00,80.65
604.00,80.82
603.00,80.98
602.00,81.22
601.00,81.46
600.00,81.54
599.00,81.44
598.00,81.26
597.00,81.03
596.00,80.82
595.00,80.72
594.00,80.84
593.00,81.13
592.00,81.43
591.00,81.59
590.00,81.58
589.00,81.40
588.00,81.23
587.00,81.24
586.00,81.46
585.00,81.75
584.00,81.95
583.00,81.99
582.00,81.79
581.00,81.27
580.00,80.66
579.00,80.44
578.00,80.71
577.00,80.95
576.00,80.70
575.00,80.27
574.00,80.33
573.00,81.01
572.00,81.83
571.00,82.26
570.00,82.06
569.00,81.38
568.00,80.66
567.00,80.32
566.00,80.30
565.00,80.18
564.00,79.84
563.00,79.71
562.00,80.13
561.00,80.81
560.00,81.15
559.00,80.89
558.00,80.19
557.00,79.30
556.00,78.46
555.00,77.92
554.00,77.62
553.00,77.22
552.00,76.51
551.00,75.91
550.00,75.80
