Created as New Dataset,16.4 Dyed (red colour)
cm-1,%T
4000.00,99.29
3999.00,99.30
3998.00,99.30
3997.00,99.31
3996.00,99.31
3995.00,99.31
3994.00,99.31
3993.00,99.29
3992.00,99.27
3991.00,99.26
3990.00,99.27
3989.00,99.29
3988.00,99.31
3987.00,99.33
3986.00,99.33
3985.00,99.31
3984.00,99.29
3983.00,99.27
3982.00,99.26
3981.00,99.26
3980.00,99.26
3979.00,99.27
3978.00,99.28
3977.00,99.28
3976.00,99.28
3975.00,99.27
3974.00,99.27
3973.00,99.26
3972.00,99.25
3971.00,99.25
3970.00,99.25
3969.00,99.25
3968.00,99.26
3967.00,99.27
3966.00,99.28
3965.00,99.29
3964.00,99.31
3963.00,99.32
3962.00,99.33
3961.00,99.33
3960.00,99.34
3959.00,99.34
3958.00,99.35
3957.00,99.35
3956.00,99.35
3955.00,99.35
3954.00,99.34
3953.00,99.34
3952.00,99.32
3951.00,99.31
3950.00,99.29
3949.00,99.27
3948.00,99.27
3947.00,99.27
3946.00,99.29
3945.00,99.31
3944.00,99.32
3943.00,99.32
3942.00,99.32
3941.00,99.31
3940.00,99.31
3939.00,99.31
3938.00,99.31
3937.00,99.31
3936.00,99.32
3935.00,99.33
3934.00,99.35
3933.00,99.36
3932.00,99.37
3931.00,99.37
3930.00,99.37
3929.00,99.37
3928.00,99.36
3927.00,99.35
3926.00,99.34
3925.00,99.34
3924.00,99.34
3923.00,99.34
3922.00,99.35
3921.00,99.34
3920.00,99.34
3919.00,99.33
3918.00,99.33
3917.00,99.33
3916.00,99.33
3915.00,99.32
3914.00,99.32
3913.00,99.30
3912.00,99.30
3911.00,99.29
3910.00,99.28
3909.00,99.28
3908.00,99.28
3907.00,99.30
3906.00,99.34
3905.00,99.38
3904.00,99.41
3903.00,99.44
3902.00,99.45
3901.00,99.46
3900.00,99.46
3899.00,99.46
3898.00,99.46
3897.00,99.45
3896.00,99.43
3895.00,99.41
3894.00,99.39
3893.00,99.38
3892.00,99.38
3891.00,99.39
3890.00,99.41
3889.00,99.43
3888.00,99.45
3887.00,99.45
3886.00,99.43
3885.00,99.40
3884.00,99.38
3883.00,99.37
3882.00,99.38
3881.00,99.40
3880.00,99.41
3879.00,99.42
3878.00,99.42
3877.00,99.43
3876.00,99.44
3875.00,99.43
3874.00,99.41
3873.00,99.40
3872.00,99.40
3871.00,99.41
3870.00,99.42
3869.00,99.41
3868.00,99.40
3867.00,99.40
3866.00,99.39
3865.00,99.39
3864.00,99.38
3863.00,99.37
3862.00,99.38
3861.00,99.39
3860.00,99.39
3859.00,99.39
3858.00,99.38
3857.00,99.40
3856.00,99.44
3855.00,99.49
3854.00,99.51
3853.00,99.51
3852.00,99.51
3851.00,99.52
3850.00,99.50
3849.00,99.46
3848.00,99.40
3847.00,99.35
3846.00,99.31
3845.00,99.29
3844.00,99.29
3843.00,99.31
3842.00,99.35
3841.00,99.40
3840.00,99.44
3839.00,99.46
3838.00,99.45
3837.00,99.45
3836.00,99.45
3835.00,99.44
3834.00,99.43
3833.00,99.40
3832.00,99.37
3831.00,99.35
3830.00,99.35
3829.00,99.35
3828.00,99.35
3827.00,99.36
3826.00,99.36
3825.00,99.36
3824.00,99.36
3823.00,99.36
3822.00,99.34
3821.00,99.33
3820.00,99.34
3819.00,99.39
3818.00,99.45
3817.00,99.48
3816.00,99.46
3815.00,99.39
3814.00,99.32
3813.00,99.28
3812.00,99.28
3811.00,99.30
3810.00,99.32
3809.00,99.34
3808.00,99.33
3807.00,99.31
3806.00,99.29
3805.00,99.30
3804.00,99.32
3803.00,99.34
3802.00,99.34
3801.00,99.33
3800.00,99.33
3799.00,99.34
3798.00,99.35
3797.00,99.36
3796.00,99.35
3795.00,99.33
3794.00,99.30
3793.00,99.27
3792.00,99.25
3791.00,99.23
3790.00,99.21
3789.00,99.21
3788.00,99.21
3787.00,99.21
3786.00,99.22
3785.00,99.21
3784.00,99.21
3783.00,99.21
3782.00,99.22
3781.00,99.22
3780.00,99.22
3779.00,99.20
3778.00,99.19
3777.00,99.19
3776.00,99.20
3775.00,99.21
3774.00,99.21
3773.00,99.21
3772.00,99.22
3771.00,99.24
3770.00,99.25
3769.00,99.25
3768.00,99.25
3767.00,99.25
3766.00,99.24
3765.00,99.24
3764.00,99.24
3763.00,99.25
3762.00,99.26
3761.00,99.27
3760.00,99.25
3759.00,99.23
3758.00,99.21
3757.00,99.21
3756.00,99.23
3755.00,99.27
3754.00,99.31
3753.00,99.34
3752.00,99.33
3751.00,99.29
3750.00,99.27
3749.00,99.28
3748.00,99.30
3747.00,99.30
3746.00,99.29
3745.00,99.27
3744.00,99.27
3743.00,99.29
3742.00,99.32
3741.00,99.33
3740.00,99.31
3739.00,99.29
3738.00,99.28
3737.00,99.30
3736.00,99.32
3735.00,99.33
3734.00,99.33
3733.00,99.33
3732.00,99.32
3731.00,99.31
3730.00,99.30
3729.00,99.30
3728.00,99.30
3727.00,99.30
3726.00,99.29
3725.00,99.28
3724.00,99.27
3723.00,99.26
3722.00,99.26
3721.00,99.25
3720.00,99.24
3719.00,99.23
3718.00,99.22
3717.00,99.20
3716.00,99.19
3715.00,99.19
3714.00,99.21
3713.00,99.23
3712.00,99.22
3711.00,99.20
3710.00,99.18
3709.00,99.18
3708.00,99.19
3707.00,99.20
3706.00,99.20
3705.00,99.18
3704.00,99.15
3703.00,99.12
3702.00,99.09
3701.00,99.08
3700.00,99.09
3699.00,99.11
3698.00,99.13
3697.00,99.14
3696.00,99.14
3695.00,99.13
3694.00,99.14
3693.00,99.14
3692.00,99.14
3691.00,99.13
3690.00,99.11
3689.00,99.08
3688.00,99.07
3687.00,99.06
3686.00,99.05
3685.00,99.04
3684.00,99.02
3683.00,99.02
3682.00,99.03
3681.00,99.04
3680.00,99.06
3679.00,99.07
3678.00,99.07
3677.00,99.05
3676.00,99.01
3675.00,98.96
3674.00,98.94
3673.00,98.96
3672.00,98.99
3671.00,99.02
3670.00,99.03
3669.00,99.02
3668.00,98.99
3667.00,98.97
3666.00,98.95
3665.00,98.92
3664.00,98.89
3663.00,98.87
3662.00,98.86
3661.00,98.86
3660.00,98.87
3659.00,98.88
3658.00,98.88
3657.00,98.86
3656.00,98.84
3655.00,98.82
3654.00,98.83
3653.00,98.85
3652.00,98.88
3651.00,98.88
3650.00,98.85
3649.00,98.81
3648.00,98.78
3647.00,98.77
3646.00,98.78
3645.00,98.77
3644.00,98.74
3643.00,98.71
3642.00,98.68
3641.00,98.65
3640.00,98.64
3639.00,98.64
3638.00,98.65
3637.00,98.66
3636.00,98.65
3635.00,98.62
3634.00,98.59
3633.00,98.58
3632.00,98.59
3631.00,98.61
3630.00,98.61
3629.00,98.57
3628.00,98.52
3627.00,98.49
3626.00,98.49
3625.00,98.50
3624.00,98.52
3623.00,98.53
3622.00,98.54
3621.00,98.54
3620.00,98.53
3619.00,98.51
3618.00,98.49
3617.00,98.47
3616.00,98.45
3615.00,98.43
3614.00,98.40
3613.00,98.39
3612.00,98.37
3611.00,98.36
3610.00,98.34
3609.00,98.31
3608.00,98.27
3607.00,98.24
3606.00,98.21
3605.00,98.19
3604.00,98.17
3603.00,98.15
3602.00,98.14
3601.00,98.13
3600.00,98.14
3599.00,98.14
3598.00,98.13
3597.00,98.12
3596.00,98.10
3595.00,98.10
3594.00,98.08
3593.00,98.06
3592.00,98.04
3591.00,98.02
3590.00,98.01
3589.00,98.01
3588.00,97.99
3587.00,97.96
3586.00,97.94
3585.00,97.92
3584.00,97.91
3583.00,97.90
3582.00,97.88
3581.00,97.85
3580.00,97.83
3579.00,97.80
3578.00,97.77
3577.00,97.75
3576.00,97.73
3575.00,97.71
3574.00,97.70
3573.00,97.69
3572.00,97.68
3571.00,97.68
3570.00,97.69
3569.00,97.69
3568.00,97.68
3567.00,97.66
3566.00,97.64
3565.00,97.62
3564.00,97.60
3563.00,97.56
3562.00,97.50
3561.00,97.45
3560.00,97.42
3559.00,97.42
3558.00,97.42
3557.00,97.41
3556.00,97.38
3555.00,97.34
3554.00,97.31
3553.00,97.30
3552.00,97.30
3551.00,97.32
3550.00,97.33
3549.00,97.33
3548.00,97.29
3547.00,97.24
3546.00,97.19
3545.00,97.16
3544.00,97.15
3543.00,97.15
3542.00,97.15
3541.00,97.13
3540.00,97.09
3539.00,97.05
3538.00,97.01
3537.00,96.98
3536.00,96.96
3535.00,96.94
3534.00,96.91
3533.00,96.88
3532.00,96.85
3531.00,96.82
3530.00,96.80
3529.00,96.79
3528.00,96.79
3527.00,96.80
3526.00,96.82
3525.00,96.83
3524.00,96.82
3523.00,96.81
3522.00,96.78
3521.00,96.76
3520.00,96.74
3519.00,96.72
3518.00,96.68
3517.00,96.65
3516.00,96.62
3515.00,96.60
3514.00,96.59
3513.00,96.60
3512.00,96.62
3511.00,96.63
3510.00,96.63
3509.00,96.62
3508.00,96.60
3507.00,96.58
3506.00,96.55
3505.00,96.51
3504.00,96.47
3503.00,96.43
3502.00,96.41
3501.00,96.39
3500.00,96.37
3499.00,96.36
3498.00,96.35
3497.00,96.36
3496.00,96.36
3495.00,96.34
3494.00,96.32
3493.00,96.30
3492.00,96.29
3491.00,96.30
3490.00,96.31
3489.00,96.31
3488.00,96.30
3487.00,96.28
3486.00,96.27
3485.00,96.25
3484.00,96.24
3483.00,96.22
3482.00,96.20
3481.00,96.17
3480.00,96.14
3479.00,96.11
3478.00,96.10
3477.00,96.09
3476.00,96.08
3475.00,96.07
3474.00,96.06
3473.00,96.04
3472.00,96.02
3471.00,96.00
3470.00,95.98
3469.00,95.97
3468.00,95.97
3467.00,95.98
3466.00,95.98
3465.00,95.98
3464.00,95.97
3463.00,95.94
3462.00,95.91
3461.00,95.88
3460.00,95.88
3459.00,95.89
3458.00,95.91
3457.00,95.91
3456.00,95.89
3455.00,95.85
3454.00,95.81
3453.00,95.77
3452.00,95.75
3451.00,95.75
3450.00,95.77
3449.00,95.80
3448.00,95.82
3447.00,95.80
3446.00,95.76
3445.00,95.72
3444.00,95.69
3443.00,95.68
3442.00,95.67
3441.00,95.67
3440.00,95.66
3439.00,95.65
3438.00,95.63
3437.00,95.60
3436.00,95.57
3435.00,95.55
3434.00,95.54
3433.00,95.53
3432.00,95.51
3431.00,95.49
3430.00,95.47
3429.00,95.45
3428.00,95.43
3427.00,95.41
3426.00,95.39
3425.00,95.38
3424.00,95.38
3423.00,95.38
3422.00,95.39
3421.00,95.40
3420.00,95.40
3419.00,95.38
3418.00,95.33
3417.00,95.28
3416.00,95.25
3415.00,95.23
3414.00,95.23
3413.00,95.22
3412.00,95.20
3411.00,95.18
3410.00,95.15
3409.00,95.13
3408.00,95.11
3407.00,95.10
3406.00,95.07
3405.00,95.04
3404.00,95.00
3403.00,94.97
3402.00,94.94
3401.00,94.91
3400.00,94.88
3399.00,94.85
3398.00,94.82
3397.00,94.80
3396.00,94.78
3395.00,94.76
3394.00,94.76
3393.00,94.76
3392.00,94.76
3391.00,94.76
3390.00,94.75
3389.00,94.74
3388.00,94.71
3387.00,94.69
3386.00,94.67
3385.00,94.66
3384.00,94.64
3383.00,94.62
3382.00,94.59
3381.00,94.55
3380.00,94.52
3379.00,94.48
3378.00,94.46
3377.00,94.43
3376.00,94.41
3375.00,94.39
3374.00,94.38
3373.00,94.37
3372.00,94.37
3371.00,94.37
3370.00,94.36
3369.00,94.34
3368.00,94.30
3367.00,94.25
3366.00,94.21
3365.00,94.17
3364.00,94.15
3363.00,94.15
3362.00,94.14
3361.00,94.13
3360.00,94.09
3359.00,94.04
3358.00,93.99
3357.00,93.95
3356.00,93.91
3355.00,93.87
3354.00,93.82
3353.00,93.76
3352.00,93.70
3351.00,93.65
3350.00,93.62
3349.00,93.58
3348.00,93.55
3347.00,93.50
3346.00,93.45
3345.00,93.39
3344.00,93.35
3343.00,93.31
3342.00,93.28
3341.00,93.23
3340.00,93.17
3339.00,93.10
3338.00,93.02
3337.00,92.96
3336.00,92.89
3335.00,92.83
3334.00,92.77
3333.00,92.71
3332.00,92.64
3331.00,92.56
3330.00,92.46
3329.00,92.36
3328.00,92.27
3327.00,92.18
3326.00,92.11
3325.00,92.04
3324.00,91.97
3323.00,91.89
3322.00,91.79
3321.00,91.70
3320.00,91.61
3319.00,91.51
3318.00,91.40
3317.00,91.28
3316.00,91.17
3315.00,91.07
3314.00,90.97
3313.00,90.88
3312.00,90.78
3311.00,90.68
3310.00,90.56
3309.00,90.44
3308.00,90.31
3307.00,90.19
3306.00,90.08
3305.00,90.00
3304.00,89.92
3303.00,89.83
3302.00,89.73
3301.00,89.61
3300.00,89.49
3299.00,89.38
3298.00,89.28
3297.00,89.19
3296.00,89.09
3295.00,88.98
3294.00,88.87
3293.00,88.77
3292.00,88.68
3291.00,88.61
3290.00,88.54
3289.00,88.46
3288.00,88.38
3287.00,88.32
3286.00,88.29
3285.00,88.28
3284.00,88.26
3283.00,88.23
3282.00,88.19
3281.00,88.16
3280.00,88.14
3279.00,88.13
3278.00,88.13
3277.00,88.14
3276.00,88.16
3275.00,88.19
3274.00,88.25
3273.00,88.31
3272.00,88.38
3271.00,88.44
3270.00,88.51
3269.00,88.58
3268.00,88.65
3267.00,88.72
3266.00,88.79
3265.00,88.86
3264.00,88.94
3263.00,89.03
3262.00,89.12
3261.00,89.21
3260.00,89.29
3259.00,89.38
3258.00,89.46
3257.00,89.53
3256.00,89.60
3255.00,89.68
3254.00,89.76
3253.00,89.85
3252.00,89.92
3251.00,89.99
3250.00,90.05
3249.00,90.12
3248.00,90.20
3247.00,90.28
3246.00,90.37
3245.00,90.45
3244.00,90.52
3243.00,90.58
3242.00,90.63
3241.00,90.69
3240.00,90.75
3239.00,90.81
3238.00,90.86
3237.00,90.92
3236.00,90.98
3235.00,91.05
3234.00,91.12
3233.00,91.17
3232.00,91.22
3231.00,91.26
3230.00,91.30
3229.00,91.35
3228.00,91.39
3227.00,91.45
3226.00,91.51
3225.00,91.56
3224.00,91.60
3223.00,91.65
3222.00,91.71
3221.00,91.78
3220.00,91.84
3219.00,91.88
3218.00,91.92
3217.00,91.96
3216.00,92.00
3215.00,92.05
3214.00,92.09
3213.00,92.12
3212.00,92.16
3211.00,92.19
3210.00,92.23
3209.00,92.27
3208.00,92.30
3207.00,92.33
3206.00,92.37
3205.00,92.40
3204.00,92.45
3203.00,92.50
3202.00,92.54
3201.00,92.59
3200.00,92.63
3199.00,92.68
3198.00,92.73
3197.00,92.78
3196.00,92.82
3195.00,92.87
3194.00,92.92
3193.00,92.97
3192.00,93.02
3191.00,93.06
3190.00,93.09
3189.00,93.11
3188.00,93.14
3187.00,93.17
3186.00,93.21
3185.00,93.27
3184.00,93.33
3183.00,93.38
3182.00,93.43
3181.00,93.47
3180.00,93.49
3179.00,93.51
3178.00,93.54
3177.00,93.56
3176.00,93.59
3175.00,93.64
3174.00,93.69
3173.00,93.74
3172.00,93.79
3171.00,93.82
3170.00,93.84
3169.00,93.85
3168.00,93.87
3167.00,93.89
3166.00,93.94
3165.00,94.00
3164.00,94.05
3163.00,94.09
3162.00,94.12
3161.00,94.16
3160.00,94.19
3159.00,94.21
3158.00,94.23
3157.00,94.23
3156.00,94.25
3155.00,94.27
3154.00,94.30
3153.00,94.33
3152.00,94.37
3151.00,94.41
3150.00,94.44
3149.00,94.47
3148.00,94.50
3147.00,94.53
3146.00,94.56
3145.00,94.58
3144.00,94.60
3143.00,94.63
3142.00,94.65
3141.00,94.66
3140.00,94.67
3139.00,94.68
3138.00,94.69
3137.00,94.71
3136.00,94.73
3135.00,94.74
3134.00,94.75
3133.00,94.76
3132.00,94.75
3131.00,94.75
3130.00,94.75
3129.00,94.76
3128.00,94.78
3127.00,94.80
3126.00,94.82
3125.00,94.84
3124.00,94.86
3123.00,94.87
3122.00,94.87
3121.00,94.87
3120.00,94.85
3119.00,94.83
3118.00,94.82
3117.00,94.83
3116.00,94.84
3115.00,94.85
3114.00,94.85
3113.00,94.84
3112.00,94.82
3111.00,94.81
3110.00,94.81
3109.00,94.80
3108.00,94.80
3107.00,94.80
3106.00,94.79
3105.00,94.80
3104.00,94.80
3103.00,94.81
3102.00,94.81
3101.00,94.80
3100.00,94.77
3099.00,94.74
3098.00,94.73
3097.00,94.72
3096.00,94.71
3095.00,94.70
3094.00,94.67
3093.00,94.65
3092.00,94.62
3091.00,94.61
3090.00,94.61
3089.00,94.62
3088.00,94.63
3087.00,94.62
3086.00,94.59
3085.00,94.57
3084.00,94.57
3083.00,94.57
3082.00,94.57
3081.00,94.56
3080.00,94.55
3079.00,94.54
3078.00,94.53
3077.00,94.53
3076.00,94.52
3075.00,94.51
3074.00,94.50
3073.00,94.50
3072.00,94.51
3071.00,94.53
3070.00,94.55
3069.00,94.56
3068.00,94.56
3067.00,94.56
3066.00,94.55
3065.00,94.57
3064.00,94.59
3063.00,94.62
3062.00,94.64
3061.00,94.66
3060.00,94.67
3059.00,94.69
3058.00,94.71
3057.00,94.73
3056.00,94.75
3055.00,94.78
3054.00,94.80
3053.00,94.83
3052.00,94.87
3051.00,94.90
3050.00,94.93
3049.00,94.96
3048.00,94.99
3047.00,95.02
3046.00,95.04
3045.00,95.06
3044.00,95.08
3043.00,95.12
3042.00,95.17
3041.00,95.23
3040.00,95.27
3039.00,95.30
3038.00,95.31
3037.00,95.31
3036.00,95.32
3035.00,95.33
3034.00,95.35
3033.00,95.38
3032.00,95.40
3031.00,95.42
3030.00,95.44
3029.00,95.45
3028.00,95.47
3027.00,95.48
3026.00,95.49
3025.00,95.50
3024.00,95.52
3023.00,95.54
3022.00,95.56
3021.00,95.59
3020.00,95.61
3019.00,95.63
3018.00,95.64
3017.00,95.65
3016.00,95.66
3015.00,95.68
3014.00,95.69
3013.00,95.70
3012.00,95.71
3011.00,95.71
3010.00,95.72
3009.00,95.72
3008.00,95.72
3007.00,95.72
3006.00,95.71
3005.00,95.70
3004.00,95.69
3003.00,95.67
3002.00,95.64
3001.00,95.61
3000.00,95.58
2999.00,95.57
2998.00,95.57
2997.00,95.58
2996.00,95.58
2995.00,95.57
2994.00,95.56
2993.00,95.54
2992.00,95.52
2991.00,95.48
2990.00,95.44
2989.00,95.41
2988.00,95.39
2987.00,95.36
2986.00,95.34
2985.00,95.32
2984.00,95.30
2983.00,95.29
2982.00,95.27
2981.00,95.26
2980.00,95.25
2979.00,95.25
2978.00,95.25
2977.00,95.26
2976.00,95.26
2975.00,95.26
2974.00,95.24
2973.00,95.23
2972.00,95.21
2971.00,95.21
2970.00,95.21
2969.00,95.22
2968.00,95.23
2967.00,95.24
2966.00,95.26
2965.00,95.28
2964.00,95.28
2963.00,95.28
2962.00,95.28
2961.00,95.29
2960.00,95.30
2959.00,95.32
2958.00,95.33
2957.00,95.33
2956.00,95.31
2955.00,95.29
2954.00,95.27
2953.00,95.26
2952.00,95.24
2951.00,95.23
2950.00,95.23
2949.00,95.23
2948.00,95.23
2947.00,95.22
2946.00,95.20
2945.00,95.16
2944.00,95.13
2943.00,95.10
2942.00,95.07
2941.00,95.03
2940.00,94.98
2939.00,94.93
2938.00,94.90
2937.00,94.88
2936.00,94.86
2935.00,94.83
2934.00,94.79
2933.00,94.74
2932.00,94.72
2931.00,94.71
2930.00,94.70
2929.00,94.69
2928.00,94.68
2927.00,94.67
2926.00,94.66
2925.00,94.65
2924.00,94.63
2923.00,94.62
2922.00,94.62
2921.00,94.62
2920.00,94.63
2919.00,94.65
2918.00,94.68
2917.00,94.73
2916.00,94.79
2915.00,94.87
2914.00,94.95
2913.00,95.02
2912.00,95.10
2911.00,95.17
2910.00,95.23
2909.00,95.29
2908.00,95.34
2907.00,95.39
2906.00,95.43
2905.00,95.45
2904.00,95.47
2903.00,95.47
2902.00,95.48
2901.00,95.50
2900.00,95.53
2899.00,95.56
2898.00,95.58
2897.00,95.61
2896.00,95.64
2895.00,95.65
2894.00,95.67
2893.00,95.68
2892.00,95.69
2891.00,95.69
2890.00,95.69
2889.00,95.69
2888.00,95.70
2887.00,95.72
2886.00,95.74
2885.00,95.76
2884.00,95.75
2883.00,95.74
2882.00,95.73
2881.00,95.73
2880.00,95.73
2879.00,95.72
2878.00,95.71
2877.00,95.69
2876.00,95.69
2875.00,95.69
2874.00,95.71
2873.00,95.72
2872.00,95.73
2871.00,95.74
2870.00,95.75
2869.00,95.76
2868.00,95.78
2867.00,95.81
2866.00,95.84
2865.00,95.87
2864.00,95.88
2863.00,95.89
2862.00,95.88
2861.00,95.88
2860.00,95.88
2859.00,95.88
2858.00,95.89
2857.00,95.89
2856.00,95.89
2855.00,95.88
2854.00,95.86
2853.00,95.83
2852.00,95.81
2851.00,95.78
2850.00,95.78
2849.00,95.79
2848.00,95.83
2847.00,95.89
2846.00,95.97
2845.00,96.06
2844.00,96.15
2843.00,96.22
2842.00,96.27
2841.00,96.31
2840.00,96.34
2839.00,96.36
2838.00,96.38
2837.00,96.39
2836.00,96.39
2835.00,96.39
2834.00,96.40
2833.00,96.41
2832.00,96.42
2831.00,96.44
2830.00,96.46
2829.00,96.48
2828.00,96.49
2827.00,96.51
2826.00,96.51
2825.00,96.51
2824.00,96.51
2823.00,96.50
2822.00,96.50
2821.00,96.50
2820.00,96.52
2819.00,96.53
2818.00,96.54
2817.00,96.55
2816.00,96.56
2815.00,96.57
2814.00,96.59
2813.00,96.58
2812.00,96.57
2811.00,96.56
2810.00,96.56
2809.00,96.56
2808.00,96.57
2807.00,96.57
2806.00,96.57
2805.00,96.58
2804.00,96.58
2803.00,96.59
2802.00,96.61
2801.00,96.64
2800.00,96.66
2799.00,96.67
2798.00,96.66
2797.00,96.65
2796.00,96.64
2795.00,96.64
2794.00,96.65
2793.00,96.66
2792.00,96.66
2791.00,96.66
2790.00,96.66
2789.00,96.65
2788.00,96.65
2787.00,96.67
2786.00,96.68
2785.00,96.68
2784.00,96.69
2783.00,96.69
2782.00,96.69
2781.00,96.70
2780.00,96.71
2779.00,96.72
2778.00,96.72
2777.00,96.72
2776.00,96.72
2775.00,96.73
2774.00,96.73
2773.00,96.74
2772.00,96.74
2771.00,96.75
2770.00,96.77
2769.00,96.79
2768.00,96.80
2767.00,96.81
2766.00,96.82
2765.00,96.83
2764.00,96.84
2763.00,96.86
2762.00,96.86
2761.00,96.86
2760.00,96.85
2759.00,96.85
2758.00,96.86
2757.00,96.87
2756.00,96.89
2755.00,96.90
2754.00,96.90
2753.00,96.89
2752.00,96.89
2751.00,96.89
2750.00,96.90
2749.00,96.91
2748.00,96.91
2747.00,96.92
2746.00,96.92
2745.00,96.93
2744.00,96.93
2743.00,96.93
2742.00,96.92
2741.00,96.93
2740.00,96.94
2739.00,96.95
2738.00,96.96
2737.00,96.96
2736.00,96.97
2735.00,96.97
2734.00,96.97
2733.00,96.96
2732.00,96.95
2731.00,96.96
2730.00,96.97
2729.00,96.99
2728.00,97.00
2727.00,97.00
2726.00,96.99
2725.00,96.99
2724.00,96.99
2723.00,96.99
2722.00,97.00
2721.00,97.01
2720.00,97.03
2719.00,97.04
2718.00,97.06
2717.00,97.07
2716.00,97.08
2715.00,97.09
2714.00,97.09
2713.00,97.09
2712.00,97.09
2711.00,97.09
2710.00,97.08
2709.00,97.08
2708.00,97.08
2707.00,97.09
2706.00,97.10
2705.00,97.11
2704.00,97.13
2703.00,97.13
2702.00,97.13
2701.00,97.13
2700.00,97.13
2699.00,97.14
2698.00,97.15
2697.00,97.15
2696.00,97.14
2695.00,97.13
2694.00,97.14
2693.00,97.14
2692.00,97.15
2691.00,97.15
2690.00,97.15
2689.00,97.13
2688.00,97.12
2687.00,97.11
2686.00,97.10
2685.00,97.11
2684.00,97.12
2683.00,97.14
2682.00,97.16
2681.00,97.18
2680.00,97.20
2679.00,97.20
2678.00,97.19
2677.00,97.17
2676.00,97.16
2675.00,97.15
2674.00,97.15
2673.00,97.15
2672.00,97.17
2671.00,97.18
2670.00,97.20
2669.00,97.20
2668.00,97.20
2667.00,97.20
2666.00,97.20
2665.00,97.21
2664.00,97.21
2663.00,97.21
2662.00,97.19
2661.00,97.18
2660.00,97.17
2659.00,97.16
2658.00,97.16
2657.00,97.15
2656.00,97.14
2655.00,97.13
2654.00,97.13
2653.00,97.13
2652.00,97.13
2651.00,97.13
2650.00,97.13
2649.00,97.13
2648.00,97.12
2647.00,97.11
2646.00,97.10
2645.00,97.09
2644.00,97.08
2643.00,97.07
2642.00,97.05
2641.00,97.04
2640.00,97.02
2639.00,97.02
2638.00,97.01
2637.00,97.01
2636.00,97.02
2635.00,97.03
2634.00,97.02
2633.00,96.99
2632.00,96.95
2631.00,96.92
2630.00,96.92
2629.00,96.92
2628.00,96.93
2627.00,96.94
2626.00,96.95
2625.00,96.95
2624.00,96.95
2623.00,96.94
2622.00,96.92
2621.00,96.91
2620.00,96.90
2619.00,96.90
2618.00,96.89
2617.00,96.88
2616.00,96.88
2615.00,96.88
2614.00,96.88
2613.00,96.86
2612.00,96.84
2611.00,96.83
2610.00,96.83
2609.00,96.83
2608.00,96.83
2607.00,96.84
2606.00,96.84
2605.00,96.84
2604.00,96.84
2603.00,96.84
2602.00,96.84
2601.00,96.84
2600.00,96.84
2599.00,96.84
2598.00,96.86
2597.00,96.87
2596.00,96.89
2595.00,96.89
2594.00,96.88
2593.00,96.86
2592.00,96.83
2591.00,96.81
2590.00,96.80
2589.00,96.78
2588.00,96.78
2587.00,96.78
2586.00,96.80
2585.00,96.82
2584.00,96.83
2583.00,96.83
2582.00,96.84
2581.00,96.85
2580.00,96.86
2579.00,96.85
2578.00,96.84
2577.00,96.82
2576.00,96.80
2575.00,96.79
2574.00,96.81
2573.00,96.84
2572.00,96.87
2571.00,96.89
2570.00,96.90
2569.00,96.89
2568.00,96.89
2567.00,96.89
2566.00,96.90
2565.00,96.90
2564.00,96.90
2563.00,96.89
2562.00,96.88
2561.00,96.86
2560.00,96.86
2559.00,96.87
2558.00,96.90
2557.00,96.91
2556.00,96.92
2555.00,96.91
2554.00,96.89
2553.00,96.87
2552.00,96.87
2551.00,96.89
2550.00,96.91
2549.00,96.91
2548.00,96.90
2547.00,96.87
2546.00,96.85
2545.00,96.84
2544.00,96.84
2543.00,96.84
2542.00,96.85
2541.00,96.86
2540.00,96.87
2539.00,96.89
2538.00,96.89
2537.00,96.89
2536.00,96.88
2535.00,96.87
2534.00,96.87
2533.00,96.87
2532.00,96.88
2531.00,96.89
2530.00,96.91
2529.00,96.92
2528.00,96.93
2527.00,96.92
2526.00,96.90
2525.00,96.90
2524.00,96.89
2523.00,96.88
2522.00,96.87
2521.00,96.85
2520.00,96.85
2519.00,96.86
2518.00,96.88
2517.00,96.90
2516.00,96.91
2515.00,96.90
2514.00,96.89
2513.00,96.88
2512.00,96.88
2511.00,96.88
2510.00,96.88
2509.00,96.90
2508.00,96.93
2507.00,96.94
2506.00,96.94
2505.00,96.91
2504.00,96.88
2503.00,96.86
2502.00,96.85
2501.00,96.84
2500.00,96.83
2499.00,96.82
2498.00,96.82
2497.00,96.83
2496.00,96.85
2495.00,96.87
2494.00,96.89
2493.00,96.91
2492.00,96.92
2491.00,96.93
2490.00,96.93
2489.00,96.92
2488.00,96.90
2487.00,96.89
2486.00,96.90
2485.00,96.91
2484.00,96.93
2483.00,96.94
2482.00,96.94
2481.00,96.93
2480.00,96.92
2479.00,96.92
2478.00,96.92
2477.00,96.92
2476.00,96.91
2475.00,96.91
2474.00,96.92
2473.00,96.91
2472.00,96.90
2471.00,96.89
2470.00,96.90
2469.00,96.91
2468.00,96.92
2467.00,96.93
2466.00,96.93
2465.00,96.92
2464.00,96.93
2463.00,96.95
2462.00,96.97
2461.00,96.97
2460.00,96.95
2459.00,96.92
2458.00,96.90
2457.00,96.90
2456.00,96.90
2455.00,96.91
2454.00,96.92
2453.00,96.91
2452.00,96.91
2451.00,96.92
2450.00,96.93
2449.00,96.95
2448.00,96.97
2447.00,96.99
2446.00,96.99
2445.00,96.99
2444.00,96.98
2443.00,96.98
2442.00,96.98
2441.00,96.97
2440.00,96.97
2439.00,96.97
2438.00,96.97
2437.00,96.97
2436.00,96.97
2435.00,96.98
2434.00,96.99
2433.00,97.00
2432.00,97.01
2431.00,97.01
2430.00,97.00
2429.00,97.00
2428.00,97.00
2427.00,97.00
2426.00,97.00
2425.00,97.00
2424.00,96.99
2423.00,96.98
2422.00,96.99
2421.00,97.01
2420.00,97.05
2419.00,97.08
2418.00,97.10
2417.00,97.09
2416.00,97.08
2415.00,97.06
2414.00,97.05
2413.00,97.05
2412.00,97.05
2411.00,97.05
2410.00,97.06
2409.00,97.06
2408.00,97.07
2407.00,97.09
2406.00,97.11
2405.00,97.12
2404.00,97.12
2403.00,97.13
2402.00,97.15
2401.00,97.17
2400.00,97.19
2399.00,97.21
2398.00,97.22
2397.00,97.22
2396.00,97.22
2395.00,97.23
2394.00,97.25
2393.00,97.27
2392.00,97.28
2391.00,97.28
2390.00,97.28
2389.00,97.29
2388.00,97.31
2387.00,97.32
2386.00,97.32
2385.00,97.32
2384.00,97.32
2383.00,97.33
2382.00,97.35
2381.00,97.37
2380.00,97.39
2379.00,97.41
2378.00,97.45
2377.00,97.49
2376.00,97.52
2375.00,97.50
2374.00,97.46
2373.00,97.43
2372.00,97.44
2371.00,97.48
2370.00,97.50
2369.00,97.49
2368.00,97.46
2367.00,97.46
2366.00,97.50
2365.00,97.58
2364.00,97.64
2363.00,97.64
2362.00,97.58
2361.00,97.49
2360.00,97.46
2359.00,97.49
2358.00,97.53
2357.00,97.55
2356.00,97.55
2355.00,97.54
2354.00,97.53
2353.00,97.52
2352.00,97.53
2351.00,97.56
2350.00,97.58
2349.00,97.58
2348.00,97.56
2347.00,97.55
2346.00,97.56
2345.00,97.59
2344.00,97.60
2343.00,97.60
2342.00,97.59
2341.00,97.58
2340.00,97.59
2339.00,97.58
2338.00,97.55
2337.00,97.51
2336.00,97.48
2335.00,97.47
2334.00,97.47
2333.00,97.47
2332.00,97.48
2331.00,97.52
2330.00,97.56
2329.00,97.55
2328.00,97.50
2327.00,97.45
2326.00,97.39
2325.00,97.33
2324.00,97.28
2323.00,97.25
2322.00,97.25
2321.00,97.24
2320.00,97.22
2319.00,97.20
2318.00,97.19
2317.00,97.18
2316.00,97.18
2315.00,97.19
2314.00,97.20
2313.00,97.20
2312.00,97.19
2311.00,97.18
2310.00,97.17
2309.00,97.16
2308.00,97.15
2307.00,97.13
2306.00,97.12
2305.00,97.10
2304.00,97.07
2303.00,97.04
2302.00,97.00
2301.00,96.97
2300.00,96.95
2299.00,96.94
2298.00,96.96
2297.00,96.97
2296.00,96.98
2295.00,96.97
2294.00,96.94
2293.00,96.92
2292.00,96.90
2291.00,96.88
2290.00,96.85
2289.00,96.80
2288.00,96.75
2287.00,96.73
2286.00,96.74
2285.00,96.76
2284.00,96.77
2283.00,96.76
2282.00,96.73
2281.00,96.69
2280.00,96.67
2279.00,96.66
2278.00,96.68
2277.00,96.70
2276.00,96.70
2275.00,96.69
2274.00,96.66
2273.00,96.63
2272.00,96.63
2271.00,96.64
2270.00,96.64
2269.00,96.63
2268.00,96.61
2267.00,96.61
2266.00,96.61
2265.00,96.61
2264.00,96.59
2263.00,96.58
2262.00,96.56
2261.00,96.54
2260.00,96.53
2259.00,96.53
2258.00,96.54
2257.00,96.53
2256.00,96.50
2255.00,96.45
2254.00,96.40
2253.00,96.37
2252.00,96.36
2251.00,96.36
2250.00,96.35
2249.00,96.33
2248.00,96.31
2247.00,96.30
2246.00,96.31
2245.00,96.33
2244.00,96.35
2243.00,96.35
2242.00,96.35
2241.00,96.34
2240.00,96.33
2239.00,96.33
2238.00,96.34
2237.00,96.35
2236.00,96.37
2235.00,96.39
2234.00,96.38
2233.00,96.36
2232.00,96.34
2231.00,96.33
2230.00,96.31
2229.00,96.27
2228.00,96.23
2227.00,96.20
2226.00,96.19
2225.00,96.19
2224.00,96.22
2223.00,96.25
2222.00,96.25
2221.00,96.19
2220.00,96.12
2219.00,96.07
2218.00,96.06
2217.00,96.08
2216.00,96.11
2215.00,96.14
2214.00,96.15
2213.00,96.14
2212.00,96.10
2211.00,96.06
2210.00,96.03
2209.00,96.03
2208.00,96.08
2207.00,96.14
2206.00,96.16
2205.00,96.12
2204.00,96.07
2203.00,96.04
2202.00,96.04
2201.00,96.04
2200.00,96.02
2199.00,96.00
2198.00,95.96
2197.00,95.93
2196.00,95.92
2195.00,95.93
2194.00,95.94
2193.00,95.92
2192.00,95.88
2191.00,95.85
2190.00,95.83
2189.00,95.81
2188.00,95.78
2187.00,95.75
2186.00,95.72
2185.00,95.67
2184.00,95.64
2183.00,95.64
2182.00,95.70
2181.00,95.77
2180.00,95.83
2179.00,95.86
2178.00,95.84
2177.00,95.79
2176.00,95.75
2175.00,95.75
2174.00,95.77
2173.00,95.77
2172.00,95.73
2171.00,95.65
2170.00,95.54
2169.00,95.41
2168.00,95.30
2167.00,95.22
2166.00,95.18
2165.00,95.17
2164.00,95.17
2163.00,95.18
2162.00,95.18
2161.00,95.21
2160.00,95.34
2159.00,95.56
2158.00,95.79
2157.00,95.95
2156.00,96.03
2155.00,96.07
2154.00,96.08
2153.00,96.03
2152.00,95.96
2151.00,95.92
2150.00,95.93
2149.00,95.98
2148.00,96.05
2147.00,96.13
2146.00,96.21
2145.00,96.27
2144.00,96.29
2143.00,96.28
2142.00,96.28
2141.00,96.31
2140.00,96.40
2139.00,96.51
2138.00,96.61
2137.00,96.65
2136.00,96.64
2135.00,96.62
2134.00,96.60
2133.00,96.59
2132.00,96.60
2131.00,96.63
2130.00,96.69
2129.00,96.72
2128.00,96.72
2127.00,96.71
2126.00,96.70
2125.00,96.69
2124.00,96.68
2123.00,96.66
2122.00,96.65
2121.00,96.65
2120.00,96.66
2119.00,96.69
2118.00,96.73
2117.00,96.76
2116.00,96.76
2115.00,96.74
2114.00,96.71
2113.00,96.69
2112.00,96.65
2111.00,96.61
2110.00,96.57
2109.00,96.54
2108.00,96.52
2107.00,96.53
2106.00,96.55
2105.00,96.57
2104.00,96.59
2103.00,96.63
2102.00,96.68
2101.00,96.72
2100.00,96.72
2099.00,96.70
2098.00,96.67
2097.00,96.67
2096.00,96.69
2095.00,96.71
2094.00,96.72
2093.00,96.71
2092.00,96.70
2091.00,96.70
2090.00,96.70
2089.00,96.70
2088.00,96.71
2087.00,96.71
2086.00,96.71
2085.00,96.68
2084.00,96.64
2083.00,96.62
2082.00,96.63
2081.00,96.64
2080.00,96.62
2079.00,96.58
2078.00,96.53
2077.00,96.49
2076.00,96.47
2075.00,96.48
2074.00,96.48
2073.00,96.45
2072.00,96.40
2071.00,96.36
2070.00,96.37
2069.00,96.40
2068.00,96.43
2067.00,96.44
2066.00,96.43
2065.00,96.40
2064.00,96.39
2063.00,96.40
2062.00,96.44
2061.00,96.46
2060.00,96.45
2059.00,96.40
2058.00,96.34
2057.00,96.31
2056.00,96.32
2055.00,96.36
2054.00,96.39
2053.00,96.39
2052.00,96.35
2051.00,96.32
2050.00,96.30
2049.00,96.25
2048.00,96.18
2047.00,96.11
2046.00,96.05
2045.00,96.00
2044.00,95.96
2043.00,95.94
2042.00,95.95
2041.00,95.93
2040.00,95.89
2039.00,95.84
2038.00,95.83
2037.00,95.85
2036.00,95.89
2035.00,95.93
2034.00,95.95
2033.00,95.93
2032.00,95.87
2031.00,95.83
2030.00,95.83
2029.00,95.87
2028.00,95.92
2027.00,95.94
2026.00,95.95
2025.00,95.95
2024.00,95.97
2023.00,96.00
2022.00,96.03
2021.00,96.05
2020.00,96.04
2019.00,96.05
2018.00,96.05
2017.00,96.05
2016.00,96.05
2015.00,96.07
2014.00,96.10
2013.00,96.13
2012.00,96.15
2011.00,96.16
2010.00,96.16
2009.00,96.13
2008.00,96.11
2007.00,96.11
2006.00,96.14
2005.00,96.17
2004.00,96.22
2003.00,96.24
2002.00,96.23
2001.00,96.18
2000.00,96.16
1999.00,96.20
1998.00,96.26
1997.00,96.31
1996.00,96.35
1995.00,96.39
1994.00,96.44
1993.00,96.46
1992.00,96.43
1991.00,96.37
1990.00,96.33
1989.00,96.31
1988.00,96.32
1987.00,96.33
1986.00,96.34
1985.00,96.32
1984.00,96.28
1983.00,96.21
1982.00,96.10
1981.00,96.00
1980.00,95.94
1979.00,95.96
1978.00,96.03
1977.00,96.09
1976.00,96.12
1975.00,96.15
1974.00,96.20
1973.00,96.26
1972.00,96.31
1971.00,96.34
1970.00,96.34
1969.00,96.32
1968.00,96.31
1967.00,96.33
1966.00,96.37
1965.00,96.39
1964.00,96.41
1963.00,96.46
1962.00,96.53
1961.00,96.60
1960.00,96.65
1959.00,96.68
1958.00,96.71
1957.00,96.74
1956.00,96.79
1955.00,96.85
1954.00,96.91
1953.00,96.92
1952.00,96.89
1951.00,96.87
1950.00,96.87
1949.00,96.89
1948.00,96.91
1947.00,96.94
1946.00,96.97
1945.00,97.00
1944.00,97.03
1943.00,97.07
1942.00,97.08
1941.00,97.05
1940.00,96.99
1939.00,96.96
1938.00,96.96
1937.00,97.00
1936.00,97.03
1935.00,97.05
1934.00,97.07
1933.00,97.08
1932.00,97.11
1931.00,97.14
1930.00,97.16
1929.00,97.19
1928.00,97.20
1927.00,97.20
1926.00,97.19
1925.00,97.17
1924.00,97.19
1923.00,97.25
1922.00,97.31
1921.00,97.33
1920.00,97.32
1919.00,97.30
1918.00,97.26
1917.00,97.24
1916.00,97.24
1915.00,97.27
1914.00,97.30
1913.00,97.31
1912.00,97.29
1911.00,97.29
1910.00,97.30
1909.00,97.32
1908.00,97.33
1907.00,97.35
1906.00,97.38
1905.00,97.40
1904.00,97.42
1903.00,97.42
1902.00,97.43
1901.00,97.43
1900.00,97.44
1899.00,97.46
1898.00,97.49
1897.00,97.50
1896.00,97.51
1895.00,97.51
1894.00,97.51
1893.00,97.51
1892.00,97.51
1891.00,97.53
1890.00,97.57
1889.00,97.60
1888.00,97.63
1887.00,97.65
1886.00,97.66
1885.00,97.66
1884.00,97.63
1883.00,97.61
1882.00,97.59
1881.00,97.59
1880.00,97.59
1879.00,97.60
1878.00,97.62
1877.00,97.63
1876.00,97.63
1875.00,97.65
1874.00,97.66
1873.00,97.66
1872.00,97.65
1871.00,97.67
1870.00,97.72
1869.00,97.77
1868.00,97.80
1867.00,97.82
1866.00,97.81
1865.00,97.79
1864.00,97.75
1863.00,97.73
1862.00,97.72
1861.00,97.72
1860.00,97.72
1859.00,97.72
1858.00,97.74
1857.00,97.76
1856.00,97.78
1855.00,97.81
1854.00,97.85
1853.00,97.87
1852.00,97.88
1851.00,97.88
1850.00,97.89
1849.00,97.91
1848.00,97.94
1847.00,97.99
1846.00,98.04
1845.00,98.08
1844.00,98.08
1843.00,98.06
1842.00,98.04
1841.00,98.01
1840.00,97.97
1839.00,97.94
1838.00,97.93
1837.00,97.93
1836.00,97.93
1835.00,97.94
1834.00,97.96
1833.00,97.99
1832.00,98.02
1831.00,98.04
1830.00,98.05
1829.00,98.05
1828.00,98.05
1827.00,98.06
1826.00,98.08
1825.00,98.08
1824.00,98.08
1823.00,98.08
1822.00,98.09
1821.00,98.08
1820.00,98.08
1819.00,98.10
1818.00,98.14
1817.00,98.18
1816.00,98.19
1815.00,98.20
1814.00,98.19
1813.00,98.19
1812.00,98.19
1811.00,98.20
1810.00,98.22
1809.00,98.23
1808.00,98.22
1807.00,98.21
1806.00,98.21
1805.00,98.20
1804.00,98.21
1803.00,98.23
1802.00,98.26
1801.00,98.28
1800.00,98.28
1799.00,98.28
1798.00,98.29
1797.00,98.29
1796.00,98.29
1795.00,98.31
1794.00,98.34
1793.00,98.37
1792.00,98.39
1791.00,98.39
1790.00,98.39
1789.00,98.37
1788.00,98.34
1787.00,98.32
1786.00,98.32
1785.00,98.32
1784.00,98.31
1783.00,98.30
1782.00,98.31
1781.00,98.32
1780.00,98.33
1779.00,98.36
1778.00,98.38
1777.00,98.39
1776.00,98.38
1775.00,98.37
1774.00,98.37
1773.00,98.38
1772.00,98.39
1771.00,98.41
1770.00,98.43
1769.00,98.44
1768.00,98.44
1767.00,98.43
1766.00,98.43
1765.00,98.43
1764.00,98.43
1763.00,98.44
1762.00,98.45
1761.00,98.46
1760.00,98.46
1759.00,98.46
1758.00,98.46
1757.00,98.44
1756.00,98.42
1755.00,98.42
1754.00,98.43
1753.00,98.45
1752.00,98.45
1751.00,98.46
1750.00,98.49
1749.00,98.51
1748.00,98.51
1747.00,98.50
1746.00,98.48
1745.00,98.45
1744.00,98.44
1743.00,98.44
1742.00,98.46
1741.00,98.47
1740.00,98.46
1739.00,98.47
1738.00,98.50
1737.00,98.52
1736.00,98.53
1735.00,98.52
1734.00,98.49
1733.00,98.46
1732.00,98.43
1731.00,98.42
1730.00,98.44
1729.00,98.43
1728.00,98.39
1727.00,98.35
1726.00,98.34
1725.00,98.31
1724.00,98.28
1723.00,98.24
1722.00,98.22
1721.00,98.19
1720.00,98.17
1719.00,98.18
1718.00,98.17
1717.00,98.12
1716.00,98.01
1715.00,97.89
1714.00,97.77
1713.00,97.60
1712.00,97.40
1711.00,97.18
1710.00,96.94
1709.00,96.67
1708.00,96.33
1707.00,95.90
1706.00,95.37
1705.00,94.76
1704.00,94.19
1703.00,93.71
1702.00,93.23
1701.00,92.67
1700.00,92.09
1699.00,91.72
1698.00,91.56
1697.00,91.53
1696.00,91.58
1695.00,91.63
1694.00,91.66
1693.00,91.68
1692.00,91.69
1691.00,91.69
1690.00,91.68
1689.00,91.66
1688.00,91.62
1687.00,91.58
1686.00,91.51
1685.00,91.37
1684.00,91.17
1683.00,91.00
1682.00,90.86
1681.00,90.72
1680.00,90.56
1679.00,90.39
1678.00,90.22
1677.00,90.04
1676.00,89.84
1675.00,89.60
1674.00,89.38
1673.00,89.17
1672.00,88.98
1671.00,88.78
1670.00,88.56
1669.00,88.30
1668.00,88.04
1667.00,87.80
1666.00,87.57
1665.00,87.34
1664.00,87.08
1663.00,86.79
1662.00,86.50
1661.00,86.20
1660.00,85.91
1659.00,85.62
1658.00,85.37
1657.00,85.15
1656.00,84.96
1655.00,84.78
1654.00,84.53
1653.00,84.17
1652.00,83.82
1651.00,83.55
1650.00,83.35
1649.00,83.17
1648.00,82.97
1647.00,82.73
1646.00,82.47
1645.00,82.20
1644.00,81.93
1643.00,81.67
1642.00,81.44
1641.00,81.22
1640.00,80.98
1639.00,80.75
1638.00,80.54
1637.00,80.31
1636.00,80.04
1635.00,79.78
1634.00,79.54
1633.00,79.30
1632.00,79.04
1631.00,78.81
1630.00,78.62
1629.00,78.45
1628.00,78.29
1627.00,78.15
1626.00,78.03
1625.00,77.95
1624.00,77.90
1623.00,77.89
1622.00,77.90
1621.00,77.91
1620.00,77.92
1619.00,77.99
1618.00,78.17
1617.00,78.47
1616.00,78.80
1615.00,79.09
1614.00,79.36
1613.00,79.65
1612.00,80.01
1611.00,80.40
1610.00,80.83
1609.00,81.28
1608.00,81.72
1607.00,82.15
1606.00,82.57
1605.00,82.99
1604.00,83.40
1603.00,83.80
1602.00,84.19
1601.00,84.57
1600.00,84.92
1599.00,85.24
1598.00,85.53
1597.00,85.81
1596.00,86.07
1595.00,86.34
1594.00,86.60
1593.00,86.84
1592.00,87.08
1591.00,87.30
1590.00,87.50
1589.00,87.69
1588.00,87.87
1587.00,88.04
1586.00,88.18
1585.00,88.31
1584.00,88.41
1583.00,88.49
1582.00,88.53
1581.00,88.55
1580.00,88.57
1579.00,88.57
1578.00,88.56
1577.00,88.52
1576.00,88.47
1575.00,88.40
1574.00,88.32
1573.00,88.23
1572.00,88.14
1571.00,88.04
1570.00,87.90
1569.00,87.72
1568.00,87.54
1567.00,87.36
1566.00,87.16
1565.00,86.93
1564.00,86.71
1563.00,86.52
1562.00,86.35
1561.00,86.18
1560.00,86.00
1559.00,85.79
1558.00,85.60
1557.00,85.42
1556.00,85.23
1555.00,85.01
1554.00,84.78
1553.00,84.55
1552.00,84.35
1551.00,84.18
1550.00,83.99
1549.00,83.78
1548.00,83.57
1547.00,83.37
1546.00,83.17
1545.00,82.96
1544.00,82.75
1543.00,82.57
1542.00,82.38
1541.00,82.17
1540.00,81.93
1539.00,81.66
1538.00,81.39
1537.00,81.13
1536.00,80.90
1535.00,80.69
1534.00,80.46
1533.00,80.19
1532.00,79.94
1531.00,79.71
1530.00,79.47
1529.00,79.22
1528.00,78.99
1527.00,78.76
1526.00,78.51
1525.00,78.27
1524.00,78.05
1523.00,77.81
1522.00,77.51
1521.00,77.17
1520.00,76.84
1519.00,76.53
1518.00,76.21
1517.00,75.89
1516.00,75.62
1515.00,75.40
1514.00,75.24
1513.00,75.14
1512.00,75.08
1511.00,75.05
1510.00,75.04
1509.00,75.07
1508.00,75.17
1507.00,75.37
1506.00,75.56
1505.00,75.69
1504.00,75.76
1503.00,75.83
1502.00,75.95
1501.00,76.12
1500.00,76.33
1499.00,76.58
1498.00,76.86
1497.00,77.17
1496.00,77.50
1495.00,77.79
1494.00,78.04
1493.00,78.29
1492.00,78.59
1491.00,78.95
1490.00,79.36
1489.00,79.75
1488.00,80.10
1487.00,80.41
1486.00,80.70
1485.00,80.98
1484.00,81.27
1483.00,81.56
1482.00,81.85
1481.00,82.13
1480.00,82.37
1479.00,82.60
1478.00,82.84
1477.00,83.09
1476.00,83.33
1475.00,83.52
1474.00,83.69
1473.00,83.87
1472.00,84.04
1471.00,84.17
1470.00,84.26
1469.00,84.32
1468.00,84.37
1467.00,84.45
1466.00,84.54
1465.00,84.62
1464.00,84.66
1463.00,84.66
1462.00,84.65
1461.00,84.62
1460.00,84.59
1459.00,84.55
1458.00,84.47
1457.00,84.30
1456.00,84.06
1455.00,83.81
1454.00,83.56
1453.00,83.31
1452.00,83.06
1451.00,82.84
1450.00,82.64
1449.00,82.48
1448.00,82.34
1447.00,82.23
1446.00,82.17
1445.00,82.13
1444.00,82.11
1443.00,82.13
1442.00,82.17
1441.00,82.21
1440.00,82.27
1439.00,82.36
1438.00,82.51
1437.00,82.74
1436.00,83.00
1435.00,83.23
1434.00,83.42
1433.00,83.62
1432.00,83.85
1431.00,84.10
1430.00,84.33
1429.00,84.54
1428.00,84.71
1427.00,84.83
1426.00,84.94
1425.00,85.05
1424.00,85.15
1423.00,85.22
1422.00,85.27
1421.00,85.31
1420.00,85.35
1419.00,85.38
1418.00,85.38
1417.00,85.35
1416.00,85.30
1415.00,85.24
1414.00,85.18
1413.00,85.13
1412.00,85.09
1411.00,85.05
1410.00,85.02
1409.00,84.99
1408.00,84.98
1407.00,84.98
1406.00,85.00
1405.00,85.04
1404.00,85.08
1403.00,85.12
1402.00,85.16
1401.00,85.24
1400.00,85.35
1399.00,85.45
1398.00,85.52
1397.00,85.58
1396.00,85.65
1395.00,85.72
1394.00,85.79
1393.00,85.83
1392.00,85.84
1391.00,85.85
1390.00,85.89
1389.00,85.95
1388.00,86.02
1387.00,86.09
1386.00,86.14
1385.00,86.17
1384.00,86.19
1383.00,86.22
1382.00,86.24
1381.00,86.27
1380.00,86.29
1379.00,86.32
1378.00,86.35
1377.00,86.39
1376.00,86.42
1375.00,86.44
1374.00,86.46
1373.00,86.47
1372.00,86.47
1371.00,86.46
1370.00,86.46
1369.00,86.48
1368.00,86.52
1367.00,86.59
1366.00,86.67
1365.00,86.78
1364.00,86.92
1363.00,87.07
1362.00,87.22
1361.00,87.35
1360.00,87.47
1359.00,87.57
1358.00,87.67
1357.00,87.77
1356.00,87.85
1355.00,87.92
1354.00,87.97
1353.00,88.00
1352.00,88.04
1351.00,88.08
1350.00,88.11
1349.00,88.14
1348.00,88.15
1347.00,88.14
1346.00,88.14
1345.00,88.14
1344.00,88.14
1343.00,88.13
1342.00,88.12
1341.00,88.11
1340.00,88.11
1339.00,88.10
1338.00,88.10
1337.00,88.09
1336.00,88.09
1335.00,88.09
1334.00,88.10
1333.00,88.13
1332.00,88.17
1331.00,88.21
1330.00,88.27
1329.00,88.33
1328.00,88.39
1327.00,88.44
1326.00,88.49
1325.00,88.54
1324.00,88.59
1323.00,88.65
1322.00,88.69
1321.00,88.74
1320.00,88.77
1319.00,88.80
1318.00,88.84
1317.00,88.86
1316.00,88.88
1315.00,88.90
1314.00,88.90
1313.00,88.90
1312.00,88.91
1311.00,88.92
1310.00,88.93
1309.00,88.95
1308.00,88.97
1307.00,88.99
1306.00,89.01
1305.00,89.04
1304.00,89.05
1303.00,89.06
1302.00,89.07
1301.00,89.08
1300.00,89.10
1299.00,89.13
1298.00,89.17
1297.00,89.22
1296.00,89.25
1295.00,89.27
1294.00,89.28
1293.00,89.28
1292.00,89.29
1291.00,89.28
1290.00,89.27
1289.00,89.26
1288.00,89.25
1287.00,89.23
1286.00,89.20
1285.00,89.15
1284.00,89.09
1283.00,89.03
1282.00,88.98
1281.00,88.92
1280.00,88.86
1279.00,88.78
1278.00,88.66
1277.00,88.52
1276.00,88.36
1275.00,88.19
1274.00,88.02
1273.00,87.83
1272.00,87.62
1271.00,87.40
1270.00,87.18
1269.00,86.98
1268.00,86.80
1267.00,86.64
1266.00,86.49
1265.00,86.36
1264.00,86.24
1263.00,86.15
1262.00,86.06
1261.00,85.99
1260.00,85.96
1259.00,85.94
1258.00,85.93
1257.00,85.92
1256.00,85.90
1255.00,85.89
1254.00,85.87
1253.00,85.84
1252.00,85.81
1251.00,85.77
1250.00,85.72
1249.00,85.67
1248.00,85.59
1247.00,85.50
1246.00,85.39
1245.00,85.29
1244.00,85.19
1243.00,85.08
1242.00,84.96
1241.00,84.81
1240.00,84.66
1239.00,84.49
1238.00,84.31
1237.00,84.12
1236.00,83.91
1235.00,83.72
1234.00,83.53
1233.00,83.35
1232.00,83.19
1231.00,83.05
1230.00,82.95
1229.00,82.88
1228.00,82.84
1227.00,82.83
1226.00,82.85
1225.00,82.88
1224.00,82.93
1223.00,82.99
1222.00,83.07
1221.00,83.17
1220.00,83.27
1219.00,83.37
1218.00,83.47
1217.00,83.59
1216.00,83.72
1215.00,83.87
1214.00,84.04
1213.00,84.22
1212.00,84.42
1211.00,84.63
1210.00,84.83
1209.00,85.02
1208.00,85.21
1207.00,85.41
1206.00,85.61
1205.00,85.83
1204.00,86.04
1203.00,86.23
1202.00,86.41
1201.00,86.59
1200.00,86.78
1199.00,86.96
1198.00,87.13
1197.00,87.28
1196.00,87.41
1195.00,87.53
1194.00,87.65
1193.00,87.77
1192.00,87.88
1191.00,87.98
1190.00,88.06
1189.00,88.14
1188.00,88.21
1187.00,88.26
1186.00,88.28
1185.00,88.28
1184.00,88.28
1183.00,88.26
1182.00,88.23
1181.00,88.18
1180.00,88.11
1179.00,88.02
1178.00,87.90
1177.00,87.76
1176.00,87.62
1175.00,87.48
1174.00,87.33
1173.00,87.17
1172.00,87.00
1171.00,86.84
1170.00,86.72
1169.00,86.63
1168.00,86.55
1167.00,86.49
1166.00,86.44
1165.00,86.39
1164.00,86.34
1163.00,86.30
1162.00,86.26
1161.00,86.22
1160.00,86.20
1159.00,86.22
1158.00,86.28
1157.00,86.35
1156.00,86.43
1155.00,86.50
1154.00,86.56
1153.00,86.65
1152.00,86.75
1151.00,86.87
1150.00,86.99
1149.00,87.10
1148.00,87.20
1147.00,87.32
1146.00,87.45
1145.00,87.59
1144.00,87.72
1143.00,87.83
1142.00,87.94
1141.00,88.03
1140.00,88.12
1139.00,88.20
1138.00,88.27
1137.00,88.33
1136.00,88.38
1135.00,88.42
1134.00,88.44
1133.00,88.47
1132.00,88.50
1131.00,88.52
1130.00,88.52
1129.00,88.52
1128.00,88.52
1127.00,88.52
1126.00,88.52
1125.00,88.53
1124.00,88.56
1123.00,88.58
1122.00,88.58
1121.00,88.56
1120.00,88.52
1119.00,88.48
1118.00,88.48
1117.00,88.50
1116.00,88.53
1115.00,88.57
1114.00,88.60
1113.00,88.62
1112.00,88.62
1111.00,88.59
1110.00,88.52
1109.00,88.44
1108.00,88.35
1107.00,88.29
1106.00,88.27
1105.00,88.28
1104.00,88.31
1103.00,88.33
1102.00,88.35
1101.00,88.35
1100.00,88.37
1099.00,88.40
1098.00,88.44
1097.00,88.49
1096.00,88.52
1095.00,88.52
1094.00,88.51
1093.00,88.48
1092.00,88.46
1091.00,88.43
1090.00,88.40
1089.00,88.35
1088.00,88.28
1087.00,88.19
1086.00,88.08
1085.00,87.96
1084.00,87.83
1083.00,87.72
1082.00,87.61
1081.00,87.50
1080.00,87.37
1079.00,87.23
1078.00,87.09
1077.00,86.95
1076.00,86.81
1075.00,86.71
1074.00,86.63
1073.00,86.57
1072.00,86.51
1071.00,86.43
1070.00,86.35
1069.00,86.28
1068.00,86.22
1067.00,86.21
1066.00,86.23
1065.00,86.25
1064.00,86.26
1063.00,86.25
1062.00,86.23
1061.00,86.24
1060.00,86.29
1059.00,86.35
1058.00,86.42
1057.00,86.47
1056.00,86.50
1055.00,86.51
1054.00,86.53
1053.00,86.54
1052.00,86.53
1051.00,86.52
1050.00,86.51
1049.00,86.50
1048.00,86.49
1047.00,86.48
1046.00,86.48
1045.00,86.48
1044.00,86.48
1043.00,86.50
1042.00,86.53
1041.00,86.58
1040.00,86.66
1039.00,86.74
1038.00,86.83
1037.00,86.93
1036.00,87.03
1035.00,87.12
1034.00,87.22
1033.00,87.33
1032.00,87.44
1031.00,87.57
1030.00,87.69
1029.00,87.80
1028.00,87.90
1027.00,87.98
1026.00,88.05
1025.00,88.13
1024.00,88.21
1023.00,88.28
1022.00,88.33
1021.00,88.34
1020.00,88.34
1019.00,88.34
1018.00,88.35
1017.00,88.35
1016.00,88.36
1015.00,88.36
1014.00,88.36
1013.00,88.37
1012.00,88.40
1011.00,88.44
1010.00,88.46
1009.00,88.48
1008.00,88.46
1007.00,88.42
1006.00,88.35
1005.00,88.27
1004.00,88.17
1003.00,88.08
1002.00,88.01
1001.00,87.97
1000.00,87.96
999.00,87.94
998.00,87.91
997.00,87.88
996.00,87.86
995.00,87.86
994.00,87.91
993.00,87.99
992.00,88.12
991.00,88.28
990.00,88.45
989.00,88.62
988.00,88.77
987.00,88.90
986.00,88.99
985.00,89.04
984.00,89.03
983.00,88.99
982.00,88.92
981.00,88.84
980.00,88.73
979.00,88.60
978.00,88.49
977.00,88.41
976.00,88.37
975.00,88.36
974.00,88.38
973.00,88.43
972.00,88.51
971.00,88.64
970.00,88.77
969.00,88.91
968.00,89.04
967.00,89.18
966.00,89.31
965.00,89.43
964.00,89.53
963.00,89.62
962.00,89.70
961.00,89.78
960.00,89.85
959.00,89.91
958.00,89.96
957.00,90.03
956.00,90.10
955.00,90.16
954.00,90.20
953.00,90.23
952.00,90.28
951.00,90.33
950.00,90.39
949.00,90.43
948.00,90.47
947.00,90.49
946.00,90.52
945.00,90.55
944.00,90.58
943.00,90.61
942.00,90.64
941.00,90.67
940.00,90.71
939.00,90.75
938.00,90.79
937.00,90.83
936.00,90.87
935.00,90.90
934.00,90.91
933.00,90.90
932.00,90.90
931.00,90.90
930.00,90.90
929.00,90.91
928.00,90.94
927.00,90.99
926.00,91.04
925.00,91.09
924.00,91.14
923.00,91.19
922.00,91.25
921.00,91.30
920.00,91.34
919.00,91.37
918.00,91.40
917.00,91.46
916.00,91.54
915.00,91.61
914.00,91.66
913.00,91.71
912.00,91.75
911.00,91.79
910.00,91.81
909.00,91.82
908.00,91.82
907.00,91.85
906.00,91.89
905.00,91.94
904.00,91.97
903.00,91.98
902.00,91.99
901.00,91.99
900.00,92.00
899.00,92.01
898.00,92.01
897.00,92.01
896.00,92.01
895.00,91.99
894.00,91.98
893.00,91.97
892.00,91.99
891.00,92.02
890.00,92.06
889.00,92.10
888.00,92.14
887.00,92.16
886.00,92.17
885.00,92.15
884.00,92.13
883.00,92.11
882.00,92.10
881.00,92.11
880.00,92.11
879.00,92.10
878.00,92.07
877.00,92.03
876.00,91.99
875.00,91.98
874.00,91.99
873.00,92.02
872.00,92.06
871.00,92.11
870.00,92.17
869.00,92.22
868.00,92.26
867.00,92.29
866.00,92.31
865.00,92.33
864.00,92.34
863.00,92.34
862.00,92.32
861.00,92.29
860.00,92.24
859.00,92.16
858.00,92.06
857.00,91.96
856.00,91.88
855.00,91.82
854.00,91.78
853.00,91.74
852.00,91.69
851.00,91.65
850.00,91.64
849.00,91.66
848.00,91.70
847.00,91.74
846.00,91.77
845.00,91.80
844.00,91.83
843.00,91.83
842.00,91.80
841.00,91.74
840.00,91.68
839.00,91.64
838.00,91.59
837.00,91.53
836.00,91.46
835.00,91.39
834.00,91.31
833.00,91.22
832.00,91.15
831.00,91.12
830.00,91.11
829.00,91.09
828.00,91.07
827.00,91.04
826.00,91.02
825.00,91.01
824.00,91.00
823.00,91.01
822.00,91.03
821.00,91.07
820.00,91.10
819.00,91.09
818.00,91.06
817.00,91.02
816.00,90.98
815.00,90.94
814.00,90.93
813.00,90.93
812.00,90.94
811.00,90.92
810.00,90.87
809.00,90.82
808.00,90.80
807.00,90.81
806.00,90.83
805.00,90.83
804.00,90.81
803.00,90.80
802.00,90.79
801.00,90.80
800.00,90.83
799.00,90.87
798.00,90.90
797.00,90.90
796.00,90.87
795.00,90.83
794.00,90.77
793.00,90.68
792.00,90.56
791.00,90.43
790.00,90.35
789.00,90.32
788.00,90.32
787.00,90.33
786.00,90.33
785.00,90.31
784.00,90.26
783.00,90.18
782.00,90.10
781.00,90.02
780.00,89.95
779.00,89.89
778.00,89.84
777.00,89.80
776.00,89.74
775.00,89.65
774.00,89.55
773.00,89.46
772.00,89.40
771.00,89.35
770.00,89.31
769.00,89.27
768.00,89.23
767.00,89.17
766.00,89.08
765.00,88.98
764.00,88.89
763.00,88.82
762.00,88.78
761.00,88.76
760.00,88.72
759.00,88.65
758.00,88.55
757.00,88.45
756.00,88.36
755.00,88.29
754.00,88.24
753.00,88.19
752.00,88.15
751.00,88.12
750.00,88.07
749.00,88.00
748.00,87.88
747.00,87.71
746.00,87.54
745.00,87.41
744.00,87.31
743.00,87.25
742.00,87.19
741.00,87.09
740.00,86.94
739.00,86.73
738.00,86.48
737.00,86.27
736.00,86.12
735.00,86.03
734.00,85.94
733.00,85.82
732.00,85.68
731.00,85.52
730.00,85.38
729.00,85.24
728.00,85.12
727.00,85.00
726.00,84.87
725.00,84.73
724.00,84.59
723.00,84.44
722.00,84.28
721.00,84.11
720.00,83.94
719.00,83.82
718.00,83.74
717.00,83.66
716.00,83.57
715.00,83.46
714.00,83.34
713.00,83.23
712.00,83.13
711.00,83.05
710.00,82.97
709.00,82.86
708.00,82.69
707.00,82.50
706.00,82.33
705.00,82.19
704.00,82.09
703.00,82.02
702.00,81.95
701.00,81.88
700.00,81.78
699.00,81.66
698.00,81.53
697.00,81.39
696.00,81.27
695.00,81.17
694.00,81.10
693.00,81.06
692.00,81.03
691.00,81.00
690.00,80.97
689.00,80.95
688.00,80.92
687.00,80.88
686.00,80.84
685.00,80.79
684.00,80.74
683.00,80.71
682.00,80.70
681.00,80.70
680.00,80.67
679.00,80.62
678.00,80.58
677.00,80.57
676.00,80.57
675.00,80.57
674.00,80.56
673.00,80.55
672.00,80.56
671.00,80.55
670.00,80.46
669.00,80.26
668.00,80.03
667.00,79.89
666.00,79.91
665.00,80.03
664.00,80.12
663.00,80.12
662.00,80.06
661.00,79.99
660.00,79.94
659.00,79.88
658.00,79.81
657.00,79.76
656.00,79.77
655.00,79.78
654.00,79.74
653.00,79.60
652.00,79.41
651.00,79.25
650.00,79.16
649.00,79.10
648.00,79.05
647.00,79.00
646.00,78.92
645.00,78.80
644.00,78.69
643.00,78.63
642.00,78.59
641.00,78.51
640.00,78.37
639.00,78.26
638.00,78.23
637.00,78.24
636.00,78.25
635.00,78.23
634.00,78.15
633.00,77.95
632.00,77.69
631.00,77.49
630.00,77.44
629.00,77.48
628.00,77.55
627.00,77.62
626.00,77.65
625.00,77.62
624.00,77.56
623.00,77.56
622.00,77.60
621.00,77.54
620.00,77.38
619.00,77.21
618.00,77.18
617.00,77.26
616.00,77.40
615.00,77.58
614.00,77.73
613.00,77.73
612.00,77.54
611.00,77.29
610.00,77.12
609.00,77.07
608.00,77.17
607.00,77.45
606.00,77.85
605.00,78.17
604.00,78.24
603.00,78.03
602.00,77.66
601.00,77.37
600.00,77.35
599.00,77.58
598.00,77.76
597.00,77.66
596.00,77.42
595.00,77.33
594.00,77.48
593.00,77.67
592.00,77.77
591.00,77.84
590.00,77.90
589.00,77.88
588.00,77.80
587.00,77.84
586.00,78.05
585.00,78.20
584.00,78.14
583.00,78.04
582.00,78.15
581.00,78.47
580.00,78.76
579.00,78.76
578.00,78.33
577.00,77.58
576.00,76.94
575.00,76.98
574.00,77.72
573.00,78.54
572.00,78.90
571.00,78.79
570.00,78.53
569.00,78.39
568.00,78.50
567.00,78.89
566.00,79.21
565.00,78.93
564.00,77.94
563.00,76.76
562.00,76.06
561.00,75.97
560.00,76.16
559.00,76.31
558.00,76.20
557.00,75.68
556.00,74.77
555.00,73.85
554.00,73.32
553.00,73.26
552.00,73.61
551.00,74.22
550.00,74.82
