Created as New Dataset,16.3 Bombyx mori, yarn
cm-1,%T
4000.00,97.46
3999.00,97.45
3998.00,97.43
3997.00,97.41
3996.00,97.40
3995.00,97.41
3994.00,97.42
3993.00,97.43
3992.00,97.44
3991.00,97.45
3990.00,97.45
3989.00,97.45
3988.00,97.44
3987.00,97.44
3986.00,97.43
3985.00,97.43
3984.00,97.43
3983.00,97.45
3982.00,97.47
3981.00,97.48
3980.00,97.48
3979.00,97.48
3978.00,97.48
3977.00,97.48
3976.00,97.48
3975.00,97.49
3974.00,97.50
3973.00,97.50
3972.00,97.49
3971.00,97.49
3970.00,97.49
3969.00,97.49
3968.00,97.49
3967.00,97.48
3966.00,97.48
3965.00,97.46
3964.00,97.45
3963.00,97.43
3962.00,97.42
3961.00,97.43
3960.00,97.43
3959.00,97.45
3958.00,97.46
3957.00,97.47
3956.00,97.47
3955.00,97.47
3954.00,97.45
3953.00,97.44
3952.00,97.43
3951.00,97.44
3950.00,97.46
3949.00,97.47
3948.00,97.47
3947.00,97.46
3946.00,97.45
3945.00,97.46
3944.00,97.47
3943.00,97.49
3942.00,97.49
3941.00,97.48
3940.00,97.47
3939.00,97.46
3938.00,97.46
3937.00,97.46
3936.00,97.47
3935.00,97.48
3934.00,97.48
3933.00,97.46
3932.00,97.45
3931.00,97.45
3930.00,97.45
3929.00,97.45
3928.00,97.45
3927.00,97.45
3926.00,97.46
3925.00,97.47
3924.00,97.47
3923.00,97.47
3922.00,97.47
3921.00,97.46
3920.00,97.45
3919.00,97.45
3918.00,97.47
3917.00,97.49
3916.00,97.49
3915.00,97.47
3914.00,97.45
3913.00,97.44
3912.00,97.44
3911.00,97.45
3910.00,97.47
3909.00,97.49
3908.00,97.50
3907.00,97.49
3906.00,97.49
3905.00,97.49
3904.00,97.50
3903.00,97.52
3902.00,97.53
3901.00,97.54
3900.00,97.53
3899.00,97.51
3898.00,97.50
3897.00,97.50
3896.00,97.49
3895.00,97.48
3894.00,97.48
3893.00,97.48
3892.00,97.49
3891.00,97.50
3890.00,97.49
3889.00,97.47
3888.00,97.47
3887.00,97.50
3886.00,97.52
3885.00,97.52
3884.00,97.50
3883.00,97.47
3882.00,97.46
3881.00,97.47
3880.00,97.48
3879.00,97.47
3878.00,97.47
3877.00,97.47
3876.00,97.49
3875.00,97.51
3874.00,97.51
3873.00,97.49
3872.00,97.50
3871.00,97.52
3870.00,97.52
3869.00,97.50
3868.00,97.48
3867.00,97.48
3866.00,97.50
3865.00,97.52
3864.00,97.52
3863.00,97.52
3862.00,97.53
3861.00,97.55
3860.00,97.58
3859.00,97.59
3858.00,97.58
3857.00,97.56
3856.00,97.55
3855.00,97.56
3854.00,97.55
3853.00,97.51
3852.00,97.46
3851.00,97.45
3850.00,97.46
3849.00,97.48
3848.00,97.50
3847.00,97.50
3846.00,97.49
3845.00,97.50
3844.00,97.51
3843.00,97.54
3842.00,97.55
3841.00,97.57
3840.00,97.57
3839.00,97.56
3838.00,97.54
3837.00,97.53
3836.00,97.52
3835.00,97.53
3834.00,97.54
3833.00,97.56
3832.00,97.57
3831.00,97.55
3830.00,97.51
3829.00,97.47
3828.00,97.46
3827.00,97.46
3826.00,97.46
3825.00,97.44
3824.00,97.43
3823.00,97.44
3822.00,97.47
3821.00,97.48
3820.00,97.47
3819.00,97.46
3818.00,97.47
3817.00,97.48
3816.00,97.47
3815.00,97.44
3814.00,97.43
3813.00,97.42
3812.00,97.43
3811.00,97.42
3810.00,97.43
3809.00,97.46
3808.00,97.51
3807.00,97.54
3806.00,97.54
3805.00,97.51
3804.00,97.50
3803.00,97.52
3802.00,97.54
3801.00,97.53
3800.00,97.50
3799.00,97.48
3798.00,97.47
3797.00,97.46
3796.00,97.45
3795.00,97.44
3794.00,97.43
3793.00,97.43
3792.00,97.44
3791.00,97.45
3790.00,97.47
3789.00,97.47
3788.00,97.47
3787.00,97.46
3786.00,97.45
3785.00,97.44
3784.00,97.43
3783.00,97.42
3782.00,97.41
3781.00,97.41
3780.00,97.39
3779.00,97.37
3778.00,97.35
3777.00,97.35
3776.00,97.37
3775.00,97.39
3774.00,97.41
3773.00,97.42
3772.00,97.42
3771.00,97.41
3770.00,97.38
3769.00,97.35
3768.00,97.33
3767.00,97.34
3766.00,97.35
3765.00,97.36
3764.00,97.35
3763.00,97.34
3762.00,97.34
3761.00,97.35
3760.00,97.35
3759.00,97.35
3758.00,97.35
3757.00,97.35
3756.00,97.36
3755.00,97.38
3754.00,97.41
3753.00,97.44
3752.00,97.48
3751.00,97.51
3750.00,97.52
3749.00,97.49
3748.00,97.43
3747.00,97.38
3746.00,97.37
3745.00,97.37
3744.00,97.36
3743.00,97.35
3742.00,97.36
3741.00,97.39
3740.00,97.40
3739.00,97.39
3738.00,97.36
3737.00,97.33
3736.00,97.30
3735.00,97.28
3734.00,97.28
3733.00,97.31
3732.00,97.34
3731.00,97.36
3730.00,97.37
3729.00,97.37
3728.00,97.37
3727.00,97.35
3726.00,97.33
3725.00,97.31
3724.00,97.31
3723.00,97.32
3722.00,97.32
3721.00,97.31
3720.00,97.32
3719.00,97.33
3718.00,97.34
3717.00,97.34
3716.00,97.33
3715.00,97.33
3714.00,97.34
3713.00,97.34
3712.00,97.33
3711.00,97.32
3710.00,97.32
3709.00,97.33
3708.00,97.32
3707.00,97.30
3706.00,97.27
3705.00,97.25
3704.00,97.24
3703.00,97.25
3702.00,97.26
3701.00,97.27
3700.00,97.28
3699.00,97.29
3698.00,97.29
3697.00,97.30
3696.00,97.30
3695.00,97.29
3694.00,97.28
3693.00,97.26
3692.00,97.25
3691.00,97.26
3690.00,97.30
3689.00,97.33
3688.00,97.34
3687.00,97.32
3686.00,97.30
3685.00,97.27
3684.00,97.26
3683.00,97.25
3682.00,97.27
3681.00,97.28
3680.00,97.28
3679.00,97.25
3678.00,97.21
3677.00,97.22
3676.00,97.26
3675.00,97.29
3674.00,97.29
3673.00,97.27
3672.00,97.26
3671.00,97.26
3670.00,97.24
3669.00,97.21
3668.00,97.17
3667.00,97.14
3666.00,97.13
3665.00,97.13
3664.00,97.14
3663.00,97.14
3662.00,97.14
3661.00,97.12
3660.00,97.09
3659.00,97.05
3658.00,97.04
3657.00,97.05
3656.00,97.07
3655.00,97.07
3654.00,97.06
3653.00,97.06
3652.00,97.09
3651.00,97.12
3650.00,97.13
3649.00,97.11
3648.00,97.07
3647.00,97.03
3646.00,97.01
3645.00,96.99
3644.00,96.98
3643.00,96.98
3642.00,96.98
3641.00,96.98
3640.00,96.97
3639.00,96.96
3638.00,96.94
3637.00,96.93
3636.00,96.92
3635.00,96.93
3634.00,96.92
3633.00,96.89
3632.00,96.86
3631.00,96.83
3630.00,96.81
3629.00,96.78
3628.00,96.76
3627.00,96.76
3626.00,96.78
3625.00,96.80
3624.00,96.80
3623.00,96.78
3622.00,96.75
3621.00,96.73
3620.00,96.73
3619.00,96.73
3618.00,96.72
3617.00,96.69
3616.00,96.67
3615.00,96.66
3614.00,96.66
3613.00,96.65
3612.00,96.62
3611.00,96.60
3610.00,96.59
3609.00,96.60
3608.00,96.61
3607.00,96.62
3606.00,96.61
3605.00,96.57
3604.00,96.53
3603.00,96.50
3602.00,96.47
3601.00,96.45
3600.00,96.45
3599.00,96.45
3598.00,96.46
3597.00,96.48
3596.00,96.51
3595.00,96.52
3594.00,96.51
3593.00,96.49
3592.00,96.46
3591.00,96.42
3590.00,96.41
3589.00,96.42
3588.00,96.43
3587.00,96.44
3586.00,96.42
3585.00,96.40
3584.00,96.37
3583.00,96.35
3582.00,96.33
3581.00,96.30
3580.00,96.28
3579.00,96.25
3578.00,96.24
3577.00,96.24
3576.00,96.24
3575.00,96.23
3574.00,96.22
3573.00,96.21
3572.00,96.22
3571.00,96.23
3570.00,96.22
3569.00,96.20
3568.00,96.18
3567.00,96.16
3566.00,96.14
3565.00,96.12
3564.00,96.10
3563.00,96.06
3562.00,96.03
3561.00,96.01
3560.00,96.01
3559.00,96.03
3558.00,96.03
3557.00,96.02
3556.00,95.99
3555.00,95.96
3554.00,95.95
3553.00,95.96
3552.00,95.96
3551.00,95.96
3550.00,95.94
3549.00,95.91
3548.00,95.89
3547.00,95.88
3546.00,95.87
3545.00,95.85
3544.00,95.80
3543.00,95.76
3542.00,95.72
3541.00,95.71
3540.00,95.72
3539.00,95.73
3538.00,95.73
3537.00,95.72
3536.00,95.70
3535.00,95.68
3534.00,95.66
3533.00,95.66
3532.00,95.65
3531.00,95.65
3530.00,95.64
3529.00,95.63
3528.00,95.60
3527.00,95.57
3526.00,95.53
3525.00,95.49
3524.00,95.47
3523.00,95.47
3522.00,95.47
3521.00,95.47
3520.00,95.47
3519.00,95.48
3518.00,95.47
3517.00,95.46
3516.00,95.45
3515.00,95.44
3514.00,95.42
3513.00,95.39
3512.00,95.36
3511.00,95.32
3510.00,95.29
3509.00,95.28
3508.00,95.28
3507.00,95.30
3506.00,95.30
3505.00,95.30
3504.00,95.28
3503.00,95.26
3502.00,95.25
3501.00,95.24
3500.00,95.23
3499.00,95.22
3498.00,95.21
3497.00,95.20
3496.00,95.19
3495.00,95.18
3494.00,95.17
3493.00,95.16
3492.00,95.15
3491.00,95.13
3490.00,95.10
3489.00,95.09
3488.00,95.09
3487.00,95.09
3486.00,95.10
3485.00,95.10
3484.00,95.09
3483.00,95.06
3482.00,95.02
3481.00,94.99
3480.00,94.98
3479.00,94.99
3478.00,95.00
3477.00,95.00
3476.00,94.99
3475.00,94.97
3474.00,94.96
3473.00,94.95
3472.00,94.94
3471.00,94.92
3470.00,94.90
3469.00,94.90
3468.00,94.92
3467.00,94.94
3466.00,94.95
3465.00,94.94
3464.00,94.91
3463.00,94.89
3462.00,94.88
3461.00,94.88
3460.00,94.87
3459.00,94.86
3458.00,94.84
3457.00,94.80
3456.00,94.77
3455.00,94.74
3454.00,94.73
3453.00,94.73
3452.00,94.73
3451.00,94.74
3450.00,94.74
3449.00,94.73
3448.00,94.71
3447.00,94.67
3446.00,94.64
3445.00,94.62
3444.00,94.61
3443.00,94.60
3442.00,94.61
3441.00,94.60
3440.00,94.59
3439.00,94.57
3438.00,94.54
3437.00,94.52
3436.00,94.52
3435.00,94.53
3434.00,94.55
3433.00,94.57
3432.00,94.58
3431.00,94.56
3430.00,94.53
3429.00,94.48
3428.00,94.45
3427.00,94.43
3426.00,94.43
3425.00,94.43
3424.00,94.42
3423.00,94.41
3422.00,94.42
3421.00,94.41
3420.00,94.40
3419.00,94.38
3418.00,94.36
3417.00,94.35
3416.00,94.35
3415.00,94.36
3414.00,94.34
3413.00,94.32
3412.00,94.29
3411.00,94.26
3410.00,94.23
3409.00,94.20
3408.00,94.17
3407.00,94.14
3406.00,94.12
3405.00,94.12
3404.00,94.11
3403.00,94.10
3402.00,94.09
3401.00,94.09
3400.00,94.08
3399.00,94.08
3398.00,94.07
3397.00,94.05
3396.00,94.02
3395.00,93.98
3394.00,93.94
3393.00,93.90
3392.00,93.86
3391.00,93.84
3390.00,93.83
3389.00,93.84
3388.00,93.86
3387.00,93.86
3386.00,93.84
3385.00,93.82
3384.00,93.80
3383.00,93.78
3382.00,93.77
3381.00,93.75
3380.00,93.72
3379.00,93.69
3378.00,93.66
3377.00,93.65
3376.00,93.66
3375.00,93.66
3374.00,93.65
3373.00,93.62
3372.00,93.57
3371.00,93.53
3370.00,93.52
3369.00,93.51
3368.00,93.51
3367.00,93.48
3366.00,93.44
3365.00,93.39
3364.00,93.36
3363.00,93.34
3362.00,93.32
3361.00,93.29
3360.00,93.26
3359.00,93.21
3358.00,93.16
3357.00,93.12
3356.00,93.08
3355.00,93.04
3354.00,93.02
3353.00,93.01
3352.00,93.00
3351.00,92.98
3350.00,92.95
3349.00,92.92
3348.00,92.87
3347.00,92.82
3346.00,92.77
3345.00,92.71
3344.00,92.66
3343.00,92.60
3342.00,92.53
3341.00,92.45
3340.00,92.38
3339.00,92.32
3338.00,92.27
3337.00,92.23
3336.00,92.17
3335.00,92.11
3334.00,92.06
3333.00,92.02
3332.00,91.97
3331.00,91.90
3330.00,91.82
3329.00,91.72
3328.00,91.61
3327.00,91.52
3326.00,91.44
3325.00,91.37
3324.00,91.30
3323.00,91.23
3322.00,91.16
3321.00,91.07
3320.00,90.99
3319.00,90.89
3318.00,90.80
3317.00,90.69
3316.00,90.59
3315.00,90.49
3314.00,90.39
3313.00,90.31
3312.00,90.22
3311.00,90.12
3310.00,90.03
3309.00,89.93
3308.00,89.83
3307.00,89.72
3306.00,89.60
3305.00,89.47
3304.00,89.36
3303.00,89.24
3302.00,89.13
3301.00,89.01
3300.00,88.89
3299.00,88.78
3298.00,88.68
3297.00,88.58
3296.00,88.47
3295.00,88.38
3294.00,88.30
3293.00,88.22
3292.00,88.15
3291.00,88.09
3290.00,88.02
3289.00,87.95
3288.00,87.89
3287.00,87.83
3286.00,87.77
3285.00,87.71
3284.00,87.66
3283.00,87.61
3282.00,87.58
3281.00,87.57
3280.00,87.58
3279.00,87.60
3278.00,87.62
3277.00,87.64
3276.00,87.68
3275.00,87.74
3274.00,87.79
3273.00,87.84
3272.00,87.87
3271.00,87.91
3270.00,87.97
3269.00,88.04
3268.00,88.12
3267.00,88.19
3266.00,88.25
3265.00,88.31
3264.00,88.38
3263.00,88.45
3262.00,88.53
3261.00,88.63
3260.00,88.72
3259.00,88.80
3258.00,88.87
3257.00,88.93
3256.00,89.00
3255.00,89.08
3254.00,89.17
3253.00,89.26
3252.00,89.35
3251.00,89.43
3250.00,89.52
3249.00,89.60
3248.00,89.67
3247.00,89.75
3246.00,89.83
3245.00,89.89
3244.00,89.94
3243.00,89.98
3242.00,90.02
3241.00,90.08
3240.00,90.14
3239.00,90.20
3238.00,90.25
3237.00,90.31
3236.00,90.35
3235.00,90.40
3234.00,90.45
3233.00,90.50
3232.00,90.54
3231.00,90.58
3230.00,90.63
3229.00,90.70
3228.00,90.76
3227.00,90.81
3226.00,90.85
3225.00,90.88
3224.00,90.91
3223.00,90.96
3222.00,91.01
3221.00,91.07
3220.00,91.12
3219.00,91.17
3218.00,91.22
3217.00,91.27
3216.00,91.31
3215.00,91.35
3214.00,91.38
3213.00,91.42
3212.00,91.46
3211.00,91.50
3210.00,91.52
3209.00,91.54
3208.00,91.57
3207.00,91.61
3206.00,91.67
3205.00,91.73
3204.00,91.77
3203.00,91.80
3202.00,91.82
3201.00,91.85
3200.00,91.89
3199.00,91.94
3198.00,91.99
3197.00,92.04
3196.00,92.08
3195.00,92.11
3194.00,92.15
3193.00,92.18
3192.00,92.22
3191.00,92.27
3190.00,92.33
3189.00,92.37
3188.00,92.40
3187.00,92.41
3186.00,92.42
3185.00,92.44
3184.00,92.46
3183.00,92.49
3182.00,92.52
3181.00,92.56
3180.00,92.60
3179.00,92.64
3178.00,92.68
3177.00,92.70
3176.00,92.72
3175.00,92.75
3174.00,92.79
3173.00,92.83
3172.00,92.88
3171.00,92.93
3170.00,92.97
3169.00,93.01
3168.00,93.03
3167.00,93.06
3166.00,93.09
3165.00,93.13
3164.00,93.17
3163.00,93.20
3162.00,93.21
3161.00,93.22
3160.00,93.22
3159.00,93.24
3158.00,93.27
3157.00,93.31
3156.00,93.35
3155.00,93.39
3154.00,93.42
3153.00,93.44
3152.00,93.46
3151.00,93.46
3150.00,93.48
3149.00,93.51
3148.00,93.55
3147.00,93.59
3146.00,93.61
3145.00,93.63
3144.00,93.65
3143.00,93.67
3142.00,93.69
3141.00,93.71
3140.00,93.72
3139.00,93.73
3138.00,93.74
3137.00,93.75
3136.00,93.77
3135.00,93.79
3134.00,93.82
3133.00,93.84
3132.00,93.86
3131.00,93.87
3130.00,93.87
3129.00,93.87
3128.00,93.86
3127.00,93.85
3126.00,93.84
3125.00,93.84
3124.00,93.85
3123.00,93.87
3122.00,93.87
3121.00,93.86
3120.00,93.84
3119.00,93.82
3118.00,93.81
3117.00,93.81
3116.00,93.81
3115.00,93.82
3114.00,93.82
3113.00,93.82
3112.00,93.82
3111.00,93.81
3110.00,93.82
3109.00,93.82
3108.00,93.81
3107.00,93.79
3106.00,93.77
3105.00,93.75
3104.00,93.73
3103.00,93.72
3102.00,93.73
3101.00,93.74
3100.00,93.74
3099.00,93.74
3098.00,93.72
3097.00,93.69
3096.00,93.68
3095.00,93.68
3094.00,93.68
3093.00,93.67
3092.00,93.67
3091.00,93.66
3090.00,93.65
3089.00,93.64
3088.00,93.62
3087.00,93.60
3086.00,93.58
3085.00,93.56
3084.00,93.55
3083.00,93.54
3082.00,93.54
3081.00,93.56
3080.00,93.57
3079.00,93.58
3078.00,93.58
3077.00,93.57
3076.00,93.56
3075.00,93.55
3074.00,93.54
3073.00,93.54
3072.00,93.53
3071.00,93.53
3070.00,93.54
3069.00,93.54
3068.00,93.55
3067.00,93.55
3066.00,93.56
3065.00,93.58
3064.00,93.62
3063.00,93.65
3062.00,93.67
3061.00,93.69
3060.00,93.69
3059.00,93.70
3058.00,93.70
3057.00,93.71
3056.00,93.74
3055.00,93.77
3054.00,93.80
3053.00,93.83
3052.00,93.85
3051.00,93.87
3050.00,93.90
3049.00,93.92
3048.00,93.95
3047.00,93.97
3046.00,94.00
3045.00,94.02
3044.00,94.04
3043.00,94.07
3042.00,94.10
3041.00,94.12
3040.00,94.15
3039.00,94.18
3038.00,94.21
3037.00,94.24
3036.00,94.27
3035.00,94.30
3034.00,94.32
3033.00,94.34
3032.00,94.35
3031.00,94.35
3030.00,94.36
3029.00,94.37
3028.00,94.37
3027.00,94.38
3026.00,94.39
3025.00,94.40
3024.00,94.42
3023.00,94.44
3022.00,94.46
3021.00,94.47
3020.00,94.48
3019.00,94.49
3018.00,94.51
3017.00,94.53
3016.00,94.55
3015.00,94.58
3014.00,94.59
3013.00,94.59
3012.00,94.59
3011.00,94.59
3010.00,94.58
3009.00,94.59
3008.00,94.59
3007.00,94.61
3006.00,94.61
3005.00,94.61
3004.00,94.60
3003.00,94.59
3002.00,94.58
3001.00,94.58
3000.00,94.57
2999.00,94.55
2998.00,94.54
2997.00,94.52
2996.00,94.50
2995.00,94.48
2994.00,94.45
2993.00,94.44
2992.00,94.43
2991.00,94.43
2990.00,94.43
2989.00,94.42
2988.00,94.39
2987.00,94.36
2986.00,94.33
2985.00,94.30
2984.00,94.28
2983.00,94.25
2982.00,94.23
2981.00,94.21
2980.00,94.20
2979.00,94.19
2978.00,94.17
2977.00,94.16
2976.00,94.16
2975.00,94.17
2974.00,94.18
2973.00,94.19
2972.00,94.19
2971.00,94.18
2970.00,94.15
2969.00,94.14
2968.00,94.13
2967.00,94.13
2966.00,94.12
2965.00,94.11
2964.00,94.11
2963.00,94.12
2962.00,94.16
2961.00,94.21
2960.00,94.24
2959.00,94.27
2958.00,94.27
2957.00,94.27
2956.00,94.27
2955.00,94.28
2954.00,94.29
2953.00,94.29
2952.00,94.29
2951.00,94.28
2950.00,94.26
2949.00,94.25
2948.00,94.24
2947.00,94.22
2946.00,94.19
2945.00,94.15
2944.00,94.09
2943.00,94.04
2942.00,94.00
2941.00,93.96
2940.00,93.94
2939.00,93.91
2938.00,93.87
2937.00,93.82
2936.00,93.77
2935.00,93.74
2934.00,93.72
2933.00,93.71
2932.00,93.72
2931.00,93.71
2930.00,93.69
2929.00,93.67
2928.00,93.66
2927.00,93.65
2926.00,93.66
2925.00,93.67
2924.00,93.68
2923.00,93.69
2922.00,93.70
2921.00,93.71
2920.00,93.73
2919.00,93.76
2918.00,93.79
2917.00,93.82
2916.00,93.86
2915.00,93.91
2914.00,93.97
2913.00,94.03
2912.00,94.10
2911.00,94.16
2910.00,94.22
2909.00,94.26
2908.00,94.30
2907.00,94.34
2906.00,94.37
2905.00,94.39
2904.00,94.40
2903.00,94.41
2902.00,94.43
2901.00,94.45
2900.00,94.48
2899.00,94.50
2898.00,94.53
2897.00,94.55
2896.00,94.56
2895.00,94.57
2894.00,94.58
2893.00,94.58
2892.00,94.59
2891.00,94.61
2890.00,94.61
2889.00,94.61
2888.00,94.62
2887.00,94.62
2886.00,94.63
2885.00,94.65
2884.00,94.67
2883.00,94.68
2882.00,94.69
2881.00,94.68
2880.00,94.68
2879.00,94.67
2878.00,94.67
2877.00,94.67
2876.00,94.68
2875.00,94.68
2874.00,94.68
2873.00,94.68
2872.00,94.67
2871.00,94.67
2870.00,94.68
2869.00,94.70
2868.00,94.72
2867.00,94.74
2866.00,94.75
2865.00,94.75
2864.00,94.75
2863.00,94.75
2862.00,94.77
2861.00,94.79
2860.00,94.80
2859.00,94.81
2858.00,94.80
2857.00,94.79
2856.00,94.78
2855.00,94.77
2854.00,94.76
2853.00,94.74
2852.00,94.73
2851.00,94.74
2850.00,94.76
2849.00,94.78
2848.00,94.82
2847.00,94.88
2846.00,94.94
2845.00,94.99
2844.00,95.03
2843.00,95.07
2842.00,95.11
2841.00,95.16
2840.00,95.21
2839.00,95.24
2838.00,95.25
2837.00,95.26
2836.00,95.27
2835.00,95.28
2834.00,95.29
2833.00,95.31
2832.00,95.32
2831.00,95.33
2830.00,95.33
2829.00,95.32
2828.00,95.32
2827.00,95.33
2826.00,95.35
2825.00,95.36
2824.00,95.36
2823.00,95.36
2822.00,95.35
2821.00,95.35
2820.00,95.36
2819.00,95.39
2818.00,95.42
2817.00,95.44
2816.00,95.44
2815.00,95.44
2814.00,95.42
2813.00,95.42
2812.00,95.41
2811.00,95.40
2810.00,95.39
2809.00,95.39
2808.00,95.41
2807.00,95.43
2806.00,95.44
2805.00,95.45
2804.00,95.44
2803.00,95.43
2802.00,95.43
2801.00,95.44
2800.00,95.45
2799.00,95.47
2798.00,95.47
2797.00,95.48
2796.00,95.47
2795.00,95.47
2794.00,95.47
2793.00,95.48
2792.00,95.49
2791.00,95.51
2790.00,95.51
2789.00,95.52
2788.00,95.51
2787.00,95.51
2786.00,95.52
2785.00,95.54
2784.00,95.55
2783.00,95.56
2782.00,95.55
2781.00,95.55
2780.00,95.55
2779.00,95.56
2778.00,95.58
2777.00,95.59
2776.00,95.61
2775.00,95.62
2774.00,95.62
2773.00,95.62
2772.00,95.62
2771.00,95.64
2770.00,95.65
2769.00,95.65
2768.00,95.65
2767.00,95.64
2766.00,95.64
2765.00,95.65
2764.00,95.65
2763.00,95.66
2762.00,95.66
2761.00,95.67
2760.00,95.68
2759.00,95.68
2758.00,95.69
2757.00,95.69
2756.00,95.70
2755.00,95.71
2754.00,95.72
2753.00,95.72
2752.00,95.71
2751.00,95.70
2750.00,95.69
2749.00,95.70
2748.00,95.71
2747.00,95.72
2746.00,95.74
2745.00,95.75
2744.00,95.76
2743.00,95.77
2742.00,95.77
2741.00,95.77
2740.00,95.76
2739.00,95.77
2738.00,95.77
2737.00,95.78
2736.00,95.79
2735.00,95.79
2734.00,95.79
2733.00,95.79
2732.00,95.79
2731.00,95.79
2730.00,95.79
2729.00,95.80
2728.00,95.81
2727.00,95.82
2726.00,95.83
2725.00,95.84
2724.00,95.85
2723.00,95.87
2722.00,95.88
2721.00,95.89
2720.00,95.89
2719.00,95.88
2718.00,95.87
2717.00,95.87
2716.00,95.88
2715.00,95.90
2714.00,95.92
2713.00,95.92
2712.00,95.92
2711.00,95.92
2710.00,95.93
2709.00,95.94
2708.00,95.95
2707.00,95.96
2706.00,95.95
2705.00,95.95
2704.00,95.95
2703.00,95.95
2702.00,95.95
2701.00,95.95
2700.00,95.95
2699.00,95.95
2698.00,95.96
2697.00,95.96
2696.00,95.96
2695.00,95.96
2694.00,95.96
2693.00,95.96
2692.00,95.97
2691.00,95.98
2690.00,95.99
2689.00,95.99
2688.00,95.98
2687.00,95.97
2686.00,95.96
2685.00,95.94
2684.00,95.94
2683.00,95.93
2682.00,95.94
2681.00,95.96
2680.00,95.99
2679.00,96.00
2678.00,96.02
2677.00,96.03
2676.00,96.04
2675.00,96.05
2674.00,96.05
2673.00,96.05
2672.00,96.04
2671.00,96.04
2670.00,96.04
2669.00,96.04
2668.00,96.05
2667.00,96.04
2666.00,96.04
2665.00,96.03
2664.00,96.02
2663.00,96.02
2662.00,96.03
2661.00,96.03
2660.00,96.03
2659.00,96.03
2658.00,96.01
2657.00,95.99
2656.00,95.98
2655.00,95.97
2654.00,95.97
2653.00,95.97
2652.00,95.97
2651.00,95.96
2650.00,95.96
2649.00,95.94
2648.00,95.93
2647.00,95.91
2646.00,95.89
2645.00,95.87
2644.00,95.86
2643.00,95.85
2642.00,95.86
2641.00,95.86
2640.00,95.86
2639.00,95.86
2638.00,95.85
2637.00,95.85
2636.00,95.84
2635.00,95.82
2634.00,95.81
2633.00,95.80
2632.00,95.80
2631.00,95.80
2630.00,95.79
2629.00,95.79
2628.00,95.78
2627.00,95.78
2626.00,95.77
2625.00,95.76
2624.00,95.75
2623.00,95.74
2622.00,95.73
2621.00,95.73
2620.00,95.73
2619.00,95.73
2618.00,95.73
2617.00,95.71
2616.00,95.70
2615.00,95.68
2614.00,95.66
2613.00,95.65
2612.00,95.64
2611.00,95.64
2610.00,95.65
2609.00,95.66
2608.00,95.68
2607.00,95.70
2606.00,95.70
2605.00,95.69
2604.00,95.69
2603.00,95.68
2602.00,95.67
2601.00,95.67
2600.00,95.66
2599.00,95.66
2598.00,95.67
2597.00,95.68
2596.00,95.69
2595.00,95.70
2594.00,95.69
2593.00,95.67
2592.00,95.65
2591.00,95.66
2590.00,95.67
2589.00,95.68
2588.00,95.68
2587.00,95.67
2586.00,95.65
2585.00,95.63
2584.00,95.62
2583.00,95.63
2582.00,95.63
2581.00,95.64
2580.00,95.63
2579.00,95.63
2578.00,95.62
2577.00,95.61
2576.00,95.60
2575.00,95.61
2574.00,95.60
2573.00,95.60
2572.00,95.60
2571.00,95.60
2570.00,95.61
2569.00,95.63
2568.00,95.65
2567.00,95.66
2566.00,95.66
2565.00,95.65
2564.00,95.64
2563.00,95.62
2562.00,95.62
2561.00,95.62
2560.00,95.63
2559.00,95.64
2558.00,95.65
2557.00,95.66
2556.00,95.66
2555.00,95.67
2554.00,95.68
2553.00,95.68
2552.00,95.68
2551.00,95.68
2550.00,95.68
2549.00,95.66
2548.00,95.66
2547.00,95.67
2546.00,95.69
2545.00,95.71
2544.00,95.72
2543.00,95.72
2542.00,95.71
2541.00,95.68
2540.00,95.66
2539.00,95.63
2538.00,95.62
2537.00,95.61
2536.00,95.61
2535.00,95.62
2534.00,95.63
2533.00,95.63
2532.00,95.62
2531.00,95.62
2530.00,95.63
2529.00,95.65
2528.00,95.66
2527.00,95.66
2526.00,95.65
2525.00,95.64
2524.00,95.63
2523.00,95.64
2522.00,95.65
2521.00,95.66
2520.00,95.67
2519.00,95.67
2518.00,95.67
2517.00,95.67
2516.00,95.67
2515.00,95.68
2514.00,95.70
2513.00,95.71
2512.00,95.70
2511.00,95.67
2510.00,95.62
2509.00,95.59
2508.00,95.59
2507.00,95.63
2506.00,95.68
2505.00,95.72
2504.00,95.74
2503.00,95.76
2502.00,95.76
2501.00,95.76
2500.00,95.76
2499.00,95.76
2498.00,95.75
2497.00,95.73
2496.00,95.71
2495.00,95.69
2494.00,95.70
2493.00,95.71
2492.00,95.74
2491.00,95.76
2490.00,95.78
2489.00,95.80
2488.00,95.80
2487.00,95.79
2486.00,95.77
2485.00,95.75
2484.00,95.74
2483.00,95.74
2482.00,95.74
2481.00,95.74
2480.00,95.74
2479.00,95.74
2478.00,95.75
2477.00,95.76
2476.00,95.76
2475.00,95.74
2474.00,95.72
2473.00,95.70
2472.00,95.69
2471.00,95.71
2470.00,95.74
2469.00,95.78
2468.00,95.80
2467.00,95.80
2466.00,95.80
2465.00,95.79
2464.00,95.77
2463.00,95.75
2462.00,95.73
2461.00,95.73
2460.00,95.74
2459.00,95.76
2458.00,95.77
2457.00,95.79
2456.00,95.80
2455.00,95.80
2454.00,95.80
2453.00,95.79
2452.00,95.78
2451.00,95.77
2450.00,95.76
2449.00,95.75
2448.00,95.76
2447.00,95.77
2446.00,95.79
2445.00,95.80
2444.00,95.81
2443.00,95.80
2442.00,95.78
2441.00,95.77
2440.00,95.76
2439.00,95.76
2438.00,95.75
2437.00,95.74
2436.00,95.73
2435.00,95.75
2434.00,95.77
2433.00,95.79
2432.00,95.80
2431.00,95.81
2430.00,95.82
2429.00,95.82
2428.00,95.82
2427.00,95.81
2426.00,95.82
2425.00,95.83
2424.00,95.84
2423.00,95.84
2422.00,95.84
2421.00,95.84
2420.00,95.84
2419.00,95.86
2418.00,95.88
2417.00,95.88
2416.00,95.88
2415.00,95.89
2414.00,95.89
2413.00,95.90
2412.00,95.91
2411.00,95.93
2410.00,95.94
2409.00,95.95
2408.00,95.96
2407.00,95.97
2406.00,95.99
2405.00,95.99
2404.00,95.98
2403.00,95.97
2402.00,95.97
2401.00,95.99
2400.00,96.00
2399.00,96.02
2398.00,96.03
2397.00,96.03
2396.00,96.04
2395.00,96.06
2394.00,96.09
2393.00,96.11
2392.00,96.11
2391.00,96.11
2390.00,96.11
2389.00,96.12
2388.00,96.14
2387.00,96.16
2386.00,96.17
2385.00,96.18
2384.00,96.20
2383.00,96.22
2382.00,96.23
2381.00,96.23
2380.00,96.24
2379.00,96.27
2378.00,96.30
2377.00,96.31
2376.00,96.32
2375.00,96.33
2374.00,96.35
2373.00,96.35
2372.00,96.33
2371.00,96.31
2370.00,96.31
2369.00,96.32
2368.00,96.34
2367.00,96.35
2366.00,96.34
2365.00,96.32
2364.00,96.32
2363.00,96.36
2362.00,96.43
2361.00,96.46
2360.00,96.45
2359.00,96.42
2358.00,96.38
2357.00,96.36
2356.00,96.35
2355.00,96.37
2354.00,96.41
2353.00,96.44
2352.00,96.44
2351.00,96.42
2350.00,96.39
2349.00,96.39
2348.00,96.41
2347.00,96.43
2346.00,96.44
2345.00,96.45
2344.00,96.48
2343.00,96.52
2342.00,96.54
2341.00,96.51
2340.00,96.44
2339.00,96.38
2338.00,96.36
2337.00,96.35
2336.00,96.35
2335.00,96.36
2334.00,96.37
2333.00,96.38
2332.00,96.39
2331.00,96.41
2330.00,96.42
2329.00,96.40
2328.00,96.38
2327.00,96.33
2326.00,96.27
2325.00,96.21
2324.00,96.15
2323.00,96.13
2322.00,96.13
2321.00,96.14
2320.00,96.13
2319.00,96.13
2318.00,96.12
2317.00,96.11
2316.00,96.10
2315.00,96.08
2314.00,96.07
2313.00,96.05
2312.00,96.06
2311.00,96.07
2310.00,96.09
2309.00,96.08
2308.00,96.05
2307.00,96.01
2306.00,95.98
2305.00,95.97
2304.00,95.96
2303.00,95.94
2302.00,95.91
2301.00,95.86
2300.00,95.83
2299.00,95.81
2298.00,95.82
2297.00,95.83
2296.00,95.84
2295.00,95.84
2294.00,95.83
2293.00,95.81
2292.00,95.78
2291.00,95.73
2290.00,95.68
2289.00,95.63
2288.00,95.61
2287.00,95.60
2286.00,95.61
2285.00,95.62
2284.00,95.64
2283.00,95.64
2282.00,95.63
2281.00,95.59
2280.00,95.55
2279.00,95.52
2278.00,95.51
2277.00,95.50
2276.00,95.50
2275.00,95.50
2274.00,95.51
2273.00,95.50
2272.00,95.48
2271.00,95.44
2270.00,95.40
2269.00,95.37
2268.00,95.36
2267.00,95.38
2266.00,95.39
2265.00,95.39
2264.00,95.39
2263.00,95.39
2262.00,95.38
2261.00,95.36
2260.00,95.34
2259.00,95.32
2258.00,95.30
2257.00,95.27
2256.00,95.25
2255.00,95.26
2254.00,95.28
2253.00,95.30
2252.00,95.31
2251.00,95.30
2250.00,95.28
2249.00,95.23
2248.00,95.18
2247.00,95.15
2246.00,95.15
2245.00,95.15
2244.00,95.15
2243.00,95.15
2242.00,95.16
2241.00,95.16
2240.00,95.17
2239.00,95.18
2238.00,95.18
2237.00,95.17
2236.00,95.14
2235.00,95.14
2234.00,95.13
2233.00,95.12
2232.00,95.09
2231.00,95.07
2230.00,95.05
2229.00,95.04
2228.00,95.02
2227.00,94.99
2226.00,94.96
2225.00,94.96
2224.00,94.98
2223.00,95.01
2222.00,95.02
2221.00,94.99
2220.00,94.93
2219.00,94.87
2218.00,94.84
2217.00,94.85
2216.00,94.86
2215.00,94.87
2214.00,94.87
2213.00,94.87
2212.00,94.89
2211.00,94.95
2210.00,95.01
2209.00,95.03
2208.00,94.99
2207.00,94.92
2206.00,94.84
2205.00,94.79
2204.00,94.76
2203.00,94.75
2202.00,94.75
2201.00,94.75
2200.00,94.76
2199.00,94.77
2198.00,94.76
2197.00,94.73
2196.00,94.70
2195.00,94.66
2194.00,94.65
2193.00,94.64
2192.00,94.63
2191.00,94.60
2190.00,94.54
2189.00,94.49
2188.00,94.47
2187.00,94.47
2186.00,94.47
2185.00,94.46
2184.00,94.46
2183.00,94.48
2182.00,94.51
2181.00,94.52
2180.00,94.50
2179.00,94.47
2178.00,94.46
2177.00,94.48
2176.00,94.51
2175.00,94.56
2174.00,94.59
2173.00,94.57
2172.00,94.51
2171.00,94.43
2170.00,94.33
2169.00,94.23
2168.00,94.15
2167.00,94.12
2166.00,94.14
2165.00,94.17
2164.00,94.16
2163.00,94.11
2162.00,94.06
2161.00,94.11
2160.00,94.25
2159.00,94.41
2158.00,94.49
2157.00,94.47
2156.00,94.44
2155.00,94.48
2154.00,94.56
2153.00,94.65
2152.00,94.68
2151.00,94.69
2150.00,94.69
2149.00,94.71
2148.00,94.76
2147.00,94.83
2146.00,94.89
2145.00,94.93
2144.00,94.96
2143.00,94.99
2142.00,95.01
2141.00,95.02
2140.00,95.05
2139.00,95.10
2138.00,95.15
2137.00,95.17
2136.00,95.19
2135.00,95.21
2134.00,95.25
2133.00,95.28
2132.00,95.30
2131.00,95.34
2130.00,95.39
2129.00,95.43
2128.00,95.45
2127.00,95.46
2126.00,95.50
2125.00,95.53
2124.00,95.56
2123.00,95.57
2122.00,95.57
2121.00,95.58
2120.00,95.59
2119.00,95.59
2118.00,95.57
2117.00,95.53
2116.00,95.51
2115.00,95.51
2114.00,95.53
2113.00,95.54
2112.00,95.52
2111.00,95.48
2110.00,95.43
2109.00,95.39
2108.00,95.38
2107.00,95.39
2106.00,95.42
2105.00,95.44
2104.00,95.45
2103.00,95.45
2102.00,95.43
2101.00,95.41
2100.00,95.39
2099.00,95.40
2098.00,95.42
2097.00,95.45
2096.00,95.47
2095.00,95.48
2094.00,95.48
2093.00,95.48
2092.00,95.49
2091.00,95.52
2090.00,95.54
2089.00,95.55
2088.00,95.55
2087.00,95.53
2086.00,95.50
2085.00,95.48
2084.00,95.45
2083.00,95.43
2082.00,95.41
2081.00,95.37
2080.00,95.35
2079.00,95.35
2078.00,95.36
2077.00,95.36
2076.00,95.34
2075.00,95.31
2074.00,95.28
2073.00,95.25
2072.00,95.25
2071.00,95.28
2070.00,95.32
2069.00,95.35
2068.00,95.34
2067.00,95.32
2066.00,95.32
2065.00,95.32
2064.00,95.34
2063.00,95.35
2062.00,95.35
2061.00,95.32
2060.00,95.29
2059.00,95.26
2058.00,95.25
2057.00,95.23
2056.00,95.21
2055.00,95.21
2054.00,95.20
2053.00,95.17
2052.00,95.10
2051.00,95.02
2050.00,94.93
2049.00,94.85
2048.00,94.81
2047.00,94.81
2046.00,94.82
2045.00,94.79
2044.00,94.74
2043.00,94.70
2042.00,94.69
2041.00,94.69
2040.00,94.67
2039.00,94.62
2038.00,94.58
2037.00,94.54
2036.00,94.51
2035.00,94.50
2034.00,94.49
2033.00,94.50
2032.00,94.54
2031.00,94.60
2030.00,94.67
2029.00,94.71
2028.00,94.70
2027.00,94.67
2026.00,94.66
2025.00,94.67
2024.00,94.70
2023.00,94.74
2022.00,94.77
2021.00,94.77
2020.00,94.75
2019.00,94.71
2018.00,94.68
2017.00,94.66
2016.00,94.67
2015.00,94.72
2014.00,94.78
2013.00,94.83
2012.00,94.86
2011.00,94.86
2010.00,94.83
2009.00,94.79
2008.00,94.78
2007.00,94.84
2006.00,94.94
2005.00,95.01
2004.00,95.02
2003.00,95.01
2002.00,95.01
2001.00,95.02
2000.00,95.00
1999.00,94.96
1998.00,94.92
1997.00,94.92
1996.00,94.95
1995.00,94.98
1994.00,94.99
1993.00,94.98
1992.00,94.97
1991.00,94.97
1990.00,94.96
1989.00,94.95
1988.00,94.93
1987.00,94.91
1986.00,94.87
1985.00,94.83
1984.00,94.79
1983.00,94.76
1982.00,94.73
1981.00,94.70
1980.00,94.68
1979.00,94.71
1978.00,94.76
1977.00,94.83
1976.00,94.88
1975.00,94.93
1974.00,94.97
1973.00,95.01
1972.00,95.05
1971.00,95.08
1970.00,95.10
1969.00,95.11
1968.00,95.13
1967.00,95.16
1966.00,95.20
1965.00,95.23
1964.00,95.25
1963.00,95.30
1962.00,95.36
1961.00,95.43
1960.00,95.49
1959.00,95.53
1958.00,95.54
1957.00,95.56
1956.00,95.59
1955.00,95.62
1954.00,95.64
1953.00,95.62
1952.00,95.60
1951.00,95.59
1950.00,95.61
1949.00,95.63
1948.00,95.66
1947.00,95.71
1946.00,95.76
1945.00,95.80
1944.00,95.82
1943.00,95.83
1942.00,95.83
1941.00,95.82
1940.00,95.82
1939.00,95.85
1938.00,95.90
1937.00,95.95
1936.00,95.98
1935.00,95.99
1934.00,96.00
1933.00,96.00
1932.00,96.00
1931.00,96.01
1930.00,96.03
1929.00,96.06
1928.00,96.08
1927.00,96.11
1926.00,96.14
1925.00,96.17
1924.00,96.18
1923.00,96.19
1922.00,96.20
1921.00,96.21
1920.00,96.23
1919.00,96.23
1918.00,96.22
1917.00,96.20
1916.00,96.20
1915.00,96.22
1914.00,96.25
1913.00,96.27
1912.00,96.29
1911.00,96.31
1910.00,96.33
1909.00,96.34
1908.00,96.35
1907.00,96.36
1906.00,96.37
1905.00,96.38
1904.00,96.38
1903.00,96.39
1902.00,96.38
1901.00,96.36
1900.00,96.34
1899.00,96.33
1898.00,96.33
1897.00,96.34
1896.00,96.35
1895.00,96.38
1894.00,96.41
1893.00,96.45
1892.00,96.47
1891.00,96.49
1890.00,96.47
1889.00,96.45
1888.00,96.45
1887.00,96.48
1886.00,96.53
1885.00,96.56
1884.00,96.58
1883.00,96.59
1882.00,96.60
1881.00,96.60
1880.00,96.61
1879.00,96.61
1878.00,96.60
1877.00,96.58
1876.00,96.58
1875.00,96.60
1874.00,96.63
1873.00,96.65
1872.00,96.65
1871.00,96.65
1870.00,96.66
1869.00,96.65
1868.00,96.65
1867.00,96.65
1866.00,96.67
1865.00,96.69
1864.00,96.71
1863.00,96.72
1862.00,96.73
1861.00,96.74
1860.00,96.76
1859.00,96.78
1858.00,96.80
1857.00,96.81
1856.00,96.82
1855.00,96.83
1854.00,96.84
1853.00,96.84
1852.00,96.85
1851.00,96.88
1850.00,96.91
1849.00,96.92
1848.00,96.92
1847.00,96.94
1846.00,96.95
1845.00,96.94
1844.00,96.92
1843.00,96.91
1842.00,96.93
1841.00,96.96
1840.00,96.98
1839.00,96.99
1838.00,96.99
1837.00,97.00
1836.00,97.00
1835.00,97.02
1834.00,97.05
1833.00,97.07
1832.00,97.07
1831.00,97.07
1830.00,97.07
1829.00,97.05
1828.00,97.05
1827.00,97.06
1826.00,97.08
1825.00,97.09
1824.00,97.09
1823.00,97.10
1822.00,97.10
1821.00,97.10
1820.00,97.11
1819.00,97.12
1818.00,97.15
1817.00,97.17
1816.00,97.19
1815.00,97.20
1814.00,97.20
1813.00,97.21
1812.00,97.21
1811.00,97.22
1810.00,97.23
1809.00,97.22
1808.00,97.21
1807.00,97.20
1806.00,97.20
1805.00,97.22
1804.00,97.24
1803.00,97.26
1802.00,97.27
1801.00,97.26
1800.00,97.25
1799.00,97.25
1798.00,97.25
1797.00,97.26
1796.00,97.26
1795.00,97.28
1794.00,97.30
1793.00,97.31
1792.00,97.32
1791.00,97.33
1790.00,97.34
1789.00,97.35
1788.00,97.35
1787.00,97.35
1786.00,97.35
1785.00,97.35
1784.00,97.36
1783.00,97.38
1782.00,97.40
1781.00,97.42
1780.00,97.42
1779.00,97.44
1778.00,97.45
1777.00,97.45
1776.00,97.44
1775.00,97.43
1774.00,97.44
1773.00,97.44
1772.00,97.44
1771.00,97.46
1770.00,97.48
1769.00,97.48
1768.00,97.47
1767.00,97.48
1766.00,97.50
1765.00,97.53
1764.00,97.54
1763.00,97.53
1762.00,97.52
1761.00,97.50
1760.00,97.49
1759.00,97.49
1758.00,97.48
1757.00,97.45
1756.00,97.43
1755.00,97.44
1754.00,97.47
1753.00,97.50
1752.00,97.49
1751.00,97.47
1750.00,97.46
1749.00,97.44
1748.00,97.42
1747.00,97.43
1746.00,97.44
1745.00,97.46
1744.00,97.46
1743.00,97.47
1742.00,97.49
1741.00,97.50
1740.00,97.48
1739.00,97.47
1738.00,97.47
1737.00,97.46
1736.00,97.44
1735.00,97.42
1734.00,97.41
1733.00,97.42
1732.00,97.44
1731.00,97.46
1730.00,97.49
1729.00,97.49
1728.00,97.48
1727.00,97.47
1726.00,97.47
1725.00,97.45
1724.00,97.41
1723.00,97.39
1722.00,97.38
1721.00,97.36
1720.00,97.28
1719.00,97.18
1718.00,97.10
1717.00,97.03
1716.00,96.97
1715.00,96.91
1714.00,96.82
1713.00,96.69
1712.00,96.52
1711.00,96.33
1710.00,96.14
1709.00,95.90
1708.00,95.59
1707.00,95.17
1706.00,94.63
1705.00,94.02
1704.00,93.48
1703.00,93.04
1702.00,92.58
1701.00,91.93
1700.00,91.25
1699.00,90.85
1698.00,90.74
1697.00,90.76
1696.00,90.82
1695.00,90.89
1694.00,90.98
1693.00,91.06
1692.00,91.13
1691.00,91.15
1690.00,91.11
1689.00,91.04
1688.00,90.95
1687.00,90.88
1686.00,90.81
1685.00,90.65
1684.00,90.44
1683.00,90.26
1682.00,90.12
1681.00,89.98
1680.00,89.83
1679.00,89.69
1678.00,89.56
1677.00,89.41
1676.00,89.19
1675.00,88.92
1674.00,88.69
1673.00,88.52
1672.00,88.35
1671.00,88.13
1670.00,87.86
1669.00,87.56
1668.00,87.29
1667.00,87.08
1666.00,86.91
1665.00,86.72
1664.00,86.47
1663.00,86.17
1662.00,85.86
1661.00,85.57
1660.00,85.31
1659.00,85.06
1658.00,84.83
1657.00,84.60
1656.00,84.39
1655.00,84.14
1654.00,83.74
1653.00,83.21
1652.00,82.83
1651.00,82.69
1650.00,82.61
1649.00,82.48
1648.00,82.24
1647.00,81.90
1646.00,81.56
1645.00,81.30
1644.00,81.10
1643.00,80.92
1642.00,80.74
1641.00,80.52
1640.00,80.29
1639.00,80.06
1638.00,79.84
1637.00,79.56
1636.00,79.18
1635.00,78.77
1634.00,78.48
1633.00,78.27
1632.00,78.07
1631.00,77.87
1630.00,77.66
1629.00,77.44
1628.00,77.21
1627.00,77.01
1626.00,76.88
1625.00,76.76
1624.00,76.63
1623.00,76.50
1622.00,76.42
1621.00,76.39
1620.00,76.40
1619.00,76.44
1618.00,76.54
1617.00,76.72
1616.00,76.98
1615.00,77.27
1614.00,77.58
1613.00,77.89
1612.00,78.23
1611.00,78.61
1610.00,79.03
1609.00,79.48
1608.00,79.94
1607.00,80.39
1606.00,80.85
1605.00,81.30
1604.00,81.76
1603.00,82.21
1602.00,82.65
1601.00,83.07
1600.00,83.45
1599.00,83.80
1598.00,84.11
1597.00,84.41
1596.00,84.70
1595.00,84.99
1594.00,85.27
1593.00,85.55
1592.00,85.83
1591.00,86.09
1590.00,86.34
1589.00,86.57
1588.00,86.78
1587.00,86.97
1586.00,87.13
1585.00,87.26
1584.00,87.37
1583.00,87.46
1582.00,87.51
1581.00,87.54
1580.00,87.55
1579.00,87.53
1578.00,87.49
1577.00,87.43
1576.00,87.38
1575.00,87.34
1574.00,87.30
1573.00,87.26
1572.00,87.19
1571.00,87.06
1570.00,86.87
1569.00,86.66
1568.00,86.49
1567.00,86.33
1566.00,86.14
1565.00,85.91
1564.00,85.69
1563.00,85.50
1562.00,85.37
1561.00,85.22
1560.00,84.94
1559.00,84.52
1558.00,84.16
1557.00,83.96
1556.00,83.85
1555.00,83.72
1554.00,83.56
1553.00,83.38
1552.00,83.21
1551.00,83.04
1550.00,82.83
1549.00,82.62
1548.00,82.44
1547.00,82.26
1546.00,82.05
1545.00,81.80
1544.00,81.57
1543.00,81.37
1542.00,81.14
1541.00,80.84
1540.00,80.49
1539.00,80.22
1538.00,80.06
1537.00,79.96
1536.00,79.86
1535.00,79.68
1534.00,79.40
1533.00,79.08
1532.00,78.82
1531.00,78.62
1530.00,78.43
1529.00,78.22
1528.00,77.98
1527.00,77.72
1526.00,77.45
1525.00,77.19
1524.00,76.96
1523.00,76.70
1522.00,76.37
1521.00,76.02
1520.00,75.73
1519.00,75.50
1518.00,75.23
1517.00,74.90
1516.00,74.59
1515.00,74.38
1514.00,74.26
1513.00,74.20
1512.00,74.18
1511.00,74.19
1510.00,74.21
1509.00,74.23
1508.00,74.27
1507.00,74.35
1506.00,74.44
1505.00,74.59
1504.00,74.79
1503.00,74.99
1502.00,75.19
1501.00,75.41
1500.00,75.63
1499.00,75.86
1498.00,76.09
1497.00,76.36
1496.00,76.67
1495.00,76.99
1494.00,77.31
1493.00,77.63
1492.00,77.96
1491.00,78.29
1490.00,78.63
1489.00,78.98
1488.00,79.32
1487.00,79.65
1486.00,79.97
1485.00,80.29
1484.00,80.61
1483.00,80.92
1482.00,81.22
1481.00,81.50
1480.00,81.77
1479.00,82.03
1478.00,82.27
1477.00,82.48
1476.00,82.67
1475.00,82.84
1474.00,82.99
1473.00,83.13
1472.00,83.23
1471.00,83.34
1470.00,83.47
1469.00,83.61
1468.00,83.74
1467.00,83.85
1466.00,83.93
1465.00,83.96
1464.00,83.98
1463.00,84.00
1462.00,84.03
1461.00,84.03
1460.00,83.99
1459.00,83.88
1458.00,83.68
1457.00,83.39
1456.00,83.12
1455.00,82.92
1454.00,82.75
1453.00,82.54
1452.00,82.31
1451.00,82.08
1450.00,81.88
1449.00,81.70
1448.00,81.53
1447.00,81.39
1446.00,81.30
1445.00,81.26
1444.00,81.25
1443.00,81.26
1442.00,81.29
1441.00,81.33
1440.00,81.40
1439.00,81.51
1438.00,81.65
1437.00,81.81
1436.00,82.00
1435.00,82.23
1434.00,82.48
1433.00,82.75
1432.00,83.01
1431.00,83.25
1430.00,83.47
1429.00,83.68
1428.00,83.86
1427.00,84.04
1426.00,84.18
1425.00,84.30
1424.00,84.38
1423.00,84.45
1422.00,84.53
1421.00,84.61
1420.00,84.65
1419.00,84.64
1418.00,84.60
1417.00,84.57
1416.00,84.56
1415.00,84.55
1414.00,84.53
1413.00,84.51
1412.00,84.48
1411.00,84.43
1410.00,84.39
1409.00,84.35
1408.00,84.34
1407.00,84.34
1406.00,84.35
1405.00,84.37
1404.00,84.39
1403.00,84.43
1402.00,84.50
1401.00,84.57
1400.00,84.63
1399.00,84.68
1398.00,84.75
1397.00,84.83
1396.00,84.91
1395.00,84.95
1394.00,84.98
1393.00,85.01
1392.00,85.05
1391.00,85.11
1390.00,85.17
1389.00,85.22
1388.00,85.25
1387.00,85.27
1386.00,85.30
1385.00,85.33
1384.00,85.38
1383.00,85.43
1382.00,85.47
1381.00,85.50
1380.00,85.54
1379.00,85.57
1378.00,85.60
1377.00,85.62
1376.00,85.63
1375.00,85.63
1374.00,85.62
1373.00,85.62
1372.00,85.62
1371.00,85.62
1370.00,85.63
1369.00,85.65
1368.00,85.69
1367.00,85.74
1366.00,85.82
1365.00,85.92
1364.00,86.03
1363.00,86.16
1362.00,86.30
1361.00,86.42
1360.00,86.55
1359.00,86.66
1358.00,86.77
1357.00,86.88
1356.00,86.97
1355.00,87.05
1354.00,87.11
1353.00,87.16
1352.00,87.20
1351.00,87.23
1350.00,87.25
1349.00,87.27
1348.00,87.29
1347.00,87.29
1346.00,87.29
1345.00,87.28
1344.00,87.26
1343.00,87.24
1342.00,87.20
1341.00,87.17
1340.00,87.14
1339.00,87.14
1338.00,87.14
1337.00,87.15
1336.00,87.16
1335.00,87.17
1334.00,87.18
1333.00,87.20
1332.00,87.22
1331.00,87.25
1330.00,87.29
1329.00,87.34
1328.00,87.39
1327.00,87.45
1326.00,87.51
1325.00,87.57
1324.00,87.62
1323.00,87.67
1322.00,87.72
1321.00,87.75
1320.00,87.76
1319.00,87.77
1318.00,87.78
1317.00,87.80
1316.00,87.83
1315.00,87.86
1314.00,87.88
1313.00,87.89
1312.00,87.90
1311.00,87.89
1310.00,87.90
1309.00,87.92
1308.00,87.95
1307.00,87.98
1306.00,88.00
1305.00,88.00
1304.00,88.01
1303.00,88.02
1302.00,88.04
1301.00,88.07
1300.00,88.10
1299.00,88.13
1298.00,88.16
1297.00,88.19
1296.00,88.22
1295.00,88.24
1294.00,88.25
1293.00,88.25
1292.00,88.25
1291.00,88.25
1290.00,88.24
1289.00,88.23
1288.00,88.22
1287.00,88.20
1286.00,88.18
1285.00,88.15
1284.00,88.10
1283.00,88.04
1282.00,87.97
1281.00,87.90
1280.00,87.81
1279.00,87.71
1278.00,87.59
1277.00,87.47
1276.00,87.33
1275.00,87.16
1274.00,86.97
1273.00,86.77
1272.00,86.56
1271.00,86.34
1270.00,86.12
1269.00,85.92
1268.00,85.72
1267.00,85.53
1266.00,85.35
1265.00,85.20
1264.00,85.08
1263.00,84.98
1262.00,84.91
1261.00,84.84
1260.00,84.80
1259.00,84.78
1258.00,84.77
1257.00,84.75
1256.00,84.73
1255.00,84.71
1254.00,84.69
1253.00,84.68
1252.00,84.67
1251.00,84.66
1250.00,84.63
1249.00,84.59
1248.00,84.53
1247.00,84.45
1246.00,84.35
1245.00,84.24
1244.00,84.12
1243.00,83.98
1242.00,83.85
1241.00,83.71
1240.00,83.57
1239.00,83.42
1238.00,83.26
1237.00,83.07
1236.00,82.88
1235.00,82.69
1234.00,82.50
1233.00,82.33
1232.00,82.16
1231.00,82.02
1230.00,81.90
1229.00,81.82
1228.00,81.77
1227.00,81.77
1226.00,81.81
1225.00,81.87
1224.00,81.95
1223.00,82.04
1222.00,82.14
1221.00,82.25
1220.00,82.35
1219.00,82.47
1218.00,82.59
1217.00,82.72
1216.00,82.85
1215.00,83.00
1214.00,83.17
1213.00,83.38
1212.00,83.61
1211.00,83.84
1210.00,84.06
1209.00,84.27
1208.00,84.46
1207.00,84.65
1206.00,84.87
1205.00,85.12
1204.00,85.40
1203.00,85.66
1202.00,85.90
1201.00,86.12
1200.00,86.31
1199.00,86.49
1198.00,86.66
1197.00,86.82
1196.00,86.97
1195.00,87.11
1194.00,87.24
1193.00,87.37
1192.00,87.50
1191.00,87.62
1190.00,87.73
1189.00,87.81
1188.00,87.89
1187.00,87.95
1186.00,88.01
1185.00,88.07
1184.00,88.11
1183.00,88.12
1182.00,88.10
1181.00,88.06
1180.00,88.00
1179.00,87.93
1178.00,87.83
1177.00,87.70
1176.00,87.57
1175.00,87.43
1174.00,87.29
1173.00,87.15
1172.00,87.02
1171.00,86.90
1170.00,86.79
1169.00,86.70
1168.00,86.63
1167.00,86.56
1166.00,86.50
1165.00,86.44
1164.00,86.39
1163.00,86.35
1162.00,86.32
1161.00,86.31
1160.00,86.33
1159.00,86.38
1158.00,86.44
1157.00,86.50
1156.00,86.56
1155.00,86.63
1154.00,86.74
1153.00,86.87
1152.00,87.01
1151.00,87.14
1150.00,87.26
1149.00,87.38
1148.00,87.52
1147.00,87.67
1146.00,87.84
1145.00,88.01
1144.00,88.15
1143.00,88.27
1142.00,88.37
1141.00,88.45
1140.00,88.54
1139.00,88.63
1138.00,88.72
1137.00,88.79
1136.00,88.85
1135.00,88.91
1134.00,88.97
1133.00,89.04
1132.00,89.11
1131.00,89.17
1130.00,89.23
1129.00,89.28
1128.00,89.31
1127.00,89.33
1126.00,89.35
1125.00,89.39
1124.00,89.42
1123.00,89.46
1122.00,89.49
1121.00,89.52
1120.00,89.54
1119.00,89.55
1118.00,89.56
1117.00,89.59
1116.00,89.63
1115.00,89.67
1114.00,89.70
1113.00,89.74
1112.00,89.76
1111.00,89.76
1110.00,89.71
1109.00,89.64
1108.00,89.57
1107.00,89.52
1106.00,89.50
1105.00,89.50
1104.00,89.50
1103.00,89.50
1102.00,89.50
1101.00,89.53
1100.00,89.58
1099.00,89.63
1098.00,89.67
1097.00,89.68
1096.00,89.69
1095.00,89.69
1094.00,89.69
1093.00,89.71
1092.00,89.73
1091.00,89.70
1090.00,89.62
1089.00,89.50
1088.00,89.36
1087.00,89.23
1086.00,89.12
1085.00,89.04
1084.00,88.95
1083.00,88.85
1082.00,88.73
1081.00,88.58
1080.00,88.43
1079.00,88.28
1078.00,88.13
1077.00,87.98
1076.00,87.83
1075.00,87.68
1074.00,87.54
1073.00,87.41
1072.00,87.31
1071.00,87.23
1070.00,87.18
1069.00,87.13
1068.00,87.09
1067.00,87.06
1066.00,87.05
1065.00,87.04
1064.00,87.05
1063.00,87.05
1062.00,87.06
1061.00,87.07
1060.00,87.11
1059.00,87.15
1058.00,87.21
1057.00,87.25
1056.00,87.30
1055.00,87.34
1054.00,87.39
1053.00,87.45
1052.00,87.52
1051.00,87.56
1050.00,87.58
1049.00,87.57
1048.00,87.58
1047.00,87.60
1046.00,87.65
1045.00,87.72
1044.00,87.80
1043.00,87.87
1042.00,87.93
1041.00,87.97
1040.00,87.99
1039.00,88.02
1038.00,88.06
1037.00,88.13
1036.00,88.21
1035.00,88.29
1034.00,88.37
1033.00,88.44
1032.00,88.52
1031.00,88.60
1030.00,88.68
1029.00,88.75
1028.00,88.82
1027.00,88.89
1026.00,88.97
1025.00,89.04
1024.00,89.11
1023.00,89.16
1022.00,89.19
1021.00,89.20
1020.00,89.20
1019.00,89.19
1018.00,89.17
1017.00,89.15
1016.00,89.12
1015.00,89.09
1014.00,89.07
1013.00,89.07
1012.00,89.09
1011.00,89.11
1010.00,89.10
1009.00,89.06
1008.00,88.99
1007.00,88.90
1006.00,88.81
1005.00,88.73
1004.00,88.63
1003.00,88.52
1002.00,88.41
1001.00,88.31
1000.00,88.22
999.00,88.17
998.00,88.15
997.00,88.15
996.00,88.15
995.00,88.16
994.00,88.16
993.00,88.20
992.00,88.28
991.00,88.40
990.00,88.55
989.00,88.70
988.00,88.84
987.00,88.95
986.00,89.03
985.00,89.07
984.00,89.07
983.00,89.03
982.00,88.94
981.00,88.82
980.00,88.69
979.00,88.56
978.00,88.45
977.00,88.35
976.00,88.30
975.00,88.28
974.00,88.29
973.00,88.31
972.00,88.36
971.00,88.43
970.00,88.53
969.00,88.65
968.00,88.78
967.00,88.90
966.00,89.03
965.00,89.16
964.00,89.29
963.00,89.40
962.00,89.49
961.00,89.56
960.00,89.63
959.00,89.70
958.00,89.77
957.00,89.84
956.00,89.92
955.00,90.01
954.00,90.08
953.00,90.13
952.00,90.17
951.00,90.21
950.00,90.24
949.00,90.27
948.00,90.31
947.00,90.36
946.00,90.43
945.00,90.49
944.00,90.53
943.00,90.54
942.00,90.54
941.00,90.54
940.00,90.55
939.00,90.57
938.00,90.60
937.00,90.62
936.00,90.63
935.00,90.64
934.00,90.64
933.00,90.66
932.00,90.68
931.00,90.70
930.00,90.72
929.00,90.74
928.00,90.78
927.00,90.80
926.00,90.80
925.00,90.79
924.00,90.78
923.00,90.81
922.00,90.87
921.00,90.94
920.00,91.02
919.00,91.08
918.00,91.14
917.00,91.20
916.00,91.28
915.00,91.35
914.00,91.40
913.00,91.43
912.00,91.45
911.00,91.46
910.00,91.47
909.00,91.48
908.00,91.48
907.00,91.49
906.00,91.50
905.00,91.52
904.00,91.54
903.00,91.55
902.00,91.55
901.00,91.54
900.00,91.53
899.00,91.54
898.00,91.56
897.00,91.58
896.00,91.60
895.00,91.62
894.00,91.64
893.00,91.67
892.00,91.68
891.00,91.66
890.00,91.63
889.00,91.60
888.00,91.59
887.00,91.61
886.00,91.64
885.00,91.69
884.00,91.72
883.00,91.75
882.00,91.77
881.00,91.80
880.00,91.83
879.00,91.85
878.00,91.84
877.00,91.82
876.00,91.80
875.00,91.79
874.00,91.78
873.00,91.78
872.00,91.80
871.00,91.83
870.00,91.87
869.00,91.91
868.00,91.94
867.00,91.96
866.00,91.96
865.00,91.95
864.00,91.93
863.00,91.91
862.00,91.88
861.00,91.83
860.00,91.75
859.00,91.65
858.00,91.54
857.00,91.45
856.00,91.39
855.00,91.34
854.00,91.31
853.00,91.28
852.00,91.27
851.00,91.27
850.00,91.28
849.00,91.28
848.00,91.28
847.00,91.28
846.00,91.28
845.00,91.30
844.00,91.32
843.00,91.32
842.00,91.30
841.00,91.27
840.00,91.24
839.00,91.22
838.00,91.19
837.00,91.13
836.00,91.05
835.00,90.97
834.00,90.89
833.00,90.82
832.00,90.76
831.00,90.70
830.00,90.65
829.00,90.60
828.00,90.55
827.00,90.52
826.00,90.52
825.00,90.55
824.00,90.57
823.00,90.58
822.00,90.60
821.00,90.65
820.00,90.70
819.00,90.73
818.00,90.73
817.00,90.74
816.00,90.76
815.00,90.77
814.00,90.75
813.00,90.68
812.00,90.60
811.00,90.51
810.00,90.45
809.00,90.41
808.00,90.40
807.00,90.38
806.00,90.38
805.00,90.38
804.00,90.40
803.00,90.43
802.00,90.47
801.00,90.49
800.00,90.50
799.00,90.49
798.00,90.49
797.00,90.48
796.00,90.48
795.00,90.45
794.00,90.38
793.00,90.29
792.00,90.20
791.00,90.14
790.00,90.11
789.00,90.10
788.00,90.08
787.00,90.04
786.00,89.97
785.00,89.90
784.00,89.83
783.00,89.76
782.00,89.69
781.00,89.63
780.00,89.55
779.00,89.48
778.00,89.40
777.00,89.33
776.00,89.26
775.00,89.20
774.00,89.14
773.00,89.06
772.00,88.97
771.00,88.90
770.00,88.84
769.00,88.78
768.00,88.68
767.00,88.56
766.00,88.43
765.00,88.33
764.00,88.25
763.00,88.19
762.00,88.12
761.00,88.06
760.00,88.01
759.00,87.98
758.00,87.96
757.00,87.94
756.00,87.90
755.00,87.82
754.00,87.72
753.00,87.61
752.00,87.49
751.00,87.38
750.00,87.29
749.00,87.20
748.00,87.11
747.00,87.01
746.00,86.90
745.00,86.78
744.00,86.68
743.00,86.58
742.00,86.46
741.00,86.30
740.00,86.09
739.00,85.85
738.00,85.60
737.00,85.38
736.00,85.21
735.00,85.12
734.00,85.05
733.00,84.96
732.00,84.82
731.00,84.65
730.00,84.48
729.00,84.31
728.00,84.13
727.00,83.93
726.00,83.74
725.00,83.56
724.00,83.41
723.00,83.28
722.00,83.16
721.00,83.02
720.00,82.87
719.00,82.73
718.00,82.61
717.00,82.49
716.00,82.39
715.00,82.32
714.00,82.25
713.00,82.14
712.00,81.99
711.00,81.83
710.00,81.70
709.00,81.59
708.00,81.47
707.00,81.35
706.00,81.22
705.00,81.09
704.00,80.94
703.00,80.80
702.00,80.67
701.00,80.56
700.00,80.46
699.00,80.38
698.00,80.29
697.00,80.17
696.00,80.00
695.00,79.82
694.00,79.67
693.00,79.58
692.00,79.56
691.00,79.58
690.00,79.61
689.00,79.62
688.00,79.59
687.00,79.53
686.00,79.46
685.00,79.38
684.00,79.31
683.00,79.26
682.00,79.21
681.00,79.16
680.00,79.08
679.00,79.00
678.00,78.94
677.00,78.90
676.00,78.88
675.00,78.87
674.00,78.84
673.00,78.80
672.00,78.74
671.00,78.71
670.00,78.70
669.00,78.70
668.00,78.65
667.00,78.61
666.00,78.61
665.00,78.62
664.00,78.59
663.00,78.55
662.00,78.50
661.00,78.44
660.00,78.33
659.00,78.18
658.00,78.02
657.00,77.90
656.00,77.81
655.00,77.76
654.00,77.70
653.00,77.64
652.00,77.58
651.00,77.53
650.00,77.49
649.00,77.43
648.00,77.34
647.00,77.27
646.00,77.20
645.00,77.08
644.00,76.89
643.00,76.68
642.00,76.52
641.00,76.44
640.00,76.40
639.00,76.40
638.00,76.46
637.00,76.54
636.00,76.61
635.00,76.63
634.00,76.54
633.00,76.32
632.00,76.07
631.00,75.93
630.00,75.95
629.00,76.03
628.00,76.04
627.00,75.96
626.00,75.85
625.00,75.77
624.00,75.73
623.00,75.77
622.00,75.86
621.00,75.94
620.00,75.98
619.00,75.99
618.00,75.97
617.00,75.88
616.00,75.82
615.00,75.94
614.00,76.18
613.00,76.29
612.00,76.11
611.00,75.74
610.00,75.38
609.00,75.08
608.00,74.86
607.00,74.80
606.00,74.92
605.00,75.14
604.00,75.30
603.00,75.30
602.00,75.08
601.00,74.73
600.00,74.52
599.00,74.71
598.00,75.26
597.00,75.83
596.00,76.15
595.00,76.24
594.00,76.23
593.00,76.14
592.00,76.05
591.00,76.15
590.00,76.53
589.00,76.94
588.00,77.15
587.00,77.16
586.00,77.20
585.00,77.33
584.00,77.44
583.00,77.42
582.00,77.22
581.00,76.85
580.00,76.37
579.00,76.04
578.00,75.99
577.00,76.12
576.00,76.29
575.00,76.54
574.00,76.80
573.00,76.85
572.00,76.63
571.00,76.42
570.00,76.50
569.00,76.67
568.00,76.56
567.00,76.16
566.00,75.76
565.00,75.56
564.00,75.47
563.00,75.40
562.00,75.28
561.00,75.13
560.00,75.10
559.00,75.29
558.00,75.43
557.00,74.97
556.00,73.74
555.00,72.21
554.00,71.02
553.00,70.34
552.00,70.06
551.00,70.25
550.00,70.65
