Created as New Dataset,16.4 Dyed
cm-1,%T
4000.00,101.44
3999.00,101.43
3998.00,101.42
3997.00,101.41
3996.00,101.41
3995.00,101.41
3994.00,101.42
3993.00,101.41
3992.00,101.40
3991.00,101.38
3990.00,101.38
3989.00,101.38
3988.00,101.39
3987.00,101.40
3986.00,101.41
3985.00,101.42
3984.00,101.42
3983.00,101.41
3982.00,101.40
3981.00,101.39
3980.00,101.39
3979.00,101.39
3978.00,101.39
3977.00,101.39
3976.00,101.38
3975.00,101.37
3974.00,101.36
3973.00,101.36
3972.00,101.37
3971.00,101.38
3970.00,101.40
3969.00,101.41
3968.00,101.42
3967.00,101.42
3966.00,101.41
3965.00,101.40
3964.00,101.39
3963.00,101.39
3962.00,101.39
3961.00,101.40
3960.00,101.40
3959.00,101.40
3958.00,101.39
3957.00,101.38
3956.00,101.38
3955.00,101.39
3954.00,101.41
3953.00,101.44
3952.00,101.47
3951.00,101.48
3950.00,101.48
3949.00,101.47
3948.00,101.45
3947.00,101.43
3946.00,101.40
3945.00,101.39
3944.00,101.38
3943.00,101.37
3942.00,101.36
3941.00,101.36
3940.00,101.37
3939.00,101.38
3938.00,101.40
3937.00,101.42
3936.00,101.43
3935.00,101.42
3934.00,101.42
3933.00,101.42
3932.00,101.42
3931.00,101.41
3930.00,101.40
3929.00,101.40
3928.00,101.41
3927.00,101.41
3926.00,101.40
3925.00,101.38
3924.00,101.37
3923.00,101.37
3922.00,101.38
3921.00,101.39
3920.00,101.39
3919.00,101.38
3918.00,101.37
3917.00,101.37
3916.00,101.37
3915.00,101.37
3914.00,101.35
3913.00,101.34
3912.00,101.33
3911.00,101.32
3910.00,101.33
3909.00,101.33
3908.00,101.34
3907.00,101.35
3906.00,101.36
3905.00,101.37
3904.00,101.38
3903.00,101.39
3902.00,101.40
3901.00,101.40
3900.00,101.40
3899.00,101.40
3898.00,101.41
3897.00,101.42
3896.00,101.41
3895.00,101.40
3894.00,101.39
3893.00,101.38
3892.00,101.39
3891.00,101.40
3890.00,101.41
3889.00,101.41
3888.00,101.40
3887.00,101.39
3886.00,101.39
3885.00,101.41
3884.00,101.42
3883.00,101.43
3882.00,101.44
3881.00,101.44
3880.00,101.43
3879.00,101.43
3878.00,101.42
3877.00,101.41
3876.00,101.40
3875.00,101.40
3874.00,101.41
3873.00,101.41
3872.00,101.41
3871.00,101.41
3870.00,101.41
3869.00,101.43
3868.00,101.44
3867.00,101.43
3866.00,101.41
3865.00,101.38
3864.00,101.34
3863.00,101.32
3862.00,101.31
3861.00,101.31
3860.00,101.32
3859.00,101.33
3858.00,101.33
3857.00,101.34
3856.00,101.35
3855.00,101.36
3854.00,101.37
3853.00,101.37
3852.00,101.37
3851.00,101.37
3850.00,101.37
3849.00,101.38
3848.00,101.38
3847.00,101.38
3846.00,101.38
3845.00,101.39
3844.00,101.40
3843.00,101.41
3842.00,101.43
3841.00,101.44
3840.00,101.45
3839.00,101.46
3838.00,101.47
3837.00,101.49
3836.00,101.49
3835.00,101.48
3834.00,101.47
3833.00,101.46
3832.00,101.46
3831.00,101.45
3830.00,101.43
3829.00,101.41
3828.00,101.40
3827.00,101.39
3826.00,101.39
3825.00,101.40
3824.00,101.41
3823.00,101.41
3822.00,101.41
3821.00,101.40
3820.00,101.39
3819.00,101.38
3818.00,101.36
3817.00,101.34
3816.00,101.33
3815.00,101.33
3814.00,101.33
3813.00,101.34
3812.00,101.34
3811.00,101.35
3810.00,101.35
3809.00,101.36
3808.00,101.36
3807.00,101.36
3806.00,101.36
3805.00,101.36
3804.00,101.37
3803.00,101.40
3802.00,101.42
3801.00,101.42
3800.00,101.41
3799.00,101.39
3798.00,101.37
3797.00,101.36
3796.00,101.36
3795.00,101.36
3794.00,101.36
3793.00,101.35
3792.00,101.36
3791.00,101.36
3790.00,101.36
3789.00,101.36
3788.00,101.35
3787.00,101.35
3786.00,101.34
3785.00,101.35
3784.00,101.35
3783.00,101.36
3782.00,101.35
3781.00,101.34
3780.00,101.32
3779.00,101.31
3778.00,101.32
3777.00,101.32
3776.00,101.32
3775.00,101.31
3774.00,101.29
3773.00,101.27
3772.00,101.27
3771.00,101.29
3770.00,101.31
3769.00,101.33
3768.00,101.34
3767.00,101.34
3766.00,101.34
3765.00,101.34
3764.00,101.34
3763.00,101.33
3762.00,101.31
3761.00,101.30
3760.00,101.28
3759.00,101.27
3758.00,101.26
3757.00,101.26
3756.00,101.27
3755.00,101.28
3754.00,101.29
3753.00,101.31
3752.00,101.34
3751.00,101.35
3750.00,101.36
3749.00,101.36
3748.00,101.36
3747.00,101.36
3746.00,101.38
3745.00,101.39
3744.00,101.37
3743.00,101.33
3742.00,101.29
3741.00,101.26
3740.00,101.26
3739.00,101.26
3738.00,101.26
3737.00,101.26
3736.00,101.28
3735.00,101.32
3734.00,101.35
3733.00,101.35
3732.00,101.33
3731.00,101.30
3730.00,101.28
3729.00,101.27
3728.00,101.27
3727.00,101.27
3726.00,101.27
3725.00,101.26
3724.00,101.24
3723.00,101.23
3722.00,101.23
3721.00,101.24
3720.00,101.25
3719.00,101.25
3718.00,101.25
3717.00,101.24
3716.00,101.24
3715.00,101.24
3714.00,101.23
3713.00,101.21
3712.00,101.19
3711.00,101.19
3710.00,101.22
3709.00,101.25
3708.00,101.25
3707.00,101.24
3706.00,101.22
3705.00,101.21
3704.00,101.20
3703.00,101.19
3702.00,101.18
3701.00,101.19
3700.00,101.21
3699.00,101.24
3698.00,101.26
3697.00,101.27
3696.00,101.27
3695.00,101.26
3694.00,101.25
3693.00,101.24
3692.00,101.23
3691.00,101.23
3690.00,101.22
3689.00,101.23
3688.00,101.23
3687.00,101.23
3686.00,101.21
3685.00,101.19
3684.00,101.19
3683.00,101.20
3682.00,101.21
3681.00,101.21
3680.00,101.21
3679.00,101.21
3678.00,101.22
3677.00,101.22
3676.00,101.22
3675.00,101.21
3674.00,101.20
3673.00,101.18
3672.00,101.15
3671.00,101.12
3670.00,101.11
3669.00,101.11
3668.00,101.11
3667.00,101.11
3666.00,101.11
3665.00,101.12
3664.00,101.12
3663.00,101.12
3662.00,101.11
3661.00,101.09
3660.00,101.07
3659.00,101.05
3658.00,101.03
3657.00,101.01
3656.00,101.01
3655.00,101.02
3654.00,101.03
3653.00,101.05
3652.00,101.06
3651.00,101.06
3650.00,101.07
3649.00,101.07
3648.00,101.08
3647.00,101.07
3646.00,101.05
3645.00,101.03
3644.00,101.01
3643.00,101.01
3642.00,101.02
3641.00,101.05
3640.00,101.08
3639.00,101.09
3638.00,101.08
3637.00,101.06
3636.00,101.04
3635.00,101.01
3634.00,101.00
3633.00,101.01
3632.00,101.03
3631.00,101.06
3630.00,101.08
3629.00,101.08
3628.00,101.06
3627.00,101.04
3626.00,101.02
3625.00,101.02
3624.00,101.01
3623.00,101.00
3622.00,100.99
3621.00,100.98
3620.00,100.97
3619.00,100.97
3618.00,100.98
3617.00,100.99
3616.00,101.00
3615.00,101.00
3614.00,101.01
3613.00,101.01
3612.00,101.00
3611.00,100.99
3610.00,100.97
3609.00,100.95
3608.00,100.93
3607.00,100.93
3606.00,100.93
3605.00,100.93
3604.00,100.92
3603.00,100.90
3602.00,100.90
3601.00,100.90
3600.00,100.92
3599.00,100.94
3598.00,100.95
3597.00,100.95
3596.00,100.94
3595.00,100.92
3594.00,100.91
3593.00,100.91
3592.00,100.92
3591.00,100.94
3590.00,100.97
3589.00,100.99
3588.00,100.98
3587.00,100.93
3586.00,100.87
3585.00,100.82
3584.00,100.80
3583.00,100.81
3582.00,100.84
3581.00,100.86
3580.00,100.89
3579.00,100.90
3578.00,100.90
3577.00,100.89
3576.00,100.87
3575.00,100.85
3574.00,100.82
3573.00,100.81
3572.00,100.79
3571.00,100.78
3570.00,100.77
3569.00,100.75
3568.00,100.75
3567.00,100.75
3566.00,100.76
3565.00,100.78
3564.00,100.79
3563.00,100.79
3562.00,100.78
3561.00,100.77
3560.00,100.74
3559.00,100.72
3558.00,100.69
3557.00,100.67
3556.00,100.67
3555.00,100.68
3554.00,100.69
3553.00,100.67
3552.00,100.65
3551.00,100.63
3550.00,100.62
3549.00,100.61
3548.00,100.61
3547.00,100.60
3546.00,100.60
3545.00,100.61
3544.00,100.62
3543.00,100.63
3542.00,100.63
3541.00,100.61
3540.00,100.59
3539.00,100.57
3538.00,100.56
3537.00,100.56
3536.00,100.56
3535.00,100.54
3534.00,100.51
3533.00,100.49
3532.00,100.48
3531.00,100.49
3530.00,100.51
3529.00,100.54
3528.00,100.56
3527.00,100.58
3526.00,100.59
3525.00,100.60
3524.00,100.60
3523.00,100.58
3522.00,100.56
3521.00,100.54
3520.00,100.52
3519.00,100.52
3518.00,100.52
3517.00,100.52
3516.00,100.50
3515.00,100.46
3514.00,100.42
3513.00,100.40
3512.00,100.41
3511.00,100.42
3510.00,100.43
3509.00,100.44
3508.00,100.46
3507.00,100.47
3506.00,100.49
3505.00,100.51
3504.00,100.51
3503.00,100.50
3502.00,100.47
3501.00,100.44
3500.00,100.42
3499.00,100.41
3498.00,100.41
3497.00,100.41
3496.00,100.40
3495.00,100.39
3494.00,100.39
3493.00,100.38
3492.00,100.37
3491.00,100.35
3490.00,100.33
3489.00,100.33
3488.00,100.33
3487.00,100.33
3486.00,100.33
3485.00,100.32
3484.00,100.32
3483.00,100.33
3482.00,100.33
3481.00,100.34
3480.00,100.34
3479.00,100.34
3478.00,100.33
3477.00,100.33
3476.00,100.32
3475.00,100.32
3474.00,100.33
3473.00,100.33
3472.00,100.32
3471.00,100.29
3470.00,100.26
3469.00,100.24
3468.00,100.24
3467.00,100.23
3466.00,100.22
3465.00,100.23
3464.00,100.25
3463.00,100.29
3462.00,100.32
3461.00,100.34
3460.00,100.35
3459.00,100.36
3458.00,100.36
3457.00,100.34
3456.00,100.32
3455.00,100.29
3454.00,100.27
3453.00,100.25
3452.00,100.24
3451.00,100.23
3450.00,100.22
3449.00,100.21
3448.00,100.20
3447.00,100.20
3446.00,100.21
3445.00,100.22
3444.00,100.22
3443.00,100.20
3442.00,100.17
3441.00,100.14
3440.00,100.12
3439.00,100.12
3438.00,100.13
3437.00,100.14
3436.00,100.16
3435.00,100.17
3434.00,100.19
3433.00,100.21
3432.00,100.22
3431.00,100.22
3430.00,100.20
3429.00,100.19
3428.00,100.19
3427.00,100.19
3426.00,100.20
3425.00,100.20
3424.00,100.18
3423.00,100.15
3422.00,100.11
3421.00,100.09
3420.00,100.08
3419.00,100.09
3418.00,100.10
3417.00,100.11
3416.00,100.10
3415.00,100.10
3414.00,100.09
3413.00,100.08
3412.00,100.06
3411.00,100.05
3410.00,100.05
3409.00,100.04
3408.00,100.04
3407.00,100.03
3406.00,100.02
3405.00,100.01
3404.00,100.01
3403.00,100.01
3402.00,100.00
3401.00,99.99
3400.00,99.99
3399.00,99.99
3398.00,99.99
3397.00,99.99
3396.00,99.99
3395.00,99.98
3394.00,99.97
3393.00,99.97
3392.00,99.96
3391.00,99.95
3390.00,99.94
3389.00,99.92
3388.00,99.90
3387.00,99.89
3386.00,99.88
3385.00,99.87
3384.00,99.87
3383.00,99.87
3382.00,99.88
3381.00,99.89
3380.00,99.90
3379.00,99.90
3378.00,99.91
3377.00,99.91
3376.00,99.90
3375.00,99.88
3374.00,99.87
3373.00,99.86
3372.00,99.85
3371.00,99.84
3370.00,99.83
3369.00,99.82
3368.00,99.81
3367.00,99.79
3366.00,99.78
3365.00,99.77
3364.00,99.76
3363.00,99.75
3362.00,99.75
3361.00,99.77
3360.00,99.79
3359.00,99.81
3358.00,99.80
3357.00,99.78
3356.00,99.75
3355.00,99.72
3354.00,99.71
3353.00,99.70
3352.00,99.70
3351.00,99.69
3350.00,99.67
3349.00,99.64
3348.00,99.63
3347.00,99.63
3346.00,99.63
3345.00,99.63
3344.00,99.61
3343.00,99.58
3342.00,99.57
3341.00,99.56
3340.00,99.57
3339.00,99.56
3338.00,99.55
3337.00,99.52
3336.00,99.47
3335.00,99.43
3334.00,99.38
3333.00,99.36
3332.00,99.35
3331.00,99.36
3330.00,99.37
3329.00,99.38
3328.00,99.37
3327.00,99.34
3326.00,99.30
3325.00,99.26
3324.00,99.23
3323.00,99.20
3322.00,99.17
3321.00,99.14
3320.00,99.11
3319.00,99.07
3318.00,99.03
3317.00,98.98
3316.00,98.94
3315.00,98.90
3314.00,98.88
3313.00,98.85
3312.00,98.83
3311.00,98.80
3310.00,98.77
3309.00,98.74
3308.00,98.70
3307.00,98.67
3306.00,98.62
3305.00,98.57
3304.00,98.52
3303.00,98.48
3302.00,98.44
3301.00,98.42
3300.00,98.40
3299.00,98.37
3298.00,98.34
3297.00,98.30
3296.00,98.27
3295.00,98.24
3294.00,98.22
3293.00,98.19
3292.00,98.15
3291.00,98.11
3290.00,98.09
3289.00,98.06
3288.00,98.02
3287.00,97.97
3286.00,97.93
3285.00,97.90
3284.00,97.88
3283.00,97.87
3282.00,97.85
3281.00,97.83
3280.00,97.81
3279.00,97.80
3278.00,97.79
3277.00,97.80
3276.00,97.81
3275.00,97.83
3274.00,97.85
3273.00,97.87
3272.00,97.87
3271.00,97.86
3270.00,97.85
3269.00,97.85
3268.00,97.85
3267.00,97.86
3266.00,97.89
3265.00,97.92
3264.00,97.96
3263.00,98.01
3262.00,98.05
3261.00,98.07
3260.00,98.09
3259.00,98.10
3258.00,98.11
3257.00,98.14
3256.00,98.17
3255.00,98.22
3254.00,98.27
3253.00,98.31
3252.00,98.33
3251.00,98.34
3250.00,98.34
3249.00,98.35
3248.00,98.38
3247.00,98.43
3246.00,98.47
3245.00,98.49
3244.00,98.50
3243.00,98.48
3242.00,98.47
3241.00,98.46
3240.00,98.47
3239.00,98.49
3238.00,98.52
3237.00,98.56
3236.00,98.60
3235.00,98.65
3234.00,98.68
3233.00,98.70
3232.00,98.71
3231.00,98.70
3230.00,98.69
3229.00,98.70
3228.00,98.71
3227.00,98.73
3226.00,98.76
3225.00,98.78
3224.00,98.80
3223.00,98.81
3222.00,98.82
3221.00,98.82
3220.00,98.82
3219.00,98.84
3218.00,98.87
3217.00,98.91
3216.00,98.95
3215.00,98.96
3214.00,98.96
3213.00,98.96
3212.00,98.96
3211.00,98.97
3210.00,98.98
3209.00,98.98
3208.00,98.99
3207.00,99.00
3206.00,99.02
3205.00,99.04
3204.00,99.06
3203.00,99.07
3202.00,99.08
3201.00,99.10
3200.00,99.13
3199.00,99.16
3198.00,99.18
3197.00,99.20
3196.00,99.21
3195.00,99.22
3194.00,99.24
3193.00,99.25
3192.00,99.25
3191.00,99.24
3190.00,99.23
3189.00,99.24
3188.00,99.26
3187.00,99.30
3186.00,99.34
3185.00,99.36
3184.00,99.36
3183.00,99.35
3182.00,99.33
3181.00,99.33
3180.00,99.35
3179.00,99.38
3178.00,99.41
3177.00,99.44
3176.00,99.45
3175.00,99.44
3174.00,99.43
3173.00,99.43
3172.00,99.44
3171.00,99.46
3170.00,99.47
3169.00,99.48
3168.00,99.49
3167.00,99.51
3166.00,99.53
3165.00,99.55
3164.00,99.56
3163.00,99.56
3162.00,99.56
3161.00,99.57
3160.00,99.59
3159.00,99.63
3158.00,99.66
3157.00,99.69
3156.00,99.71
3155.00,99.71
3154.00,99.70
3153.00,99.69
3152.00,99.68
3151.00,99.68
3150.00,99.68
3149.00,99.67
3148.00,99.66
3147.00,99.67
3146.00,99.69
3145.00,99.72
3144.00,99.75
3143.00,99.77
3142.00,99.76
3141.00,99.75
3140.00,99.73
3139.00,99.72
3138.00,99.72
3137.00,99.74
3136.00,99.78
3135.00,99.80
3134.00,99.81
3133.00,99.81
3132.00,99.79
3131.00,99.78
3130.00,99.77
3129.00,99.77
3128.00,99.76
3127.00,99.76
3126.00,99.77
3125.00,99.78
3124.00,99.79
3123.00,99.81
3122.00,99.81
3121.00,99.82
3120.00,99.82
3119.00,99.82
3118.00,99.82
3117.00,99.81
3116.00,99.79
3115.00,99.78
3114.00,99.77
3113.00,99.78
3112.00,99.80
3111.00,99.81
3110.00,99.81
3109.00,99.79
3108.00,99.78
3107.00,99.76
3106.00,99.76
3105.00,99.76
3104.00,99.77
3103.00,99.78
3102.00,99.76
3101.00,99.74
3100.00,99.73
3099.00,99.73
3098.00,99.75
3097.00,99.76
3096.00,99.76
3095.00,99.75
3094.00,99.74
3093.00,99.72
3092.00,99.70
3091.00,99.68
3090.00,99.68
3089.00,99.68
3088.00,99.69
3087.00,99.70
3086.00,99.71
3085.00,99.72
3084.00,99.72
3083.00,99.72
3082.00,99.72
3081.00,99.72
3080.00,99.71
3079.00,99.71
3078.00,99.70
3077.00,99.68
3076.00,99.65
3075.00,99.64
3074.00,99.63
3073.00,99.63
3072.00,99.63
3071.00,99.62
3070.00,99.63
3069.00,99.64
3068.00,99.66
3067.00,99.68
3066.00,99.69
3065.00,99.70
3064.00,99.72
3063.00,99.73
3062.00,99.75
3061.00,99.76
3060.00,99.76
3059.00,99.75
3058.00,99.74
3057.00,99.74
3056.00,99.75
3055.00,99.75
3054.00,99.76
3053.00,99.77
3052.00,99.78
3051.00,99.79
3050.00,99.79
3049.00,99.80
3048.00,99.81
3047.00,99.82
3046.00,99.83
3045.00,99.83
3044.00,99.82
3043.00,99.82
3042.00,99.83
3041.00,99.85
3040.00,99.88
3039.00,99.89
3038.00,99.90
3037.00,99.91
3036.00,99.91
3035.00,99.92
3034.00,99.94
3033.00,99.95
3032.00,99.95
3031.00,99.96
3030.00,99.95
3029.00,99.96
3028.00,99.96
3027.00,99.97
3026.00,99.99
3025.00,100.01
3024.00,100.01
3023.00,100.01
3022.00,100.02
3021.00,100.02
3020.00,100.03
3019.00,100.04
3018.00,100.05
3017.00,100.06
3016.00,100.07
3015.00,100.08
3014.00,100.09
3013.00,100.09
3012.00,100.09
3011.00,100.07
3010.00,100.05
3009.00,100.03
3008.00,100.02
3007.00,100.02
3006.00,100.04
3005.00,100.05
3004.00,100.06
3003.00,100.07
3002.00,100.06
3001.00,100.06
3000.00,100.05
2999.00,100.05
2998.00,100.04
2997.00,100.03
2996.00,100.02
2995.00,100.00
2994.00,100.00
2993.00,99.99
2992.00,99.99
2991.00,99.99
2990.00,99.99
2989.00,100.00
2988.00,100.01
2987.00,100.00
2986.00,99.98
2985.00,99.95
2984.00,99.92
2983.00,99.91
2982.00,99.92
2981.00,99.94
2980.00,99.95
2979.00,99.95
2978.00,99.94
2977.00,99.92
2976.00,99.92
2975.00,99.92
2974.00,99.93
2973.00,99.94
2972.00,99.94
2971.00,99.93
2970.00,99.92
2969.00,99.90
2968.00,99.88
2967.00,99.87
2966.00,99.87
2965.00,99.87
2964.00,99.88
2963.00,99.90
2962.00,99.93
2961.00,99.95
2960.00,99.97
2959.00,99.98
2958.00,99.98
2957.00,99.98
2956.00,99.97
2955.00,99.97
2954.00,99.96
2953.00,99.94
2952.00,99.93
2951.00,99.92
2950.00,99.93
2949.00,99.94
2948.00,99.94
2947.00,99.93
2946.00,99.92
2945.00,99.91
2944.00,99.90
2943.00,99.88
2942.00,99.85
2941.00,99.83
2940.00,99.80
2939.00,99.78
2938.00,99.77
2937.00,99.77
2936.00,99.77
2935.00,99.78
2934.00,99.78
2933.00,99.78
2932.00,99.79
2931.00,99.79
2930.00,99.80
2929.00,99.81
2928.00,99.81
2927.00,99.81
2926.00,99.80
2925.00,99.79
2924.00,99.79
2923.00,99.80
2922.00,99.83
2921.00,99.85
2920.00,99.87
2919.00,99.88
2918.00,99.89
2917.00,99.90
2916.00,99.90
2915.00,99.91
2914.00,99.93
2913.00,99.96
2912.00,99.99
2911.00,100.01
2910.00,100.00
2909.00,99.99
2908.00,99.97
2907.00,99.97
2906.00,99.97
2905.00,99.99
2904.00,100.02
2903.00,100.04
2902.00,100.05
2901.00,100.04
2900.00,100.03
2899.00,100.03
2898.00,100.04
2897.00,100.06
2896.00,100.07
2895.00,100.07
2894.00,100.05
2893.00,100.04
2892.00,100.04
2891.00,100.04
2890.00,100.05
2889.00,100.06
2888.00,100.07
2887.00,100.08
2886.00,100.09
2885.00,100.09
2884.00,100.09
2883.00,100.08
2882.00,100.06
2881.00,100.05
2880.00,100.05
2879.00,100.06
2878.00,100.07
2877.00,100.08
2876.00,100.08
2875.00,100.07
2874.00,100.06
2873.00,100.06
2872.00,100.07
2871.00,100.08
2870.00,100.08
2869.00,100.09
2868.00,100.09
2867.00,100.09
2866.00,100.09
2865.00,100.09
2864.00,100.10
2863.00,100.11
2862.00,100.12
2861.00,100.14
2860.00,100.15
2859.00,100.15
2858.00,100.14
2857.00,100.12
2856.00,100.10
2855.00,100.10
2854.00,100.11
2853.00,100.13
2852.00,100.15
2851.00,100.16
2850.00,100.17
2849.00,100.19
2848.00,100.20
2847.00,100.20
2846.00,100.20
2845.00,100.19
2844.00,100.18
2843.00,100.17
2842.00,100.17
2841.00,100.19
2840.00,100.22
2839.00,100.24
2838.00,100.25
2837.00,100.25
2836.00,100.23
2835.00,100.23
2834.00,100.22
2833.00,100.23
2832.00,100.24
2831.00,100.25
2830.00,100.27
2829.00,100.29
2828.00,100.30
2827.00,100.30
2826.00,100.30
2825.00,100.29
2824.00,100.30
2823.00,100.32
2822.00,100.34
2821.00,100.34
2820.00,100.33
2819.00,100.32
2818.00,100.30
2817.00,100.29
2816.00,100.28
2815.00,100.29
2814.00,100.31
2813.00,100.34
2812.00,100.35
2811.00,100.34
2810.00,100.33
2809.00,100.31
2808.00,100.31
2807.00,100.31
2806.00,100.32
2805.00,100.33
2804.00,100.34
2803.00,100.35
2802.00,100.35
2801.00,100.35
2800.00,100.34
2799.00,100.32
2798.00,100.31
2797.00,100.30
2796.00,100.30
2795.00,100.31
2794.00,100.31
2793.00,100.31
2792.00,100.31
2791.00,100.31
2790.00,100.30
2789.00,100.30
2788.00,100.30
2787.00,100.31
2786.00,100.31
2785.00,100.32
2784.00,100.33
2783.00,100.33
2782.00,100.33
2781.00,100.33
2780.00,100.32
2779.00,100.32
2778.00,100.33
2777.00,100.34
2776.00,100.34
2775.00,100.34
2774.00,100.34
2773.00,100.34
2772.00,100.35
2771.00,100.36
2770.00,100.37
2769.00,100.38
2768.00,100.37
2767.00,100.36
2766.00,100.37
2765.00,100.39
2764.00,100.41
2763.00,100.41
2762.00,100.41
2761.00,100.41
2760.00,100.42
2759.00,100.43
2758.00,100.43
2757.00,100.42
2756.00,100.41
2755.00,100.41
2754.00,100.41
2753.00,100.40
2752.00,100.39
2751.00,100.38
2750.00,100.37
2749.00,100.37
2748.00,100.38
2747.00,100.39
2746.00,100.39
2745.00,100.39
2744.00,100.39
2743.00,100.39
2742.00,100.39
2741.00,100.39
2740.00,100.40
2739.00,100.42
2738.00,100.43
2737.00,100.44
2736.00,100.44
2735.00,100.43
2734.00,100.43
2733.00,100.43
2732.00,100.43
2731.00,100.43
2730.00,100.43
2729.00,100.42
2728.00,100.42
2727.00,100.43
2726.00,100.44
2725.00,100.47
2724.00,100.48
2723.00,100.48
2722.00,100.47
2721.00,100.44
2720.00,100.43
2719.00,100.43
2718.00,100.44
2717.00,100.46
2716.00,100.47
2715.00,100.48
2714.00,100.48
2713.00,100.48
2712.00,100.47
2711.00,100.46
2710.00,100.45
2709.00,100.45
2708.00,100.46
2707.00,100.46
2706.00,100.46
2705.00,100.47
2704.00,100.47
2703.00,100.47
2702.00,100.47
2701.00,100.47
2700.00,100.48
2699.00,100.50
2698.00,100.50
2697.00,100.50
2696.00,100.50
2695.00,100.49
2694.00,100.49
2693.00,100.48
2692.00,100.47
2691.00,100.47
2690.00,100.48
2689.00,100.48
2688.00,100.48
2687.00,100.48
2686.00,100.48
2685.00,100.48
2684.00,100.47
2683.00,100.47
2682.00,100.47
2681.00,100.48
2680.00,100.48
2679.00,100.47
2678.00,100.46
2677.00,100.46
2676.00,100.46
2675.00,100.48
2674.00,100.49
2673.00,100.49
2672.00,100.49
2671.00,100.49
2670.00,100.49
2669.00,100.49
2668.00,100.49
2667.00,100.49
2666.00,100.50
2665.00,100.51
2664.00,100.50
2663.00,100.48
2662.00,100.47
2661.00,100.46
2660.00,100.45
2659.00,100.45
2658.00,100.45
2657.00,100.45
2656.00,100.45
2655.00,100.45
2654.00,100.45
2653.00,100.45
2652.00,100.44
2651.00,100.44
2650.00,100.44
2649.00,100.44
2648.00,100.44
2647.00,100.44
2646.00,100.43
2645.00,100.43
2644.00,100.42
2643.00,100.43
2642.00,100.42
2641.00,100.41
2640.00,100.39
2639.00,100.37
2638.00,100.36
2637.00,100.35
2636.00,100.36
2635.00,100.36
2634.00,100.37
2633.00,100.37
2632.00,100.37
2631.00,100.36
2630.00,100.35
2629.00,100.34
2628.00,100.32
2627.00,100.31
2626.00,100.31
2625.00,100.32
2624.00,100.33
2623.00,100.35
2622.00,100.36
2621.00,100.35
2620.00,100.34
2619.00,100.34
2618.00,100.33
2617.00,100.32
2616.00,100.32
2615.00,100.32
2614.00,100.31
2613.00,100.30
2612.00,100.28
2611.00,100.28
2610.00,100.28
2609.00,100.28
2608.00,100.29
2607.00,100.29
2606.00,100.29
2605.00,100.30
2604.00,100.30
2603.00,100.30
2602.00,100.30
2601.00,100.30
2600.00,100.31
2599.00,100.33
2598.00,100.33
2597.00,100.33
2596.00,100.31
2595.00,100.30
2594.00,100.29
2593.00,100.27
2592.00,100.26
2591.00,100.26
2590.00,100.28
2589.00,100.29
2588.00,100.29
2587.00,100.28
2586.00,100.28
2585.00,100.28
2584.00,100.28
2583.00,100.28
2582.00,100.26
2581.00,100.25
2580.00,100.24
2579.00,100.24
2578.00,100.24
2577.00,100.23
2576.00,100.23
2575.00,100.22
2574.00,100.22
2573.00,100.23
2572.00,100.24
2571.00,100.26
2570.00,100.27
2569.00,100.27
2568.00,100.26
2567.00,100.25
2566.00,100.24
2565.00,100.24
2564.00,100.24
2563.00,100.25
2562.00,100.24
2561.00,100.23
2560.00,100.23
2559.00,100.23
2558.00,100.24
2557.00,100.24
2556.00,100.24
2555.00,100.25
2554.00,100.26
2553.00,100.27
2552.00,100.27
2551.00,100.26
2550.00,100.24
2549.00,100.22
2548.00,100.20
2547.00,100.20
2546.00,100.23
2545.00,100.25
2544.00,100.25
2543.00,100.25
2542.00,100.25
2541.00,100.26
2540.00,100.27
2539.00,100.26
2538.00,100.24
2537.00,100.23
2536.00,100.24
2535.00,100.28
2534.00,100.32
2533.00,100.33
2532.00,100.31
2531.00,100.28
2530.00,100.25
2529.00,100.24
2528.00,100.26
2527.00,100.30
2526.00,100.32
2525.00,100.33
2524.00,100.31
2523.00,100.30
2522.00,100.28
2521.00,100.28
2520.00,100.27
2519.00,100.27
2518.00,100.26
2517.00,100.25
2516.00,100.24
2515.00,100.23
2514.00,100.23
2513.00,100.24
2512.00,100.25
2511.00,100.26
2510.00,100.26
2509.00,100.25
2508.00,100.23
2507.00,100.22
2506.00,100.22
2505.00,100.22
2504.00,100.23
2503.00,100.26
2502.00,100.28
2501.00,100.28
2500.00,100.25
2499.00,100.23
2498.00,100.23
2497.00,100.23
2496.00,100.23
2495.00,100.24
2494.00,100.26
2493.00,100.28
2492.00,100.28
2491.00,100.28
2490.00,100.26
2489.00,100.24
2488.00,100.23
2487.00,100.23
2486.00,100.24
2485.00,100.25
2484.00,100.25
2483.00,100.24
2482.00,100.23
2481.00,100.22
2480.00,100.21
2479.00,100.21
2478.00,100.21
2477.00,100.23
2476.00,100.25
2475.00,100.26
2474.00,100.27
2473.00,100.27
2472.00,100.25
2471.00,100.23
2470.00,100.21
2469.00,100.21
2468.00,100.22
2467.00,100.24
2466.00,100.26
2465.00,100.26
2464.00,100.25
2463.00,100.23
2462.00,100.22
2461.00,100.23
2460.00,100.24
2459.00,100.25
2458.00,100.25
2457.00,100.24
2456.00,100.24
2455.00,100.23
2454.00,100.22
2453.00,100.21
2452.00,100.20
2451.00,100.20
2450.00,100.22
2449.00,100.24
2448.00,100.26
2447.00,100.26
2446.00,100.28
2445.00,100.29
2444.00,100.30
2443.00,100.31
2442.00,100.31
2441.00,100.32
2440.00,100.32
2439.00,100.32
2438.00,100.30
2437.00,100.28
2436.00,100.28
2435.00,100.29
2434.00,100.28
2433.00,100.26
2432.00,100.23
2431.00,100.22
2430.00,100.22
2429.00,100.24
2428.00,100.27
2427.00,100.29
2426.00,100.30
2425.00,100.29
2424.00,100.29
2423.00,100.28
2422.00,100.27
2421.00,100.26
2420.00,100.26
2419.00,100.27
2418.00,100.29
2417.00,100.31
2416.00,100.33
2415.00,100.35
2414.00,100.36
2413.00,100.35
2412.00,100.33
2411.00,100.31
2410.00,100.29
2409.00,100.28
2408.00,100.29
2407.00,100.30
2406.00,100.32
2405.00,100.34
2404.00,100.36
2403.00,100.39
2402.00,100.42
2401.00,100.43
2400.00,100.42
2399.00,100.41
2398.00,100.41
2397.00,100.40
2396.00,100.40
2395.00,100.40
2394.00,100.40
2393.00,100.40
2392.00,100.40
2391.00,100.40
2390.00,100.40
2389.00,100.40
2388.00,100.38
2387.00,100.38
2386.00,100.39
2385.00,100.42
2384.00,100.45
2383.00,100.49
2382.00,100.52
2381.00,100.55
2380.00,100.58
2379.00,100.60
2378.00,100.63
2377.00,100.64
2376.00,100.65
2375.00,100.65
2374.00,100.65
2373.00,100.67
2372.00,100.67
2371.00,100.66
2370.00,100.65
2369.00,100.65
2368.00,100.66
2367.00,100.67
2366.00,100.68
2365.00,100.68
2364.00,100.69
2363.00,100.69
2362.00,100.69
2361.00,100.68
2360.00,100.67
2359.00,100.68
2358.00,100.72
2357.00,100.77
2356.00,100.82
2355.00,100.82
2354.00,100.79
2353.00,100.73
2352.00,100.68
2351.00,100.68
2350.00,100.74
2349.00,100.82
2348.00,100.86
2347.00,100.85
2346.00,100.80
2345.00,100.77
2344.00,100.76
2343.00,100.76
2342.00,100.73
2341.00,100.68
2340.00,100.65
2339.00,100.66
2338.00,100.69
2337.00,100.71
2336.00,100.71
2335.00,100.68
2334.00,100.65
2333.00,100.64
2332.00,100.64
2331.00,100.63
2330.00,100.62
2329.00,100.59
2328.00,100.57
2327.00,100.54
2326.00,100.52
2325.00,100.51
2324.00,100.50
2323.00,100.51
2322.00,100.52
2321.00,100.53
2320.00,100.52
2319.00,100.50
2318.00,100.48
2317.00,100.46
2316.00,100.46
2315.00,100.45
2314.00,100.45
2313.00,100.44
2312.00,100.44
2311.00,100.44
2310.00,100.42
2309.00,100.40
2308.00,100.37
2307.00,100.36
2306.00,100.36
2305.00,100.36
2304.00,100.35
2303.00,100.33
2302.00,100.32
2301.00,100.31
2300.00,100.30
2299.00,100.31
2298.00,100.31
2297.00,100.31
2296.00,100.30
2295.00,100.28
2294.00,100.24
2293.00,100.19
2292.00,100.15
2291.00,100.12
2290.00,100.09
2289.00,100.07
2288.00,100.04
2287.00,100.03
2286.00,100.02
2285.00,100.03
2284.00,100.06
2283.00,100.09
2282.00,100.10
2281.00,100.08
2280.00,100.05
2279.00,100.03
2278.00,100.02
2277.00,100.02
2276.00,100.01
2275.00,99.99
2274.00,99.98
2273.00,99.98
2272.00,99.98
2271.00,99.97
2270.00,99.95
2269.00,99.92
2268.00,99.89
2267.00,99.87
2266.00,99.85
2265.00,99.86
2264.00,99.88
2263.00,99.91
2262.00,99.95
2261.00,99.98
2260.00,99.99
2259.00,99.98
2258.00,99.94
2257.00,99.90
2256.00,99.85
2255.00,99.83
2254.00,99.84
2253.00,99.87
2252.00,99.91
2251.00,99.93
2250.00,99.93
2249.00,99.90
2248.00,99.87
2247.00,99.86
2246.00,99.86
2245.00,99.88
2244.00,99.88
2243.00,99.85
2242.00,99.80
2241.00,99.75
2240.00,99.72
2239.00,99.71
2238.00,99.70
2237.00,99.68
2236.00,99.66
2235.00,99.66
2234.00,99.68
2233.00,99.69
2232.00,99.69
2231.00,99.68
2230.00,99.68
2229.00,99.69
2228.00,99.68
2227.00,99.66
2226.00,99.65
2225.00,99.68
2224.00,99.72
2223.00,99.77
2222.00,99.79
2221.00,99.79
2220.00,99.77
2219.00,99.75
2218.00,99.74
2217.00,99.73
2216.00,99.72
2215.00,99.71
2214.00,99.69
2213.00,99.67
2212.00,99.65
2211.00,99.65
2210.00,99.67
2209.00,99.68
2208.00,99.67
2207.00,99.64
2206.00,99.58
2205.00,99.52
2204.00,99.47
2203.00,99.47
2202.00,99.50
2201.00,99.54
2200.00,99.55
2199.00,99.50
2198.00,99.44
2197.00,99.39
2196.00,99.39
2195.00,99.41
2194.00,99.42
2193.00,99.41
2192.00,99.39
2191.00,99.36
2190.00,99.33
2189.00,99.29
2188.00,99.28
2187.00,99.32
2186.00,99.37
2185.00,99.41
2184.00,99.39
2183.00,99.37
2182.00,99.37
2181.00,99.41
2180.00,99.45
2179.00,99.44
2178.00,99.39
2177.00,99.33
2176.00,99.32
2175.00,99.37
2174.00,99.44
2173.00,99.47
2172.00,99.46
2171.00,99.42
2170.00,99.38
2169.00,99.34
2168.00,99.28
2167.00,99.23
2166.00,99.18
2165.00,99.13
2164.00,99.09
2163.00,99.04
2162.00,99.00
2161.00,98.99
2160.00,99.03
2159.00,99.11
2158.00,99.19
2157.00,99.28
2156.00,99.39
2155.00,99.47
2154.00,99.50
2153.00,99.49
2152.00,99.46
2151.00,99.48
2150.00,99.52
2149.00,99.57
2148.00,99.62
2147.00,99.65
2146.00,99.68
2145.00,99.72
2144.00,99.75
2143.00,99.79
2142.00,99.82
2141.00,99.83
2140.00,99.81
2139.00,99.75
2138.00,99.70
2137.00,99.67
2136.00,99.68
2135.00,99.71
2134.00,99.77
2133.00,99.82
2132.00,99.87
2131.00,99.92
2130.00,99.96
2129.00,99.98
2128.00,99.98
2127.00,99.96
2126.00,99.94
2125.00,99.93
2124.00,99.92
2123.00,99.91
2122.00,99.89
2121.00,99.88
2120.00,99.89
2119.00,99.92
2118.00,99.94
2117.00,99.96
2116.00,99.95
2115.00,99.94
2114.00,99.92
2113.00,99.92
2112.00,99.92
2111.00,99.93
2110.00,99.95
2109.00,99.95
2108.00,99.95
2107.00,99.95
2106.00,99.94
2105.00,99.92
2104.00,99.88
2103.00,99.84
2102.00,99.82
2101.00,99.83
2100.00,99.85
2099.00,99.87
2098.00,99.87
2097.00,99.86
2096.00,99.87
2095.00,99.91
2094.00,99.95
2093.00,99.95
2092.00,99.91
2091.00,99.87
2090.00,99.85
2089.00,99.87
2088.00,99.91
2087.00,99.94
2086.00,99.96
2085.00,99.97
2084.00,99.94
2083.00,99.89
2082.00,99.84
2081.00,99.82
2080.00,99.83
2079.00,99.84
2078.00,99.84
2077.00,99.84
2076.00,99.84
2075.00,99.83
2074.00,99.78
2073.00,99.74
2072.00,99.73
2071.00,99.74
2070.00,99.77
2069.00,99.78
2068.00,99.79
2067.00,99.80
2066.00,99.80
2065.00,99.78
2064.00,99.75
2063.00,99.73
2062.00,99.74
2061.00,99.78
2060.00,99.81
2059.00,99.84
2058.00,99.84
2057.00,99.83
2056.00,99.83
2055.00,99.84
2054.00,99.85
2053.00,99.83
2052.00,99.80
2051.00,99.75
2050.00,99.69
2049.00,99.61
2048.00,99.53
2047.00,99.46
2046.00,99.44
2045.00,99.46
2044.00,99.49
2043.00,99.49
2042.00,99.47
2041.00,99.42
2040.00,99.38
2039.00,99.37
2038.00,99.37
2037.00,99.38
2036.00,99.39
2035.00,99.41
2034.00,99.46
2033.00,99.50
2032.00,99.49
2031.00,99.43
2030.00,99.36
2029.00,99.30
2028.00,99.27
2027.00,99.27
2026.00,99.30
2025.00,99.34
2024.00,99.39
2023.00,99.42
2022.00,99.43
2021.00,99.44
2020.00,99.46
2019.00,99.50
2018.00,99.50
2017.00,99.47
2016.00,99.45
2015.00,99.46
2014.00,99.47
2013.00,99.45
2012.00,99.39
2011.00,99.34
2010.00,99.35
2009.00,99.42
2008.00,99.52
2007.00,99.60
2006.00,99.65
2005.00,99.67
2004.00,99.68
2003.00,99.69
2002.00,99.71
2001.00,99.72
2000.00,99.72
1999.00,99.72
1998.00,99.69
1997.00,99.64
1996.00,99.60
1995.00,99.61
1994.00,99.65
1993.00,99.68
1992.00,99.66
1991.00,99.62
1990.00,99.59
1989.00,99.58
1988.00,99.57
1987.00,99.57
1986.00,99.55
1985.00,99.49
1984.00,99.42
1983.00,99.34
1982.00,99.29
1981.00,99.24
1980.00,99.18
1979.00,99.14
1978.00,99.15
1977.00,99.21
1976.00,99.31
1975.00,99.41
1974.00,99.52
1973.00,99.62
1972.00,99.70
1971.00,99.72
1970.00,99.70
1969.00,99.67
1968.00,99.66
1967.00,99.66
1966.00,99.66
1965.00,99.67
1964.00,99.69
1963.00,99.73
1962.00,99.76
1961.00,99.79
1960.00,99.81
1959.00,99.83
1958.00,99.86
1957.00,99.89
1956.00,99.91
1955.00,99.92
1954.00,99.92
1953.00,99.90
1952.00,99.88
1951.00,99.88
1950.00,99.91
1949.00,99.96
1948.00,100.00
1947.00,100.03
1946.00,100.04
1945.00,100.03
1944.00,100.02
1943.00,100.01
1942.00,100.00
1941.00,100.00
1940.00,100.00
1939.00,100.02
1938.00,100.05
1937.00,100.07
1936.00,100.07
1935.00,100.08
1934.00,100.09
1933.00,100.10
1932.00,100.11
1931.00,100.13
1930.00,100.15
1929.00,100.15
1928.00,100.14
1927.00,100.12
1926.00,100.11
1925.00,100.11
1924.00,100.11
1923.00,100.12
1922.00,100.14
1921.00,100.17
1920.00,100.21
1919.00,100.25
1918.00,100.27
1917.00,100.25
1916.00,100.20
1915.00,100.17
1914.00,100.17
1913.00,100.20
1912.00,100.24
1911.00,100.27
1910.00,100.29
1909.00,100.30
1908.00,100.29
1907.00,100.28
1906.00,100.27
1905.00,100.26
1904.00,100.25
1903.00,100.25
1902.00,100.29
1901.00,100.34
1900.00,100.38
1899.00,100.38
1898.00,100.36
1897.00,100.33
1896.00,100.33
1895.00,100.34
1894.00,100.36
1893.00,100.37
1892.00,100.37
1891.00,100.37
1890.00,100.36
1889.00,100.35
1888.00,100.34
1887.00,100.35
1886.00,100.36
1885.00,100.36
1884.00,100.35
1883.00,100.34
1882.00,100.34
1881.00,100.34
1880.00,100.35
1879.00,100.35
1878.00,100.35
1877.00,100.35
1876.00,100.36
1875.00,100.37
1874.00,100.38
1873.00,100.39
1872.00,100.39
1871.00,100.40
1870.00,100.41
1869.00,100.43
1868.00,100.43
1867.00,100.42
1866.00,100.41
1865.00,100.41
1864.00,100.42
1863.00,100.44
1862.00,100.46
1861.00,100.47
1860.00,100.48
1859.00,100.51
1858.00,100.53
1857.00,100.53
1856.00,100.52
1855.00,100.51
1854.00,100.50
1853.00,100.50
1852.00,100.49
1851.00,100.49
1850.00,100.49
1849.00,100.50
1848.00,100.50
1847.00,100.49
1846.00,100.48
1845.00,100.48
1844.00,100.50
1843.00,100.53
1842.00,100.55
1841.00,100.54
1840.00,100.52
1839.00,100.49
1838.00,100.49
1837.00,100.49
1836.00,100.50
1835.00,100.52
1834.00,100.54
1833.00,100.56
1832.00,100.58
1831.00,100.59
1830.00,100.58
1829.00,100.57
1828.00,100.56
1827.00,100.56
1826.00,100.55
1825.00,100.56
1824.00,100.58
1823.00,100.61
1822.00,100.61
1821.00,100.59
1820.00,100.57
1819.00,100.57
1818.00,100.59
1817.00,100.61
1816.00,100.63
1815.00,100.64
1814.00,100.64
1813.00,100.64
1812.00,100.63
1811.00,100.61
1810.00,100.59
1809.00,100.59
1808.00,100.60
1807.00,100.63
1806.00,100.65
1805.00,100.65
1804.00,100.65
1803.00,100.64
1802.00,100.65
1801.00,100.66
1800.00,100.65
1799.00,100.65
1798.00,100.64
1797.00,100.63
1796.00,100.63
1795.00,100.64
1794.00,100.65
1793.00,100.64
1792.00,100.63
1791.00,100.64
1790.00,100.68
1789.00,100.71
1788.00,100.72
1787.00,100.71
1786.00,100.71
1785.00,100.72
1784.00,100.71
1783.00,100.70
1782.00,100.68
1781.00,100.67
1780.00,100.66
1779.00,100.66
1778.00,100.68
1777.00,100.69
1776.00,100.70
1775.00,100.69
1774.00,100.68
1773.00,100.66
1772.00,100.65
1771.00,100.65
1770.00,100.67
1769.00,100.69
1768.00,100.70
1767.00,100.70
1766.00,100.71
1765.00,100.72
1764.00,100.72
1763.00,100.72
1762.00,100.73
1761.00,100.73
1760.00,100.72
1759.00,100.71
1758.00,100.70
1757.00,100.70
1756.00,100.69
1755.00,100.69
1754.00,100.69
1753.00,100.69
1752.00,100.67
1751.00,100.67
1750.00,100.68
1749.00,100.70
1748.00,100.69
1747.00,100.67
1746.00,100.64
1745.00,100.62
1744.00,100.61
1743.00,100.62
1742.00,100.64
1741.00,100.66
1740.00,100.66
1739.00,100.65
1738.00,100.67
1737.00,100.68
1736.00,100.68
1735.00,100.65
1734.00,100.62
1733.00,100.61
1732.00,100.63
1731.00,100.67
1730.00,100.69
1729.00,100.69
1728.00,100.68
1727.00,100.67
1726.00,100.65
1725.00,100.63
1724.00,100.62
1723.00,100.61
1722.00,100.62
1721.00,100.64
1720.00,100.64
1719.00,100.62
1718.00,100.58
1717.00,100.52
1716.00,100.47
1715.00,100.45
1714.00,100.44
1713.00,100.40
1712.00,100.35
1711.00,100.28
1710.00,100.20
1709.00,100.12
1708.00,100.02
1707.00,99.89
1706.00,99.73
1705.00,99.53
1704.00,99.35
1703.00,99.19
1702.00,99.03
1701.00,98.84
1700.00,98.67
1699.00,98.58
1698.00,98.56
1697.00,98.56
1696.00,98.55
1695.00,98.55
1694.00,98.56
1693.00,98.57
1692.00,98.56
1691.00,98.56
1690.00,98.54
1689.00,98.52
1688.00,98.49
1687.00,98.43
1686.00,98.37
1685.00,98.29
1684.00,98.22
1683.00,98.17
1682.00,98.14
1681.00,98.10
1680.00,98.03
1679.00,97.95
1678.00,97.87
1677.00,97.78
1676.00,97.68
1675.00,97.60
1674.00,97.53
1673.00,97.46
1672.00,97.39
1671.00,97.31
1670.00,97.24
1669.00,97.16
1668.00,97.08
1667.00,97.00
1666.00,96.91
1665.00,96.81
1664.00,96.70
1663.00,96.61
1662.00,96.54
1661.00,96.47
1660.00,96.38
1659.00,96.28
1658.00,96.16
1657.00,96.03
1656.00,95.90
1655.00,95.77
1654.00,95.68
1653.00,95.64
1652.00,95.58
1651.00,95.51
1650.00,95.42
1649.00,95.31
1648.00,95.18
1647.00,95.07
1646.00,94.99
1645.00,94.92
1644.00,94.84
1643.00,94.76
1642.00,94.68
1641.00,94.58
1640.00,94.45
1639.00,94.31
1638.00,94.16
1637.00,94.02
1636.00,93.90
1635.00,93.82
1634.00,93.75
1633.00,93.66
1632.00,93.53
1631.00,93.38
1630.00,93.24
1629.00,93.12
1628.00,93.00
1627.00,92.89
1626.00,92.78
1625.00,92.68
1624.00,92.59
1623.00,92.52
1622.00,92.48
1621.00,92.43
1620.00,92.36
1619.00,92.29
1618.00,92.28
1617.00,92.38
1616.00,92.53
1615.00,92.66
1614.00,92.75
1613.00,92.82
1612.00,92.91
1611.00,93.03
1610.00,93.17
1609.00,93.32
1608.00,93.47
1607.00,93.62
1606.00,93.79
1605.00,93.97
1604.00,94.16
1603.00,94.34
1602.00,94.52
1601.00,94.67
1600.00,94.82
1599.00,94.96
1598.00,95.08
1597.00,95.20
1596.00,95.32
1595.00,95.44
1594.00,95.56
1593.00,95.67
1592.00,95.78
1591.00,95.88
1590.00,95.99
1589.00,96.09
1588.00,96.19
1587.00,96.28
1586.00,96.36
1585.00,96.44
1584.00,96.51
1583.00,96.57
1582.00,96.63
1581.00,96.65
1580.00,96.65
1579.00,96.63
1578.00,96.61
1577.00,96.60
1576.00,96.62
1575.00,96.64
1574.00,96.64
1573.00,96.60
1572.00,96.54
1571.00,96.47
1570.00,96.41
1569.00,96.39
1568.00,96.36
1567.00,96.31
1566.00,96.22
1565.00,96.11
1564.00,96.02
1563.00,95.93
1562.00,95.83
1561.00,95.70
1560.00,95.57
1559.00,95.52
1558.00,95.53
1557.00,95.52
1556.00,95.47
1555.00,95.39
1554.00,95.30
1553.00,95.21
1552.00,95.12
1551.00,95.06
1550.00,95.00
1549.00,94.94
1548.00,94.86
1547.00,94.78
1546.00,94.70
1545.00,94.63
1544.00,94.55
1543.00,94.45
1542.00,94.33
1541.00,94.22
1540.00,94.15
1539.00,94.11
1538.00,94.06
1537.00,93.99
1536.00,93.89
1535.00,93.79
1534.00,93.70
1533.00,93.65
1532.00,93.59
1531.00,93.51
1530.00,93.41
1529.00,93.31
1528.00,93.23
1527.00,93.16
1526.00,93.11
1525.00,93.05
1524.00,92.97
1523.00,92.88
1522.00,92.80
1521.00,92.75
1520.00,92.70
1519.00,92.63
1518.00,92.54
1517.00,92.46
1516.00,92.41
1515.00,92.37
1514.00,92.32
1513.00,92.29
1512.00,92.30
1511.00,92.31
1510.00,92.32
1509.00,92.34
1508.00,92.41
1507.00,92.56
1506.00,92.73
1505.00,92.83
1504.00,92.88
1503.00,92.91
1502.00,92.94
1501.00,92.99
1500.00,93.07
1499.00,93.17
1498.00,93.29
1497.00,93.46
1496.00,93.64
1495.00,93.80
1494.00,93.90
1493.00,93.97
1492.00,94.05
1491.00,94.17
1490.00,94.34
1489.00,94.52
1488.00,94.68
1487.00,94.80
1486.00,94.90
1485.00,94.98
1484.00,95.06
1483.00,95.14
1482.00,95.23
1481.00,95.34
1480.00,95.43
1479.00,95.49
1478.00,95.55
1477.00,95.61
1476.00,95.68
1475.00,95.74
1474.00,95.80
1473.00,95.88
1472.00,95.98
1471.00,96.05
1470.00,96.08
1469.00,96.05
1468.00,96.01
1467.00,95.98
1466.00,95.98
1465.00,96.01
1464.00,96.04
1463.00,96.05
1462.00,96.03
1461.00,95.99
1460.00,95.93
1459.00,95.88
1458.00,95.86
1457.00,95.85
1456.00,95.81
1455.00,95.72
1454.00,95.60
1453.00,95.46
1452.00,95.32
1451.00,95.19
1450.00,95.08
1449.00,95.00
1448.00,94.93
1447.00,94.88
1446.00,94.83
1445.00,94.79
1444.00,94.75
1443.00,94.74
1442.00,94.73
1441.00,94.72
1440.00,94.70
1439.00,94.70
1438.00,94.74
1437.00,94.85
1436.00,94.99
1435.00,95.09
1434.00,95.16
1433.00,95.20
1432.00,95.27
1431.00,95.36
1430.00,95.46
1429.00,95.56
1428.00,95.63
1427.00,95.67
1426.00,95.71
1425.00,95.74
1424.00,95.78
1423.00,95.81
1422.00,95.82
1421.00,95.80
1420.00,95.80
1419.00,95.82
1418.00,95.85
1417.00,95.86
1416.00,95.85
1415.00,95.81
1414.00,95.77
1413.00,95.75
1412.00,95.73
1411.00,95.72
1410.00,95.71
1409.00,95.71
1408.00,95.70
1407.00,95.69
1406.00,95.70
1405.00,95.73
1404.00,95.76
1403.00,95.79
1402.00,95.80
1401.00,95.80
1400.00,95.82
1399.00,95.85
1398.00,95.89
1397.00,95.92
1396.00,95.95
1395.00,95.98
1394.00,96.01
1393.00,96.02
1392.00,96.00
1391.00,95.98
1390.00,95.96
1389.00,95.96
1388.00,95.98
1387.00,96.02
1386.00,96.04
1385.00,96.05
1384.00,96.04
1383.00,96.04
1382.00,96.05
1381.00,96.06
1380.00,96.08
1379.00,96.10
1378.00,96.12
1377.00,96.13
1376.00,96.13
1375.00,96.12
1374.00,96.10
1373.00,96.10
1372.00,96.09
1371.00,96.08
1370.00,96.08
1369.00,96.09
1368.00,96.11
1367.00,96.14
1366.00,96.16
1365.00,96.19
1364.00,96.23
1363.00,96.30
1362.00,96.37
1361.00,96.43
1360.00,96.47
1359.00,96.51
1358.00,96.55
1357.00,96.59
1356.00,96.62
1355.00,96.64
1354.00,96.67
1353.00,96.68
1352.00,96.69
1351.00,96.70
1350.00,96.70
1349.00,96.71
1348.00,96.71
1347.00,96.71
1346.00,96.70
1345.00,96.70
1344.00,96.69
1343.00,96.68
1342.00,96.67
1341.00,96.65
1340.00,96.65
1339.00,96.65
1338.00,96.66
1337.00,96.66
1336.00,96.66
1335.00,96.66
1334.00,96.65
1333.00,96.64
1332.00,96.65
1331.00,96.67
1330.00,96.69
1329.00,96.72
1328.00,96.74
1327.00,96.76
1326.00,96.78
1325.00,96.80
1324.00,96.82
1323.00,96.84
1322.00,96.86
1321.00,96.88
1320.00,96.90
1319.00,96.91
1318.00,96.91
1317.00,96.92
1316.00,96.93
1315.00,96.94
1314.00,96.95
1313.00,96.96
1312.00,96.97
1311.00,96.97
1310.00,96.98
1309.00,96.99
1308.00,97.00
1307.00,97.01
1306.00,97.01
1305.00,97.01
1304.00,97.01
1303.00,97.02
1302.00,97.03
1301.00,97.05
1300.00,97.07
1299.00,97.07
1298.00,97.07
1297.00,97.07
1296.00,97.08
1295.00,97.08
1294.00,97.09
1293.00,97.10
1292.00,97.10
1291.00,97.10
1290.00,97.09
1289.00,97.09
1288.00,97.09
1287.00,97.08
1286.00,97.08
1285.00,97.07
1284.00,97.06
1283.00,97.04
1282.00,97.01
1281.00,96.97
1280.00,96.94
1279.00,96.92
1278.00,96.90
1277.00,96.87
1276.00,96.82
1275.00,96.76
1274.00,96.68
1273.00,96.60
1272.00,96.52
1271.00,96.44
1270.00,96.37
1269.00,96.30
1268.00,96.23
1267.00,96.16
1266.00,96.09
1265.00,96.05
1264.00,96.02
1263.00,96.00
1262.00,95.99
1261.00,95.98
1260.00,95.97
1259.00,95.96
1258.00,95.95
1257.00,95.96
1256.00,95.96
1255.00,95.97
1254.00,95.97
1253.00,95.96
1252.00,95.95
1251.00,95.93
1250.00,95.91
1249.00,95.89
1248.00,95.85
1247.00,95.80
1246.00,95.74
1245.00,95.69
1244.00,95.64
1243.00,95.60
1242.00,95.56
1241.00,95.51
1240.00,95.46
1239.00,95.40
1238.00,95.33
1237.00,95.26
1236.00,95.20
1235.00,95.15
1234.00,95.09
1233.00,95.03
1232.00,94.97
1231.00,94.91
1230.00,94.87
1229.00,94.85
1228.00,94.84
1227.00,94.85
1226.00,94.86
1225.00,94.89
1224.00,94.92
1223.00,94.95
1222.00,94.97
1221.00,94.98
1220.00,95.01
1219.00,95.05
1218.00,95.11
1217.00,95.17
1216.00,95.21
1215.00,95.25
1214.00,95.29
1213.00,95.34
1212.00,95.41
1211.00,95.50
1210.00,95.60
1209.00,95.69
1208.00,95.78
1207.00,95.85
1206.00,95.92
1205.00,95.99
1204.00,96.05
1203.00,96.12
1202.00,96.18
1201.00,96.24
1200.00,96.30
1199.00,96.36
1198.00,96.41
1197.00,96.47
1196.00,96.52
1195.00,96.56
1194.00,96.60
1193.00,96.63
1192.00,96.66
1191.00,96.69
1190.00,96.73
1189.00,96.76
1188.00,96.79
1187.00,96.79
1186.00,96.79
1185.00,96.79
1184.00,96.78
1183.00,96.77
1182.00,96.75
1181.00,96.73
1180.00,96.71
1179.00,96.69
1178.00,96.65
1177.00,96.61
1176.00,96.57
1175.00,96.53
1174.00,96.50
1173.00,96.46
1172.00,96.40
1171.00,96.35
1170.00,96.32
1169.00,96.29
1168.00,96.27
1167.00,96.25
1166.00,96.23
1165.00,96.22
1164.00,96.21
1163.00,96.21
1162.00,96.20
1161.00,96.19
1160.00,96.18
1159.00,96.18
1158.00,96.20
1157.00,96.22
1156.00,96.24
1155.00,96.25
1154.00,96.27
1153.00,96.30
1152.00,96.35
1151.00,96.41
1150.00,96.47
1149.00,96.52
1148.00,96.57
1147.00,96.61
1146.00,96.65
1145.00,96.69
1144.00,96.71
1143.00,96.72
1142.00,96.73
1141.00,96.76
1140.00,96.80
1139.00,96.85
1138.00,96.89
1137.00,96.90
1136.00,96.90
1135.00,96.90
1134.00,96.90
1133.00,96.89
1132.00,96.89
1131.00,96.90
1130.00,96.90
1129.00,96.90
1128.00,96.89
1127.00,96.89
1126.00,96.92
1125.00,96.97
1124.00,97.00
1123.00,96.98
1122.00,96.94
1121.00,96.89
1120.00,96.86
1119.00,96.86
1118.00,96.88
1117.00,96.91
1116.00,96.91
1115.00,96.89
1114.00,96.88
1113.00,96.89
1112.00,96.91
1111.00,96.92
1110.00,96.93
1109.00,96.93
1108.00,96.94
1107.00,96.92
1106.00,96.89
1105.00,96.84
1104.00,96.81
1103.00,96.79
1102.00,96.78
1101.00,96.77
1100.00,96.77
1099.00,96.78
1098.00,96.81
1097.00,96.85
1096.00,96.90
1095.00,96.93
1094.00,96.92
1093.00,96.89
1092.00,96.87
1091.00,96.86
1090.00,96.85
1089.00,96.83
1088.00,96.80
1087.00,96.74
1086.00,96.66
1085.00,96.58
1084.00,96.53
1083.00,96.49
1082.00,96.47
1081.00,96.44
1080.00,96.40
1079.00,96.35
1078.00,96.30
1077.00,96.25
1076.00,96.19
1075.00,96.12
1074.00,96.04
1073.00,95.99
1072.00,95.97
1071.00,95.97
1070.00,95.98
1069.00,95.96
1068.00,95.94
1067.00,95.90
1066.00,95.87
1065.00,95.86
1064.00,95.87
1063.00,95.88
1062.00,95.89
1061.00,95.89
1060.00,95.90
1059.00,95.92
1058.00,95.95
1057.00,95.98
1056.00,95.99
1055.00,96.01
1054.00,96.02
1053.00,96.04
1052.00,96.06
1051.00,96.07
1050.00,96.07
1049.00,96.07
1048.00,96.07
1047.00,96.05
1046.00,96.01
1045.00,95.98
1044.00,95.96
1043.00,95.95
1042.00,95.94
1041.00,95.95
1040.00,95.97
1039.00,96.01
1038.00,96.06
1037.00,96.11
1036.00,96.16
1035.00,96.23
1034.00,96.32
1033.00,96.39
1032.00,96.44
1031.00,96.48
1030.00,96.52
1029.00,96.58
1028.00,96.64
1027.00,96.69
1026.00,96.73
1025.00,96.75
1024.00,96.77
1023.00,96.80
1022.00,96.82
1021.00,96.84
1020.00,96.86
1019.00,96.87
1018.00,96.87
1017.00,96.85
1016.00,96.84
1015.00,96.82
1014.00,96.82
1013.00,96.84
1012.00,96.88
1011.00,96.92
1010.00,96.94
1009.00,96.94
1008.00,96.94
1007.00,96.94
1006.00,96.93
1005.00,96.91
1004.00,96.89
1003.00,96.86
1002.00,96.83
1001.00,96.82
1000.00,96.84
999.00,96.86
998.00,96.86
997.00,96.85
996.00,96.84
995.00,96.85
994.00,96.88
993.00,96.92
992.00,96.97
991.00,97.03
990.00,97.10
989.00,97.16
988.00,97.22
987.00,97.27
986.00,97.30
985.00,97.32
984.00,97.32
983.00,97.31
982.00,97.30
981.00,97.29
980.00,97.26
979.00,97.23
978.00,97.19
977.00,97.15
976.00,97.11
975.00,97.08
974.00,97.08
973.00,97.11
972.00,97.15
971.00,97.19
970.00,97.22
969.00,97.27
968.00,97.32
967.00,97.38
966.00,97.43
965.00,97.46
964.00,97.50
963.00,97.53
962.00,97.54
961.00,97.52
960.00,97.50
959.00,97.50
958.00,97.53
957.00,97.57
956.00,97.60
955.00,97.64
954.00,97.67
953.00,97.68
952.00,97.69
951.00,97.69
950.00,97.70
949.00,97.70
948.00,97.71
947.00,97.72
946.00,97.73
945.00,97.75
944.00,97.76
943.00,97.76
942.00,97.77
941.00,97.77
940.00,97.78
939.00,97.80
938.00,97.82
937.00,97.83
936.00,97.84
935.00,97.84
934.00,97.85
933.00,97.84
932.00,97.82
931.00,97.81
930.00,97.80
929.00,97.82
928.00,97.85
927.00,97.88
926.00,97.90
925.00,97.91
924.00,97.91
923.00,97.93
922.00,97.97
921.00,98.01
920.00,98.05
919.00,98.07
918.00,98.09
917.00,98.11
916.00,98.14
915.00,98.16
914.00,98.18
913.00,98.21
912.00,98.25
911.00,98.29
910.00,98.31
909.00,98.32
908.00,98.31
907.00,98.32
906.00,98.34
905.00,98.37
904.00,98.38
903.00,98.38
902.00,98.35
901.00,98.32
900.00,98.28
899.00,98.26
898.00,98.25
897.00,98.27
896.00,98.30
895.00,98.32
894.00,98.34
893.00,98.36
892.00,98.38
891.00,98.41
890.00,98.42
889.00,98.42
888.00,98.40
887.00,98.38
886.00,98.38
885.00,98.37
884.00,98.36
883.00,98.35
882.00,98.33
881.00,98.32
880.00,98.30
879.00,98.30
878.00,98.30
877.00,98.28
876.00,98.26
875.00,98.24
874.00,98.25
873.00,98.28
872.00,98.32
871.00,98.36
870.00,98.38
869.00,98.38
868.00,98.38
867.00,98.39
866.00,98.42
865.00,98.43
864.00,98.43
863.00,98.40
862.00,98.36
861.00,98.32
860.00,98.30
859.00,98.28
858.00,98.27
857.00,98.26
856.00,98.24
855.00,98.22
854.00,98.21
853.00,98.20
852.00,98.18
851.00,98.18
850.00,98.20
849.00,98.24
848.00,98.27
847.00,98.25
846.00,98.23
845.00,98.23
844.00,98.25
843.00,98.28
842.00,98.28
841.00,98.26
840.00,98.22
839.00,98.17
838.00,98.14
837.00,98.13
836.00,98.14
835.00,98.15
834.00,98.14
833.00,98.11
832.00,98.07
831.00,98.03
830.00,98.00
829.00,97.98
828.00,97.97
827.00,97.96
826.00,97.94
825.00,97.93
824.00,97.93
823.00,97.93
822.00,97.92
821.00,97.92
820.00,97.93
819.00,97.92
818.00,97.91
817.00,97.91
816.00,97.91
815.00,97.92
814.00,97.93
813.00,97.93
812.00,97.93
811.00,97.93
810.00,97.94
809.00,97.94
808.00,97.93
807.00,97.90
806.00,97.86
805.00,97.82
804.00,97.81
803.00,97.80
802.00,97.81
801.00,97.81
800.00,97.79
799.00,97.78
798.00,97.80
797.00,97.85
796.00,97.91
795.00,97.95
794.00,97.98
793.00,98.00
792.00,98.00
791.00,97.99
790.00,97.97
789.00,97.95
788.00,97.93
787.00,97.89
786.00,97.84
785.00,97.75
784.00,97.64
783.00,97.55
782.00,97.51
781.00,97.52
780.00,97.53
779.00,97.53
778.00,97.48
777.00,97.41
776.00,97.34
775.00,97.29
774.00,97.25
773.00,97.23
772.00,97.21
771.00,97.17
770.00,97.13
769.00,97.09
768.00,97.06
767.00,97.03
766.00,97.00
765.00,96.99
764.00,97.00
763.00,97.04
762.00,97.07
761.00,97.07
760.00,97.03
759.00,96.98
758.00,96.93
757.00,96.88
756.00,96.82
755.00,96.78
754.00,96.75
753.00,96.74
752.00,96.74
751.00,96.73
750.00,96.72
749.00,96.69
748.00,96.65
747.00,96.58
746.00,96.50
745.00,96.44
744.00,96.40
743.00,96.34
742.00,96.26
741.00,96.16
740.00,96.07
739.00,96.00
738.00,95.97
737.00,95.97
736.00,95.99
735.00,95.98
734.00,95.92
733.00,95.82
732.00,95.70
731.00,95.58
730.00,95.47
729.00,95.38
728.00,95.31
727.00,95.24
726.00,95.18
725.00,95.14
724.00,95.12
723.00,95.10
722.00,95.07
721.00,95.02
720.00,94.95
719.00,94.87
718.00,94.77
717.00,94.67
716.00,94.58
715.00,94.53
714.00,94.52
713.00,94.51
712.00,94.47
711.00,94.40
710.00,94.29
709.00,94.19
708.00,94.08
707.00,93.99
706.00,93.91
705.00,93.86
704.00,93.83
703.00,93.79
702.00,93.73
701.00,93.65
700.00,93.58
699.00,93.54
698.00,93.55
697.00,93.57
696.00,93.59
695.00,93.60
694.00,93.58
693.00,93.54
692.00,93.47
691.00,93.41
690.00,93.38
689.00,93.39
688.00,93.41
687.00,93.43
686.00,93.42
685.00,93.37
684.00,93.31
683.00,93.26
682.00,93.23
681.00,93.21
680.00,93.20
679.00,93.21
678.00,93.23
677.00,93.23
676.00,93.22
675.00,93.20
674.00,93.17
673.00,93.14
672.00,93.10
671.00,93.06
670.00,93.01
669.00,92.94
668.00,92.92
667.00,92.99
666.00,93.06
665.00,93.08
664.00,93.04
663.00,92.96
662.00,92.88
661.00,92.82
660.00,92.79
659.00,92.78
658.00,92.78
657.00,92.80
656.00,92.81
655.00,92.80
654.00,92.77
653.00,92.72
652.00,92.68
651.00,92.63
650.00,92.55
649.00,92.43
648.00,92.30
647.00,92.21
646.00,92.17
645.00,92.13
644.00,92.09
643.00,92.05
642.00,92.03
641.00,92.03
640.00,92.09
639.00,92.20
638.00,92.36
637.00,92.53
636.00,92.66
635.00,92.69
634.00,92.55
633.00,92.30
632.00,92.03
631.00,91.87
630.00,91.82
629.00,91.80
628.00,91.80
627.00,91.83
626.00,91.86
625.00,91.82
624.00,91.69
623.00,91.53
622.00,91.45
621.00,91.49
620.00,91.68
619.00,92.04
618.00,92.47
617.00,92.74
616.00,92.69
615.00,92.38
614.00,92.00
613.00,91.73
612.00,91.64
611.00,91.68
610.00,91.76
609.00,91.84
608.00,91.89
607.00,91.86
606.00,91.74
605.00,91.60
604.00,91.59
603.00,91.82
602.00,92.16
601.00,92.32
600.00,92.20
599.00,91.94
598.00,91.78
597.00,91.85
596.00,92.05
595.00,92.20
594.00,92.15
593.00,92.03
592.00,92.11
591.00,92.48
590.00,92.85
589.00,92.92
588.00,92.78
587.00,92.79
586.00,93.07
585.00,93.36
584.00,93.38
583.00,93.19
582.00,92.97
581.00,92.74
580.00,92.49
579.00,92.43
578.00,92.68
577.00,93.09
576.00,93.35
575.00,93.41
574.00,93.34
573.00,93.17
572.00,92.94
571.00,92.89
570.00,93.27
569.00,93.87
568.00,94.14
567.00,93.78
566.00,93.02
565.00,92.27
564.00,91.63
563.00,91.03
562.00,90.48
561.00,90.13
560.00,90.10
559.00,90.36
558.00,90.69
557.00,90.82
556.00,90.73
555.00,90.54
554.00,90.28
553.00,89.91
552.00,89.42
551.00,88.97
550.00,88.67
