Created as New Dataset,17.4 Tussah frrom India
cm-1,%T
4000.00,102.20
3999.00,102.20
3998.00,102.19
3997.00,102.19
3996.00,102.19
3995.00,102.19
3994.00,102.19
3993.00,102.20
3992.00,102.20
3991.00,102.22
3990.00,102.23
3989.00,102.24
3988.00,102.23
3987.00,102.22
3986.00,102.19
3985.00,102.18
3984.00,102.18
3983.00,102.18
3982.00,102.18
3981.00,102.17
3980.00,102.16
3979.00,102.15
3978.00,102.15
3977.00,102.16
3976.00,102.18
3975.00,102.18
3974.00,102.19
3973.00,102.19
3972.00,102.20
3971.00,102.20
3970.00,102.19
3969.00,102.17
3968.00,102.15
3967.00,102.15
3966.00,102.16
3965.00,102.17
3964.00,102.18
3963.00,102.19
3962.00,102.20
3961.00,102.20
3960.00,102.20
3959.00,102.21
3958.00,102.21
3957.00,102.22
3956.00,102.22
3955.00,102.21
3954.00,102.20
3953.00,102.19
3952.00,102.18
3951.00,102.17
3950.00,102.17
3949.00,102.16
3948.00,102.16
3947.00,102.15
3946.00,102.15
3945.00,102.16
3944.00,102.17
3943.00,102.18
3942.00,102.18
3941.00,102.17
3940.00,102.16
3939.00,102.15
3938.00,102.14
3937.00,102.14
3936.00,102.13
3935.00,102.13
3934.00,102.12
3933.00,102.12
3932.00,102.12
3931.00,102.12
3930.00,102.11
3929.00,102.11
3928.00,102.10
3927.00,102.10
3926.00,102.09
3925.00,102.08
3924.00,102.07
3923.00,102.06
3922.00,102.05
3921.00,102.05
3920.00,102.07
3919.00,102.09
3918.00,102.12
3917.00,102.15
3916.00,102.18
3915.00,102.19
3914.00,102.20
3913.00,102.20
3912.00,102.20
3911.00,102.19
3910.00,102.18
3909.00,102.18
3908.00,102.17
3907.00,102.17
3906.00,102.16
3905.00,102.15
3904.00,102.14
3903.00,102.14
3902.00,102.15
3901.00,102.16
3900.00,102.17
3899.00,102.17
3898.00,102.17
3897.00,102.17
3896.00,102.17
3895.00,102.16
3894.00,102.14
3893.00,102.12
3892.00,102.11
3891.00,102.12
3890.00,102.14
3889.00,102.15
3888.00,102.14
3887.00,102.13
3886.00,102.12
3885.00,102.11
3884.00,102.11
3883.00,102.11
3882.00,102.11
3881.00,102.10
3880.00,102.09
3879.00,102.09
3878.00,102.09
3877.00,102.10
3876.00,102.10
3875.00,102.10
3874.00,102.09
3873.00,102.09
3872.00,102.09
3871.00,102.10
3870.00,102.13
3869.00,102.17
3868.00,102.20
3867.00,102.20
3866.00,102.19
3865.00,102.17
3864.00,102.14
3863.00,102.12
3862.00,102.11
3861.00,102.10
3860.00,102.11
3859.00,102.12
3858.00,102.13
3857.00,102.15
3856.00,102.18
3855.00,102.21
3854.00,102.23
3853.00,102.23
3852.00,102.23
3851.00,102.21
3850.00,102.19
3849.00,102.17
3848.00,102.16
3847.00,102.16
3846.00,102.17
3845.00,102.16
3844.00,102.16
3843.00,102.15
3842.00,102.15
3841.00,102.15
3840.00,102.15
3839.00,102.14
3838.00,102.14
3837.00,102.14
3836.00,102.14
3835.00,102.14
3834.00,102.14
3833.00,102.14
3832.00,102.15
3831.00,102.14
3830.00,102.13
3829.00,102.11
3828.00,102.09
3827.00,102.07
3826.00,102.07
3825.00,102.08
3824.00,102.09
3823.00,102.09
3822.00,102.08
3821.00,102.05
3820.00,102.03
3819.00,102.03
3818.00,102.05
3817.00,102.08
3816.00,102.11
3815.00,102.15
3814.00,102.17
3813.00,102.18
3812.00,102.17
3811.00,102.17
3810.00,102.16
3809.00,102.14
3808.00,102.13
3807.00,102.12
3806.00,102.13
3805.00,102.15
3804.00,102.16
3803.00,102.14
3802.00,102.10
3801.00,102.07
3800.00,102.08
3799.00,102.10
3798.00,102.13
3797.00,102.14
3796.00,102.15
3795.00,102.14
3794.00,102.14
3793.00,102.12
3792.00,102.11
3791.00,102.10
3790.00,102.09
3789.00,102.10
3788.00,102.11
3787.00,102.12
3786.00,102.13
3785.00,102.13
3784.00,102.12
3783.00,102.10
3782.00,102.08
3781.00,102.05
3780.00,102.03
3779.00,102.02
3778.00,102.02
3777.00,102.03
3776.00,102.05
3775.00,102.06
3774.00,102.06
3773.00,102.05
3772.00,102.04
3771.00,102.05
3770.00,102.06
3769.00,102.07
3768.00,102.06
3767.00,102.04
3766.00,102.02
3765.00,102.01
3764.00,102.02
3763.00,102.04
3762.00,102.05
3761.00,102.05
3760.00,102.03
3759.00,101.99
3758.00,101.96
3757.00,101.95
3756.00,101.97
3755.00,101.99
3754.00,102.01
3753.00,102.01
3752.00,102.00
3751.00,101.99
3750.00,101.98
3749.00,101.99
3748.00,102.01
3747.00,102.02
3746.00,102.01
3745.00,102.00
3744.00,102.00
3743.00,102.02
3742.00,102.05
3741.00,102.07
3740.00,102.07
3739.00,102.06
3738.00,102.03
3737.00,102.01
3736.00,101.98
3735.00,101.98
3734.00,101.96
3733.00,101.94
3732.00,101.91
3731.00,101.90
3730.00,101.91
3729.00,101.94
3728.00,101.97
3727.00,101.98
3726.00,101.97
3725.00,101.96
3724.00,101.94
3723.00,101.93
3722.00,101.94
3721.00,101.96
3720.00,101.98
3719.00,102.00
3718.00,102.02
3717.00,102.04
3716.00,102.04
3715.00,102.03
3714.00,102.02
3713.00,102.01
3712.00,102.00
3711.00,101.98
3710.00,101.97
3709.00,101.95
3708.00,101.93
3707.00,101.92
3706.00,101.92
3705.00,101.93
3704.00,101.94
3703.00,101.94
3702.00,101.94
3701.00,101.94
3700.00,101.93
3699.00,101.92
3698.00,101.91
3697.00,101.92
3696.00,101.92
3695.00,101.92
3694.00,101.90
3693.00,101.89
3692.00,101.89
3691.00,101.90
3690.00,101.94
3689.00,101.99
3688.00,102.03
3687.00,102.05
3686.00,102.04
3685.00,102.00
3684.00,101.97
3683.00,101.95
3682.00,101.94
3681.00,101.95
3680.00,101.94
3679.00,101.93
3678.00,101.92
3677.00,101.91
3676.00,101.90
3675.00,101.90
3674.00,101.91
3673.00,101.90
3672.00,101.89
3671.00,101.87
3670.00,101.85
3669.00,101.84
3668.00,101.83
3667.00,101.82
3666.00,101.80
3665.00,101.79
3664.00,101.77
3663.00,101.75
3662.00,101.75
3661.00,101.75
3660.00,101.77
3659.00,101.80
3658.00,101.81
3657.00,101.81
3656.00,101.80
3655.00,101.78
3654.00,101.76
3653.00,101.74
3652.00,101.71
3651.00,101.69
3650.00,101.68
3649.00,101.70
3648.00,101.73
3647.00,101.74
3646.00,101.74
3645.00,101.72
3644.00,101.69
3643.00,101.68
3642.00,101.67
3641.00,101.67
3640.00,101.67
3639.00,101.65
3638.00,101.63
3637.00,101.60
3636.00,101.58
3635.00,101.57
3634.00,101.58
3633.00,101.60
3632.00,101.63
3631.00,101.64
3630.00,101.62
3629.00,101.58
3628.00,101.54
3627.00,101.53
3626.00,101.53
3625.00,101.54
3624.00,101.55
3623.00,101.56
3622.00,101.57
3621.00,101.58
3620.00,101.57
3619.00,101.56
3618.00,101.54
3617.00,101.52
3616.00,101.51
3615.00,101.50
3614.00,101.48
3613.00,101.46
3612.00,101.44
3611.00,101.43
3610.00,101.42
3609.00,101.41
3608.00,101.39
3607.00,101.38
3606.00,101.37
3605.00,101.35
3604.00,101.33
3603.00,101.32
3602.00,101.31
3601.00,101.32
3600.00,101.33
3599.00,101.34
3598.00,101.34
3597.00,101.33
3596.00,101.32
3595.00,101.31
3594.00,101.29
3593.00,101.28
3592.00,101.26
3591.00,101.23
3590.00,101.21
3589.00,101.21
3588.00,101.22
3587.00,101.24
3586.00,101.26
3585.00,101.25
3584.00,101.23
3583.00,101.21
3582.00,101.19
3581.00,101.18
3580.00,101.18
3579.00,101.17
3578.00,101.17
3577.00,101.16
3576.00,101.15
3575.00,101.15
3574.00,101.14
3573.00,101.12
3572.00,101.09
3571.00,101.07
3570.00,101.05
3569.00,101.04
3568.00,101.03
3567.00,101.02
3566.00,101.01
3565.00,101.01
3564.00,101.01
3563.00,101.01
3562.00,101.01
3561.00,101.00
3560.00,100.99
3559.00,100.99
3558.00,100.98
3557.00,100.97
3556.00,100.96
3555.00,100.95
3554.00,100.94
3553.00,100.93
3552.00,100.91
3551.00,100.88
3550.00,100.83
3549.00,100.78
3548.00,100.74
3547.00,100.71
3546.00,100.72
3545.00,100.74
3544.00,100.78
3543.00,100.81
3542.00,100.83
3541.00,100.82
3540.00,100.80
3539.00,100.76
3538.00,100.71
3537.00,100.69
3536.00,100.69
3535.00,100.69
3534.00,100.68
3533.00,100.66
3532.00,100.64
3531.00,100.64
3530.00,100.66
3529.00,100.69
3528.00,100.70
3527.00,100.71
3526.00,100.70
3525.00,100.67
3524.00,100.64
3523.00,100.61
3522.00,100.59
3521.00,100.59
3520.00,100.59
3519.00,100.58
3518.00,100.56
3517.00,100.54
3516.00,100.53
3515.00,100.52
3514.00,100.51
3513.00,100.49
3512.00,100.48
3511.00,100.46
3510.00,100.46
3509.00,100.47
3508.00,100.46
3507.00,100.45
3506.00,100.43
3505.00,100.41
3504.00,100.38
3503.00,100.35
3502.00,100.33
3501.00,100.33
3500.00,100.35
3499.00,100.37
3498.00,100.38
3497.00,100.39
3496.00,100.38
3495.00,100.36
3494.00,100.33
3493.00,100.30
3492.00,100.27
3491.00,100.26
3490.00,100.27
3489.00,100.27
3488.00,100.28
3487.00,100.29
3486.00,100.30
3485.00,100.30
3484.00,100.30
3483.00,100.29
3482.00,100.28
3481.00,100.28
3480.00,100.29
3479.00,100.30
3478.00,100.31
3477.00,100.29
3476.00,100.26
3475.00,100.22
3474.00,100.20
3473.00,100.19
3472.00,100.18
3471.00,100.18
3470.00,100.18
3469.00,100.18
3468.00,100.20
3467.00,100.21
3466.00,100.19
3465.00,100.15
3464.00,100.09
3463.00,100.05
3462.00,100.04
3461.00,100.05
3460.00,100.07
3459.00,100.08
3458.00,100.08
3457.00,100.07
3456.00,100.05
3455.00,100.02
3454.00,99.99
3453.00,99.96
3452.00,99.94
3451.00,99.94
3450.00,99.94
3449.00,99.95
3448.00,99.95
3447.00,99.96
3446.00,99.96
3445.00,99.96
3444.00,99.97
3443.00,99.98
3442.00,99.98
3441.00,99.97
3440.00,99.95
3439.00,99.93
3438.00,99.91
3437.00,99.89
3436.00,99.86
3435.00,99.83
3434.00,99.82
3433.00,99.83
3432.00,99.85
3431.00,99.87
3430.00,99.87
3429.00,99.84
3428.00,99.81
3427.00,99.78
3426.00,99.76
3425.00,99.76
3424.00,99.76
3423.00,99.76
3422.00,99.76
3421.00,99.74
3420.00,99.71
3419.00,99.68
3418.00,99.67
3417.00,99.69
3416.00,99.72
3415.00,99.73
3414.00,99.71
3413.00,99.68
3412.00,99.65
3411.00,99.63
3410.00,99.62
3409.00,99.60
3408.00,99.58
3407.00,99.57
3406.00,99.56
3405.00,99.56
3404.00,99.56
3403.00,99.56
3402.00,99.55
3401.00,99.53
3400.00,99.50
3399.00,99.47
3398.00,99.45
3397.00,99.44
3396.00,99.44
3395.00,99.45
3394.00,99.46
3393.00,99.46
3392.00,99.46
3391.00,99.45
3390.00,99.43
3389.00,99.42
3388.00,99.40
3387.00,99.37
3386.00,99.34
3385.00,99.32
3384.00,99.31
3383.00,99.31
3382.00,99.30
3381.00,99.30
3380.00,99.28
3379.00,99.26
3378.00,99.23
3377.00,99.21
3376.00,99.19
3375.00,99.18
3374.00,99.17
3373.00,99.18
3372.00,99.18
3371.00,99.19
3370.00,99.19
3369.00,99.20
3368.00,99.19
3367.00,99.18
3366.00,99.16
3365.00,99.13
3364.00,99.10
3363.00,99.08
3362.00,99.07
3361.00,99.05
3360.00,99.04
3359.00,99.02
3358.00,99.00
3357.00,98.98
3356.00,98.98
3355.00,98.98
3354.00,98.98
3353.00,98.96
3352.00,98.92
3351.00,98.88
3350.00,98.85
3349.00,98.83
3348.00,98.80
3347.00,98.78
3346.00,98.75
3345.00,98.73
3344.00,98.71
3343.00,98.69
3342.00,98.65
3341.00,98.62
3340.00,98.59
3339.00,98.56
3338.00,98.54
3337.00,98.52
3336.00,98.50
3335.00,98.47
3334.00,98.43
3333.00,98.40
3332.00,98.38
3331.00,98.36
3330.00,98.33
3329.00,98.29
3328.00,98.24
3327.00,98.20
3326.00,98.16
3325.00,98.13
3324.00,98.09
3323.00,98.06
3322.00,98.02
3321.00,97.98
3320.00,97.95
3319.00,97.92
3318.00,97.90
3317.00,97.86
3316.00,97.83
3315.00,97.79
3314.00,97.75
3313.00,97.70
3312.00,97.65
3311.00,97.62
3310.00,97.58
3309.00,97.55
3308.00,97.52
3307.00,97.48
3306.00,97.44
3305.00,97.40
3304.00,97.34
3303.00,97.27
3302.00,97.19
3301.00,97.12
3300.00,97.06
3299.00,97.02
3298.00,96.98
3297.00,96.93
3296.00,96.87
3295.00,96.81
3294.00,96.75
3293.00,96.69
3292.00,96.63
3291.00,96.57
3290.00,96.52
3289.00,96.47
3288.00,96.42
3287.00,96.36
3286.00,96.30
3285.00,96.24
3284.00,96.18
3283.00,96.12
3282.00,96.07
3281.00,96.01
3280.00,95.97
3279.00,95.93
3278.00,95.91
3277.00,95.89
3276.00,95.88
3275.00,95.87
3274.00,95.86
3273.00,95.86
3272.00,95.86
3271.00,95.86
3270.00,95.88
3269.00,95.91
3268.00,95.94
3267.00,95.98
3266.00,96.00
3265.00,96.02
3264.00,96.05
3263.00,96.09
3262.00,96.14
3261.00,96.18
3260.00,96.21
3259.00,96.24
3258.00,96.28
3257.00,96.33
3256.00,96.38
3255.00,96.43
3254.00,96.48
3253.00,96.52
3252.00,96.55
3251.00,96.59
3250.00,96.65
3249.00,96.71
3248.00,96.76
3247.00,96.81
3246.00,96.83
3245.00,96.85
3244.00,96.87
3243.00,96.91
3242.00,96.96
3241.00,97.01
3240.00,97.04
3239.00,97.07
3238.00,97.10
3237.00,97.14
3236.00,97.19
3235.00,97.22
3234.00,97.25
3233.00,97.27
3232.00,97.30
3231.00,97.32
3230.00,97.34
3229.00,97.37
3228.00,97.40
3227.00,97.44
3226.00,97.47
3225.00,97.49
3224.00,97.50
3223.00,97.52
3222.00,97.53
3221.00,97.54
3220.00,97.57
3219.00,97.59
3218.00,97.61
3217.00,97.62
3216.00,97.63
3215.00,97.66
3214.00,97.68
3213.00,97.71
3212.00,97.73
3211.00,97.75
3210.00,97.78
3209.00,97.82
3208.00,97.88
3207.00,97.92
3206.00,97.95
3205.00,97.96
3204.00,97.95
3203.00,97.94
3202.00,97.94
3201.00,97.97
3200.00,98.00
3199.00,98.04
3198.00,98.07
3197.00,98.09
3196.00,98.11
3195.00,98.14
3194.00,98.17
3193.00,98.19
3192.00,98.20
3191.00,98.21
3190.00,98.23
3189.00,98.25
3188.00,98.28
3187.00,98.32
3186.00,98.36
3185.00,98.40
3184.00,98.42
3183.00,98.43
3182.00,98.43
3181.00,98.42
3180.00,98.43
3179.00,98.46
3178.00,98.50
3177.00,98.54
3176.00,98.57
3175.00,98.59
3174.00,98.62
3173.00,98.65
3172.00,98.70
3171.00,98.73
3170.00,98.75
3169.00,98.77
3168.00,98.77
3167.00,98.78
3166.00,98.79
3165.00,98.80
3164.00,98.82
3163.00,98.83
3162.00,98.85
3161.00,98.87
3160.00,98.89
3159.00,98.91
3158.00,98.93
3157.00,98.95
3156.00,98.97
3155.00,99.01
3154.00,99.04
3153.00,99.07
3152.00,99.09
3151.00,99.11
3150.00,99.12
3149.00,99.12
3148.00,99.12
3147.00,99.13
3146.00,99.15
3145.00,99.18
3144.00,99.20
3143.00,99.21
3142.00,99.21
3141.00,99.20
3140.00,99.20
3139.00,99.20
3138.00,99.22
3137.00,99.22
3136.00,99.22
3135.00,99.22
3134.00,99.23
3133.00,99.25
3132.00,99.28
3131.00,99.30
3130.00,99.31
3129.00,99.31
3128.00,99.32
3127.00,99.33
3126.00,99.35
3125.00,99.36
3124.00,99.37
3123.00,99.36
3122.00,99.35
3121.00,99.34
3120.00,99.32
3119.00,99.31
3118.00,99.32
3117.00,99.33
3116.00,99.34
3115.00,99.33
3114.00,99.32
3113.00,99.33
3112.00,99.34
3111.00,99.35
3110.00,99.36
3109.00,99.36
3108.00,99.37
3107.00,99.37
3106.00,99.37
3105.00,99.36
3104.00,99.34
3103.00,99.32
3102.00,99.30
3101.00,99.27
3100.00,99.25
3099.00,99.25
3098.00,99.26
3097.00,99.26
3096.00,99.26
3095.00,99.25
3094.00,99.25
3093.00,99.24
3092.00,99.23
3091.00,99.23
3090.00,99.22
3089.00,99.22
3088.00,99.22
3087.00,99.21
3086.00,99.20
3085.00,99.20
3084.00,99.19
3083.00,99.19
3082.00,99.19
3081.00,99.18
3080.00,99.17
3079.00,99.16
3078.00,99.17
3077.00,99.16
3076.00,99.15
3075.00,99.13
3074.00,99.12
3073.00,99.13
3072.00,99.14
3071.00,99.16
3070.00,99.17
3069.00,99.17
3068.00,99.17
3067.00,99.17
3066.00,99.18
3065.00,99.19
3064.00,99.19
3063.00,99.20
3062.00,99.22
3061.00,99.25
3060.00,99.27
3059.00,99.28
3058.00,99.28
3057.00,99.29
3056.00,99.30
3055.00,99.31
3054.00,99.33
3053.00,99.36
3052.00,99.39
3051.00,99.41
3050.00,99.42
3049.00,99.43
3048.00,99.43
3047.00,99.45
3046.00,99.46
3045.00,99.47
3044.00,99.48
3043.00,99.49
3042.00,99.50
3041.00,99.53
3040.00,99.56
3039.00,99.59
3038.00,99.62
3037.00,99.63
3036.00,99.64
3035.00,99.66
3034.00,99.68
3033.00,99.70
3032.00,99.72
3031.00,99.74
3030.00,99.75
3029.00,99.76
3028.00,99.77
3027.00,99.79
3026.00,99.81
3025.00,99.82
3024.00,99.80
3023.00,99.78
3022.00,99.78
3021.00,99.78
3020.00,99.79
3019.00,99.81
3018.00,99.83
3017.00,99.85
3016.00,99.85
3015.00,99.85
3014.00,99.84
3013.00,99.85
3012.00,99.87
3011.00,99.90
3010.00,99.91
3009.00,99.92
3008.00,99.91
3007.00,99.89
3006.00,99.88
3005.00,99.87
3004.00,99.86
3003.00,99.85
3002.00,99.84
3001.00,99.84
3000.00,99.84
2999.00,99.85
2998.00,99.85
2997.00,99.85
2996.00,99.84
2995.00,99.83
2994.00,99.80
2993.00,99.77
2992.00,99.74
2991.00,99.71
2990.00,99.68
2989.00,99.66
2988.00,99.64
2987.00,99.64
2986.00,99.63
2985.00,99.63
2984.00,99.62
2983.00,99.61
2982.00,99.59
2981.00,99.58
2980.00,99.56
2979.00,99.55
2978.00,99.56
2977.00,99.58
2976.00,99.60
2975.00,99.61
2974.00,99.60
2973.00,99.60
2972.00,99.58
2971.00,99.58
2970.00,99.57
2969.00,99.57
2968.00,99.56
2967.00,99.56
2966.00,99.56
2965.00,99.58
2964.00,99.63
2963.00,99.69
2962.00,99.73
2961.00,99.75
2960.00,99.74
2959.00,99.72
2958.00,99.71
2957.00,99.72
2956.00,99.73
2955.00,99.73
2954.00,99.73
2953.00,99.72
2952.00,99.72
2951.00,99.71
2950.00,99.70
2949.00,99.69
2948.00,99.67
2947.00,99.65
2946.00,99.62
2945.00,99.60
2944.00,99.57
2943.00,99.55
2942.00,99.52
2941.00,99.50
2940.00,99.47
2939.00,99.45
2938.00,99.42
2937.00,99.41
2936.00,99.39
2935.00,99.38
2934.00,99.37
2933.00,99.34
2932.00,99.31
2931.00,99.28
2930.00,99.26
2929.00,99.26
2928.00,99.28
2927.00,99.31
2926.00,99.33
2925.00,99.35
2924.00,99.35
2923.00,99.35
2922.00,99.36
2921.00,99.37
2920.00,99.39
2919.00,99.42
2918.00,99.44
2917.00,99.47
2916.00,99.52
2915.00,99.57
2914.00,99.62
2913.00,99.67
2912.00,99.70
2911.00,99.74
2910.00,99.77
2909.00,99.80
2908.00,99.82
2907.00,99.84
2906.00,99.85
2905.00,99.86
2904.00,99.88
2903.00,99.89
2902.00,99.91
2901.00,99.93
2900.00,99.94
2899.00,99.96
2898.00,99.97
2897.00,99.98
2896.00,99.99
2895.00,100.00
2894.00,100.02
2893.00,100.03
2892.00,100.03
2891.00,100.04
2890.00,100.05
2889.00,100.06
2888.00,100.08
2887.00,100.08
2886.00,100.08
2885.00,100.07
2884.00,100.06
2883.00,100.05
2882.00,100.04
2881.00,100.03
2880.00,100.04
2879.00,100.05
2878.00,100.05
2877.00,100.04
2876.00,100.02
2875.00,100.00
2874.00,100.00
2873.00,100.00
2872.00,100.01
2871.00,100.02
2870.00,100.03
2869.00,100.04
2868.00,100.05
2867.00,100.06
2866.00,100.07
2865.00,100.08
2864.00,100.09
2863.00,100.10
2862.00,100.10
2861.00,100.09
2860.00,100.08
2859.00,100.08
2858.00,100.08
2857.00,100.08
2856.00,100.07
2855.00,100.07
2854.00,100.07
2853.00,100.07
2852.00,100.07
2851.00,100.08
2850.00,100.11
2849.00,100.15
2848.00,100.19
2847.00,100.24
2846.00,100.28
2845.00,100.32
2844.00,100.35
2843.00,100.38
2842.00,100.39
2841.00,100.40
2840.00,100.41
2839.00,100.42
2838.00,100.44
2837.00,100.45
2836.00,100.45
2835.00,100.46
2834.00,100.47
2833.00,100.48
2832.00,100.49
2831.00,100.50
2830.00,100.50
2829.00,100.50
2828.00,100.50
2827.00,100.50
2826.00,100.50
2825.00,100.51
2824.00,100.52
2823.00,100.53
2822.00,100.52
2821.00,100.52
2820.00,100.51
2819.00,100.52
2818.00,100.53
2817.00,100.53
2816.00,100.53
2815.00,100.54
2814.00,100.54
2813.00,100.55
2812.00,100.54
2811.00,100.54
2810.00,100.55
2809.00,100.55
2808.00,100.55
2807.00,100.55
2806.00,100.55
2805.00,100.55
2804.00,100.56
2803.00,100.57
2802.00,100.60
2801.00,100.62
2800.00,100.64
2799.00,100.64
2798.00,100.63
2797.00,100.62
2796.00,100.60
2795.00,100.60
2794.00,100.60
2793.00,100.62
2792.00,100.63
2791.00,100.65
2790.00,100.65
2789.00,100.65
2788.00,100.64
2787.00,100.62
2786.00,100.62
2785.00,100.62
2784.00,100.62
2783.00,100.64
2782.00,100.66
2781.00,100.68
2780.00,100.69
2779.00,100.69
2778.00,100.68
2777.00,100.67
2776.00,100.67
2775.00,100.67
2774.00,100.67
2773.00,100.68
2772.00,100.69
2771.00,100.69
2770.00,100.69
2769.00,100.69
2768.00,100.68
2767.00,100.68
2766.00,100.69
2765.00,100.71
2764.00,100.72
2763.00,100.72
2762.00,100.72
2761.00,100.71
2760.00,100.71
2759.00,100.71
2758.00,100.71
2757.00,100.72
2756.00,100.73
2755.00,100.73
2754.00,100.73
2753.00,100.73
2752.00,100.74
2751.00,100.76
2750.00,100.77
2749.00,100.77
2748.00,100.76
2747.00,100.75
2746.00,100.75
2745.00,100.77
2744.00,100.78
2743.00,100.79
2742.00,100.79
2741.00,100.79
2740.00,100.78
2739.00,100.77
2738.00,100.78
2737.00,100.79
2736.00,100.81
2735.00,100.82
2734.00,100.83
2733.00,100.84
2732.00,100.85
2731.00,100.85
2730.00,100.85
2729.00,100.85
2728.00,100.85
2727.00,100.85
2726.00,100.85
2725.00,100.85
2724.00,100.85
2723.00,100.85
2722.00,100.86
2721.00,100.86
2720.00,100.86
2719.00,100.85
2718.00,100.83
2717.00,100.83
2716.00,100.82
2715.00,100.83
2714.00,100.84
2713.00,100.84
2712.00,100.85
2711.00,100.86
2710.00,100.88
2709.00,100.90
2708.00,100.91
2707.00,100.91
2706.00,100.91
2705.00,100.91
2704.00,100.92
2703.00,100.91
2702.00,100.91
2701.00,100.90
2700.00,100.90
2699.00,100.90
2698.00,100.89
2697.00,100.89
2696.00,100.89
2695.00,100.90
2694.00,100.90
2693.00,100.91
2692.00,100.90
2691.00,100.90
2690.00,100.90
2689.00,100.91
2688.00,100.92
2687.00,100.93
2686.00,100.93
2685.00,100.93
2684.00,100.93
2683.00,100.92
2682.00,100.91
2681.00,100.90
2680.00,100.91
2679.00,100.92
2678.00,100.93
2677.00,100.94
2676.00,100.95
2675.00,100.95
2674.00,100.95
2673.00,100.95
2672.00,100.94
2671.00,100.94
2670.00,100.94
2669.00,100.95
2668.00,100.96
2667.00,100.96
2666.00,100.96
2665.00,100.94
2664.00,100.92
2663.00,100.91
2662.00,100.90
2661.00,100.90
2660.00,100.90
2659.00,100.90
2658.00,100.89
2657.00,100.89
2656.00,100.89
2655.00,100.89
2654.00,100.89
2653.00,100.89
2652.00,100.89
2651.00,100.90
2650.00,100.90
2649.00,100.89
2648.00,100.88
2647.00,100.87
2646.00,100.87
2645.00,100.86
2644.00,100.86
2643.00,100.85
2642.00,100.85
2641.00,100.85
2640.00,100.85
2639.00,100.83
2638.00,100.82
2637.00,100.80
2636.00,100.80
2635.00,100.82
2634.00,100.84
2633.00,100.85
2632.00,100.84
2631.00,100.82
2630.00,100.80
2629.00,100.79
2628.00,100.79
2627.00,100.80
2626.00,100.80
2625.00,100.79
2624.00,100.77
2623.00,100.75
2622.00,100.75
2621.00,100.76
2620.00,100.77
2619.00,100.79
2618.00,100.80
2617.00,100.81
2616.00,100.82
2615.00,100.82
2614.00,100.81
2613.00,100.80
2612.00,100.80
2611.00,100.81
2610.00,100.81
2609.00,100.80
2608.00,100.79
2607.00,100.77
2606.00,100.77
2605.00,100.77
2604.00,100.77
2603.00,100.77
2602.00,100.76
2601.00,100.76
2600.00,100.75
2599.00,100.75
2598.00,100.75
2597.00,100.74
2596.00,100.74
2595.00,100.75
2594.00,100.76
2593.00,100.79
2592.00,100.81
2591.00,100.81
2590.00,100.78
2589.00,100.76
2588.00,100.74
2587.00,100.73
2586.00,100.72
2585.00,100.73
2584.00,100.74
2583.00,100.75
2582.00,100.77
2581.00,100.77
2580.00,100.78
2579.00,100.77
2578.00,100.75
2577.00,100.74
2576.00,100.75
2575.00,100.76
2574.00,100.76
2573.00,100.76
2572.00,100.75
2571.00,100.74
2570.00,100.73
2569.00,100.74
2568.00,100.75
2567.00,100.77
2566.00,100.79
2565.00,100.79
2564.00,100.79
2563.00,100.78
2562.00,100.76
2561.00,100.73
2560.00,100.71
2559.00,100.70
2558.00,100.71
2557.00,100.71
2556.00,100.72
2555.00,100.72
2554.00,100.71
2553.00,100.71
2552.00,100.71
2551.00,100.72
2550.00,100.73
2549.00,100.73
2548.00,100.74
2547.00,100.74
2546.00,100.75
2545.00,100.75
2544.00,100.75
2543.00,100.75
2542.00,100.76
2541.00,100.77
2540.00,100.77
2539.00,100.77
2538.00,100.76
2537.00,100.73
2536.00,100.69
2535.00,100.67
2534.00,100.68
2533.00,100.71
2532.00,100.75
2531.00,100.79
2530.00,100.82
2529.00,100.83
2528.00,100.82
2527.00,100.80
2526.00,100.78
2525.00,100.77
2524.00,100.78
2523.00,100.79
2522.00,100.80
2521.00,100.80
2520.00,100.78
2519.00,100.75
2518.00,100.72
2517.00,100.70
2516.00,100.72
2515.00,100.75
2514.00,100.77
2513.00,100.76
2512.00,100.74
2511.00,100.72
2510.00,100.73
2509.00,100.75
2508.00,100.78
2507.00,100.80
2506.00,100.81
2505.00,100.80
2504.00,100.80
2503.00,100.78
2502.00,100.77
2501.00,100.76
2500.00,100.77
2499.00,100.78
2498.00,100.80
2497.00,100.80
2496.00,100.78
2495.00,100.76
2494.00,100.74
2493.00,100.74
2492.00,100.75
2491.00,100.78
2490.00,100.80
2489.00,100.81
2488.00,100.80
2487.00,100.77
2486.00,100.75
2485.00,100.75
2484.00,100.76
2483.00,100.78
2482.00,100.80
2481.00,100.80
2480.00,100.79
2479.00,100.77
2478.00,100.75
2477.00,100.74
2476.00,100.73
2475.00,100.74
2474.00,100.75
2473.00,100.75
2472.00,100.75
2471.00,100.74
2470.00,100.75
2469.00,100.76
2468.00,100.76
2467.00,100.76
2466.00,100.76
2465.00,100.76
2464.00,100.76
2463.00,100.77
2462.00,100.76
2461.00,100.76
2460.00,100.76
2459.00,100.76
2458.00,100.76
2457.00,100.76
2456.00,100.76
2455.00,100.76
2454.00,100.76
2453.00,100.75
2452.00,100.74
2451.00,100.74
2450.00,100.75
2449.00,100.76
2448.00,100.78
2447.00,100.79
2446.00,100.81
2445.00,100.83
2444.00,100.84
2443.00,100.84
2442.00,100.82
2441.00,100.79
2440.00,100.78
2439.00,100.78
2438.00,100.80
2437.00,100.82
2436.00,100.82
2435.00,100.81
2434.00,100.79
2433.00,100.78
2432.00,100.78
2431.00,100.78
2430.00,100.78
2429.00,100.79
2428.00,100.80
2427.00,100.81
2426.00,100.82
2425.00,100.82
2424.00,100.82
2423.00,100.82
2422.00,100.82
2421.00,100.82
2420.00,100.82
2419.00,100.82
2418.00,100.82
2417.00,100.81
2416.00,100.82
2415.00,100.82
2414.00,100.83
2413.00,100.84
2412.00,100.85
2411.00,100.85
2410.00,100.86
2409.00,100.86
2408.00,100.85
2407.00,100.84
2406.00,100.83
2405.00,100.83
2404.00,100.83
2403.00,100.84
2402.00,100.85
2401.00,100.86
2400.00,100.89
2399.00,100.91
2398.00,100.91
2397.00,100.89
2396.00,100.88
2395.00,100.88
2394.00,100.90
2393.00,100.92
2392.00,100.92
2391.00,100.92
2390.00,100.92
2389.00,100.93
2388.00,100.95
2387.00,100.96
2386.00,100.97
2385.00,100.96
2384.00,100.95
2383.00,100.94
2382.00,100.93
2381.00,100.94
2380.00,100.94
2379.00,100.94
2378.00,100.94
2377.00,100.96
2376.00,100.99
2375.00,101.03
2374.00,101.05
2373.00,101.03
2372.00,100.98
2371.00,100.93
2370.00,100.91
2369.00,100.96
2368.00,101.06
2367.00,101.20
2366.00,101.28
2365.00,101.27
2364.00,101.19
2363.00,101.09
2362.00,101.01
2361.00,100.97
2360.00,100.96
2359.00,100.96
2358.00,100.99
2357.00,101.00
2356.00,101.00
2355.00,101.00
2354.00,101.02
2353.00,101.04
2352.00,101.05
2351.00,101.04
2350.00,101.02
2349.00,101.02
2348.00,101.03
2347.00,101.06
2346.00,101.07
2345.00,101.06
2344.00,101.06
2343.00,101.04
2342.00,101.02
2341.00,100.98
2340.00,100.95
2339.00,100.93
2338.00,100.91
2337.00,100.89
2336.00,100.89
2335.00,100.89
2334.00,100.91
2333.00,100.96
2332.00,101.00
2331.00,101.03
2330.00,101.01
2329.00,100.97
2328.00,100.95
2327.00,100.93
2326.00,100.90
2325.00,100.83
2324.00,100.75
2323.00,100.70
2322.00,100.70
2321.00,100.73
2320.00,100.78
2319.00,100.80
2318.00,100.81
2317.00,100.78
2316.00,100.76
2315.00,100.74
2314.00,100.74
2313.00,100.76
2312.00,100.76
2311.00,100.74
2310.00,100.72
2309.00,100.70
2308.00,100.70
2307.00,100.70
2306.00,100.69
2305.00,100.67
2304.00,100.68
2303.00,100.68
2302.00,100.68
2301.00,100.67
2300.00,100.65
2299.00,100.64
2298.00,100.63
2297.00,100.61
2296.00,100.59
2295.00,100.57
2294.00,100.55
2293.00,100.52
2292.00,100.50
2291.00,100.48
2290.00,100.47
2289.00,100.48
2288.00,100.49
2287.00,100.51
2286.00,100.51
2285.00,100.50
2284.00,100.49
2283.00,100.48
2282.00,100.47
2281.00,100.47
2280.00,100.48
2279.00,100.49
2278.00,100.51
2277.00,100.51
2276.00,100.50
2275.00,100.49
2274.00,100.49
2273.00,100.48
2272.00,100.46
2271.00,100.44
2270.00,100.42
2269.00,100.40
2268.00,100.39
2267.00,100.38
2266.00,100.37
2265.00,100.37
2264.00,100.37
2263.00,100.37
2262.00,100.37
2261.00,100.38
2260.00,100.38
2259.00,100.38
2258.00,100.38
2257.00,100.36
2256.00,100.35
2255.00,100.32
2254.00,100.31
2253.00,100.30
2252.00,100.30
2251.00,100.32
2250.00,100.32
2249.00,100.29
2248.00,100.26
2247.00,100.24
2246.00,100.25
2245.00,100.28
2244.00,100.28
2243.00,100.26
2242.00,100.24
2241.00,100.23
2240.00,100.23
2239.00,100.23
2238.00,100.21
2237.00,100.20
2236.00,100.21
2235.00,100.24
2234.00,100.25
2233.00,100.22
2232.00,100.18
2231.00,100.16
2230.00,100.17
2229.00,100.18
2228.00,100.20
2227.00,100.21
2226.00,100.21
2225.00,100.19
2224.00,100.17
2223.00,100.17
2222.00,100.18
2221.00,100.16
2220.00,100.13
2219.00,100.10
2218.00,100.08
2217.00,100.09
2216.00,100.10
2215.00,100.12
2214.00,100.12
2213.00,100.10
2212.00,100.05
2211.00,100.00
2210.00,99.96
2209.00,99.94
2208.00,99.96
2207.00,99.99
2206.00,100.01
2205.00,100.00
2204.00,99.99
2203.00,100.00
2202.00,100.02
2201.00,100.04
2200.00,100.06
2199.00,100.07
2198.00,100.05
2197.00,99.99
2196.00,99.94
2195.00,99.92
2194.00,99.94
2193.00,99.97
2192.00,99.95
2191.00,99.87
2190.00,99.78
2189.00,99.71
2188.00,99.69
2187.00,99.68
2186.00,99.68
2185.00,99.67
2184.00,99.69
2183.00,99.77
2182.00,99.85
2181.00,99.90
2180.00,99.88
2179.00,99.80
2178.00,99.73
2177.00,99.72
2176.00,99.75
2175.00,99.81
2174.00,99.86
2173.00,99.88
2172.00,99.89
2171.00,99.87
2170.00,99.83
2169.00,99.75
2168.00,99.65
2167.00,99.58
2166.00,99.52
2165.00,99.48
2164.00,99.45
2163.00,99.40
2162.00,99.34
2161.00,99.29
2160.00,99.32
2159.00,99.45
2158.00,99.63
2157.00,99.81
2156.00,99.93
2155.00,99.98
2154.00,99.96
2153.00,99.90
2152.00,99.85
2151.00,99.83
2150.00,99.84
2149.00,99.89
2148.00,99.96
2147.00,100.04
2146.00,100.09
2145.00,100.11
2144.00,100.10
2143.00,100.09
2142.00,100.09
2141.00,100.10
2140.00,100.13
2139.00,100.20
2138.00,100.25
2137.00,100.28
2136.00,100.29
2135.00,100.28
2134.00,100.28
2133.00,100.29
2132.00,100.29
2131.00,100.31
2130.00,100.33
2129.00,100.37
2128.00,100.42
2127.00,100.44
2126.00,100.45
2125.00,100.44
2124.00,100.44
2123.00,100.45
2122.00,100.46
2121.00,100.46
2120.00,100.45
2119.00,100.45
2118.00,100.44
2117.00,100.43
2116.00,100.42
2115.00,100.41
2114.00,100.41
2113.00,100.40
2112.00,100.38
2111.00,100.37
2110.00,100.37
2109.00,100.37
2108.00,100.37
2107.00,100.39
2106.00,100.40
2105.00,100.40
2104.00,100.38
2103.00,100.34
2102.00,100.31
2101.00,100.29
2100.00,100.29
2099.00,100.30
2098.00,100.30
2097.00,100.30
2096.00,100.32
2095.00,100.37
2094.00,100.42
2093.00,100.43
2092.00,100.42
2091.00,100.41
2090.00,100.40
2089.00,100.40
2088.00,100.40
2087.00,100.40
2086.00,100.39
2085.00,100.36
2084.00,100.34
2083.00,100.33
2082.00,100.34
2081.00,100.34
2080.00,100.33
2079.00,100.32
2078.00,100.29
2077.00,100.25
2076.00,100.23
2075.00,100.22
2074.00,100.22
2073.00,100.21
2072.00,100.20
2071.00,100.22
2070.00,100.26
2069.00,100.27
2068.00,100.27
2067.00,100.28
2066.00,100.31
2065.00,100.34
2064.00,100.33
2063.00,100.29
2062.00,100.23
2061.00,100.17
2060.00,100.15
2059.00,100.16
2058.00,100.21
2057.00,100.24
2056.00,100.23
2055.00,100.19
2054.00,100.14
2053.00,100.09
2052.00,100.05
2051.00,100.05
2050.00,100.08
2049.00,100.10
2048.00,100.09
2047.00,100.04
2046.00,100.00
2045.00,99.97
2044.00,99.97
2043.00,99.99
2042.00,99.99
2041.00,99.96
2040.00,99.91
2039.00,99.83
2038.00,99.75
2037.00,99.69
2036.00,99.67
2035.00,99.70
2034.00,99.75
2033.00,99.77
2032.00,99.75
2031.00,99.72
2030.00,99.69
2029.00,99.67
2028.00,99.68
2027.00,99.72
2026.00,99.75
2025.00,99.75
2024.00,99.71
2023.00,99.67
2022.00,99.68
2021.00,99.72
2020.00,99.74
2019.00,99.75
2018.00,99.77
2017.00,99.81
2016.00,99.88
2015.00,99.95
2014.00,99.98
2013.00,99.95
2012.00,99.90
2011.00,99.86
2010.00,99.85
2009.00,99.87
2008.00,99.91
2007.00,99.97
2006.00,100.05
2005.00,100.10
2004.00,100.09
2003.00,100.03
2002.00,99.99
2001.00,99.97
2000.00,100.00
1999.00,100.04
1998.00,100.08
1997.00,100.11
1996.00,100.11
1995.00,100.10
1994.00,100.07
1993.00,100.05
1992.00,100.03
1991.00,100.04
1990.00,100.08
1989.00,100.11
1988.00,100.11
1987.00,100.07
1986.00,100.01
1985.00,99.98
1984.00,99.98
1983.00,99.97
1982.00,99.91
1981.00,99.82
1980.00,99.75
1979.00,99.73
1978.00,99.78
1977.00,99.84
1976.00,99.88
1975.00,99.89
1974.00,99.89
1973.00,99.88
1972.00,99.92
1971.00,99.99
1970.00,100.09
1969.00,100.16
1968.00,100.18
1967.00,100.15
1966.00,100.07
1965.00,99.96
1964.00,99.89
1963.00,99.89
1962.00,99.98
1961.00,100.10
1960.00,100.19
1959.00,100.23
1958.00,100.22
1957.00,100.20
1956.00,100.20
1955.00,100.23
1954.00,100.27
1953.00,100.29
1952.00,100.31
1951.00,100.37
1950.00,100.43
1949.00,100.48
1948.00,100.50
1947.00,100.50
1946.00,100.49
1945.00,100.50
1944.00,100.52
1943.00,100.53
1942.00,100.55
1941.00,100.55
1940.00,100.55
1939.00,100.56
1938.00,100.56
1937.00,100.57
1936.00,100.57
1935.00,100.59
1934.00,100.62
1933.00,100.65
1932.00,100.67
1931.00,100.68
1930.00,100.66
1929.00,100.63
1928.00,100.61
1927.00,100.61
1926.00,100.61
1925.00,100.61
1924.00,100.62
1923.00,100.67
1922.00,100.74
1921.00,100.78
1920.00,100.79
1919.00,100.79
1918.00,100.78
1917.00,100.76
1916.00,100.74
1915.00,100.75
1914.00,100.78
1913.00,100.79
1912.00,100.79
1911.00,100.79
1910.00,100.80
1909.00,100.80
1908.00,100.80
1907.00,100.79
1906.00,100.79
1905.00,100.78
1904.00,100.77
1903.00,100.77
1902.00,100.80
1901.00,100.84
1900.00,100.88
1899.00,100.90
1898.00,100.90
1897.00,100.87
1896.00,100.84
1895.00,100.83
1894.00,100.83
1893.00,100.84
1892.00,100.85
1891.00,100.86
1890.00,100.87
1889.00,100.87
1888.00,100.87
1887.00,100.89
1886.00,100.90
1885.00,100.90
1884.00,100.90
1883.00,100.89
1882.00,100.89
1881.00,100.90
1880.00,100.91
1879.00,100.92
1878.00,100.92
1877.00,100.92
1876.00,100.92
1875.00,100.93
1874.00,100.94
1873.00,100.94
1872.00,100.93
1871.00,100.91
1870.00,100.87
1869.00,100.83
1868.00,100.81
1867.00,100.82
1866.00,100.87
1865.00,100.91
1864.00,100.95
1863.00,100.98
1862.00,100.98
1861.00,100.97
1860.00,100.96
1859.00,100.96
1858.00,100.97
1857.00,100.98
1856.00,100.99
1855.00,100.99
1854.00,101.00
1853.00,101.01
1852.00,101.02
1851.00,101.03
1850.00,101.02
1849.00,101.01
1848.00,100.99
1847.00,100.97
1846.00,100.96
1845.00,100.93
1844.00,100.92
1843.00,100.94
1842.00,100.98
1841.00,101.02
1840.00,101.05
1839.00,101.05
1838.00,101.04
1837.00,101.01
1836.00,101.00
1835.00,101.00
1834.00,101.02
1833.00,101.03
1832.00,101.03
1831.00,101.03
1830.00,101.02
1829.00,101.00
1828.00,101.00
1827.00,101.03
1826.00,101.06
1825.00,101.08
1824.00,101.08
1823.00,101.06
1822.00,101.05
1821.00,101.05
1820.00,101.06
1819.00,101.09
1818.00,101.12
1817.00,101.13
1816.00,101.13
1815.00,101.12
1814.00,101.12
1813.00,101.12
1812.00,101.13
1811.00,101.13
1810.00,101.13
1809.00,101.13
1808.00,101.13
1807.00,101.14
1806.00,101.14
1805.00,101.14
1804.00,101.14
1803.00,101.15
1802.00,101.18
1801.00,101.18
1800.00,101.16
1799.00,101.13
1798.00,101.11
1797.00,101.11
1796.00,101.12
1795.00,101.12
1794.00,101.12
1793.00,101.10
1792.00,101.07
1791.00,101.06
1790.00,101.06
1789.00,101.08
1788.00,101.10
1787.00,101.13
1786.00,101.14
1785.00,101.15
1784.00,101.16
1783.00,101.17
1782.00,101.18
1781.00,101.19
1780.00,101.18
1779.00,101.15
1778.00,101.13
1777.00,101.11
1776.00,101.08
1775.00,101.06
1774.00,101.03
1773.00,100.99
1772.00,100.95
1771.00,100.94
1770.00,100.99
1769.00,101.05
1768.00,101.10
1767.00,101.11
1766.00,101.10
1765.00,101.08
1764.00,101.07
1763.00,101.07
1762.00,101.06
1761.00,101.03
1760.00,101.00
1759.00,101.00
1758.00,101.01
1757.00,101.01
1756.00,100.99
1755.00,100.96
1754.00,100.96
1753.00,100.96
1752.00,100.96
1751.00,100.95
1750.00,100.93
1749.00,100.89
1748.00,100.84
1747.00,100.81
1746.00,100.81
1745.00,100.81
1744.00,100.81
1743.00,100.81
1742.00,100.81
1741.00,100.80
1740.00,100.78
1739.00,100.76
1738.00,100.74
1737.00,100.73
1736.00,100.70
1735.00,100.66
1734.00,100.62
1733.00,100.61
1732.00,100.63
1731.00,100.69
1730.00,100.75
1729.00,100.77
1728.00,100.77
1727.00,100.75
1726.00,100.73
1725.00,100.70
1724.00,100.68
1723.00,100.66
1722.00,100.65
1721.00,100.63
1720.00,100.59
1719.00,100.54
1718.00,100.49
1717.00,100.41
1716.00,100.33
1715.00,100.27
1714.00,100.21
1713.00,100.14
1712.00,100.05
1711.00,99.98
1710.00,99.90
1709.00,99.78
1708.00,99.60
1707.00,99.38
1706.00,99.11
1705.00,98.84
1704.00,98.61
1703.00,98.41
1702.00,98.17
1701.00,97.78
1700.00,97.28
1699.00,96.91
1698.00,96.73
1697.00,96.65
1696.00,96.58
1695.00,96.52
1694.00,96.49
1693.00,96.49
1692.00,96.48
1691.00,96.45
1690.00,96.38
1689.00,96.29
1688.00,96.21
1687.00,96.14
1686.00,96.04
1685.00,95.88
1684.00,95.68
1683.00,95.51
1682.00,95.42
1681.00,95.36
1680.00,95.29
1679.00,95.19
1678.00,95.06
1677.00,94.89
1676.00,94.67
1675.00,94.43
1674.00,94.24
1673.00,94.10
1672.00,93.96
1671.00,93.80
1670.00,93.61
1669.00,93.40
1668.00,93.22
1667.00,93.08
1666.00,92.97
1665.00,92.83
1664.00,92.64
1663.00,92.41
1662.00,92.20
1661.00,92.02
1660.00,91.87
1659.00,91.73
1658.00,91.58
1657.00,91.44
1656.00,91.27
1655.00,91.05
1654.00,90.73
1653.00,90.34
1652.00,90.06
1651.00,89.96
1650.00,89.93
1649.00,89.86
1648.00,89.69
1647.00,89.47
1646.00,89.27
1645.00,89.10
1644.00,88.96
1643.00,88.83
1642.00,88.69
1641.00,88.52
1640.00,88.32
1639.00,88.10
1638.00,87.87
1637.00,87.60
1636.00,87.30
1635.00,87.04
1634.00,86.89
1633.00,86.80
1632.00,86.72
1631.00,86.61
1630.00,86.49
1629.00,86.37
1628.00,86.25
1627.00,86.17
1626.00,86.11
1625.00,86.06
1624.00,86.02
1623.00,86.02
1622.00,86.09
1621.00,86.19
1620.00,86.30
1619.00,86.41
1618.00,86.54
1617.00,86.71
1616.00,86.91
1615.00,87.13
1614.00,87.38
1613.00,87.65
1612.00,87.92
1611.00,88.21
1610.00,88.52
1609.00,88.84
1608.00,89.15
1607.00,89.44
1606.00,89.72
1605.00,89.99
1604.00,90.27
1603.00,90.54
1602.00,90.79
1601.00,91.03
1600.00,91.23
1599.00,91.42
1598.00,91.58
1597.00,91.74
1596.00,91.91
1595.00,92.07
1594.00,92.21
1593.00,92.33
1592.00,92.45
1591.00,92.57
1590.00,92.68
1589.00,92.78
1588.00,92.87
1587.00,92.94
1586.00,93.00
1585.00,93.06
1584.00,93.11
1583.00,93.15
1582.00,93.18
1581.00,93.18
1580.00,93.16
1579.00,93.12
1578.00,93.06
1577.00,92.97
1576.00,92.90
1575.00,92.86
1574.00,92.86
1573.00,92.86
1572.00,92.84
1571.00,92.76
1570.00,92.63
1569.00,92.49
1568.00,92.38
1567.00,92.29
1566.00,92.20
1565.00,92.07
1564.00,91.94
1563.00,91.81
1562.00,91.68
1561.00,91.48
1560.00,91.29
1559.00,91.31
1558.00,91.14
1557.00,91.07
1556.00,90.87
1555.00,90.55
1554.00,90.52
1553.00,90.40
1552.00,90.30
1551.00,90.19
1550.00,90.07
1549.00,89.93
1548.00,89.78
1547.00,89.64
1546.00,89.50
1545.00,89.35
1544.00,89.21
1543.00,89.03
1542.00,88.89
1541.00,88.89
1540.00,88.71
1539.00,88.57
1538.00,88.43
1537.00,88.31
1536.00,88.19
1535.00,88.05
1534.00,87.91
1533.00,87.74
1532.00,87.54
1531.00,87.43
1530.00,87.30
1529.00,87.19
1528.00,87.07
1527.00,86.96
1526.00,86.83
1525.00,86.69
1524.00,86.53
1523.00,86.36
1522.00,86.17
1521.00,85.99
1520.00,85.86
1519.00,85.73
1518.00,85.60
1517.00,85.47
1516.00,85.37
1515.00,85.30
1514.00,85.25
1513.00,85.23
1512.00,85.26
1511.00,85.32
1510.00,85.38
1509.00,85.43
1508.00,85.49
1507.00,85.60
1506.00,85.74
1505.00,85.88
1504.00,86.05
1503.00,86.24
1502.00,86.43
1501.00,86.61
1500.00,86.79
1499.00,86.97
1498.00,87.17
1497.00,87.40
1496.00,87.66
1495.00,87.92
1494.00,88.14
1493.00,88.35
1492.00,88.58
1491.00,88.83
1490.00,89.12
1489.00,89.40
1488.00,89.64
1487.00,89.86
1486.00,90.07
1485.00,90.28
1484.00,90.47
1483.00,90.66
1482.00,90.85
1481.00,91.04
1480.00,91.20
1479.00,91.34
1478.00,91.46
1477.00,91.57
1476.00,91.66
1475.00,91.74
1474.00,91.83
1473.00,91.92
1472.00,92.01
1471.00,92.08
1470.00,92.15
1469.00,92.21
1468.00,92.27
1467.00,92.30
1466.00,92.31
1465.00,92.29
1464.00,92.26
1463.00,92.22
1462.00,92.18
1461.00,92.12
1460.00,92.01
1459.00,91.84
1458.00,91.61
1457.00,91.38
1456.00,91.23
1455.00,91.15
1454.00,91.11
1453.00,91.05
1452.00,90.97
1451.00,90.87
1450.00,90.76
1449.00,90.65
1448.00,90.53
1447.00,90.44
1446.00,90.38
1445.00,90.36
1444.00,90.38
1443.00,90.44
1442.00,90.55
1441.00,90.68
1440.00,90.81
1439.00,90.96
1438.00,91.13
1437.00,91.35
1436.00,91.57
1435.00,91.74
1434.00,91.87
1433.00,91.99
1432.00,92.11
1431.00,92.22
1430.00,92.32
1429.00,92.41
1428.00,92.49
1427.00,92.54
1426.00,92.59
1425.00,92.63
1424.00,92.65
1423.00,92.65
1422.00,92.63
1421.00,92.59
1420.00,92.57
1419.00,92.56
1418.00,92.55
1417.00,92.55
1416.00,92.52
1415.00,92.48
1414.00,92.44
1413.00,92.39
1412.00,92.35
1411.00,92.30
1410.00,92.26
1409.00,92.21
1408.00,92.16
1407.00,92.11
1406.00,92.07
1405.00,92.04
1404.00,92.01
1403.00,91.98
1402.00,91.96
1401.00,91.96
1400.00,91.98
1399.00,92.02
1398.00,92.06
1397.00,92.08
1396.00,92.09
1395.00,92.09
1394.00,92.09
1393.00,92.09
1392.00,92.09
1391.00,92.10
1390.00,92.12
1389.00,92.16
1388.00,92.20
1387.00,92.25
1386.00,92.28
1385.00,92.29
1384.00,92.29
1383.00,92.29
1382.00,92.31
1381.00,92.33
1380.00,92.36
1379.00,92.37
1378.00,92.38
1377.00,92.36
1376.00,92.32
1375.00,92.27
1374.00,92.20
1373.00,92.12
1372.00,92.06
1371.00,92.04
1370.00,92.08
1369.00,92.16
1368.00,92.27
1367.00,92.39
1366.00,92.49
1365.00,92.59
1364.00,92.71
1363.00,92.83
1362.00,92.94
1361.00,93.04
1360.00,93.11
1359.00,93.18
1358.00,93.27
1357.00,93.37
1356.00,93.49
1355.00,93.60
1354.00,93.70
1353.00,93.77
1352.00,93.81
1351.00,93.85
1350.00,93.86
1349.00,93.87
1348.00,93.87
1347.00,93.87
1346.00,93.87
1345.00,93.87
1344.00,93.87
1343.00,93.88
1342.00,93.91
1341.00,93.93
1340.00,93.96
1339.00,93.96
1338.00,93.95
1337.00,93.92
1336.00,93.88
1335.00,93.86
1334.00,93.85
1333.00,93.85
1332.00,93.85
1331.00,93.85
1330.00,93.86
1329.00,93.88
1328.00,93.90
1327.00,93.93
1326.00,93.95
1325.00,93.96
1324.00,93.98
1323.00,94.01
1322.00,94.04
1321.00,94.06
1320.00,94.07
1319.00,94.08
1318.00,94.08
1317.00,94.08
1316.00,94.07
1315.00,94.06
1314.00,94.07
1313.00,94.10
1312.00,94.15
1311.00,94.20
1310.00,94.25
1309.00,94.30
1308.00,94.34
1307.00,94.37
1306.00,94.40
1305.00,94.44
1304.00,94.47
1303.00,94.50
1302.00,94.52
1301.00,94.54
1300.00,94.57
1299.00,94.61
1298.00,94.65
1297.00,94.68
1296.00,94.70
1295.00,94.69
1294.00,94.69
1293.00,94.69
1292.00,94.70
1291.00,94.70
1290.00,94.70
1289.00,94.69
1288.00,94.67
1287.00,94.64
1286.00,94.61
1285.00,94.58
1284.00,94.56
1283.00,94.53
1282.00,94.50
1281.00,94.45
1280.00,94.40
1279.00,94.35
1278.00,94.31
1277.00,94.26
1276.00,94.21
1275.00,94.16
1274.00,94.10
1273.00,94.05
1272.00,94.00
1271.00,93.94
1270.00,93.87
1269.00,93.80
1268.00,93.73
1267.00,93.65
1266.00,93.59
1265.00,93.52
1264.00,93.46
1263.00,93.39
1262.00,93.32
1261.00,93.27
1260.00,93.21
1259.00,93.16
1258.00,93.11
1257.00,93.04
1256.00,92.96
1255.00,92.86
1254.00,92.76
1253.00,92.66
1252.00,92.56
1251.00,92.45
1250.00,92.33
1249.00,92.20
1248.00,92.07
1247.00,91.92
1246.00,91.77
1245.00,91.63
1244.00,91.49
1243.00,91.37
1242.00,91.27
1241.00,91.18
1240.00,91.11
1239.00,91.06
1238.00,91.01
1237.00,90.97
1236.00,90.93
1235.00,90.90
1234.00,90.87
1233.00,90.85
1232.00,90.82
1231.00,90.82
1230.00,90.83
1229.00,90.84
1228.00,90.84
1227.00,90.82
1226.00,90.78
1225.00,90.73
1224.00,90.67
1223.00,90.62
1222.00,90.59
1221.00,90.58
1220.00,90.59
1219.00,90.62
1218.00,90.68
1217.00,90.77
1216.00,90.89
1215.00,91.04
1214.00,91.20
1213.00,91.37
1212.00,91.55
1211.00,91.74
1210.00,91.95
1209.00,92.17
1208.00,92.38
1207.00,92.57
1206.00,92.74
1205.00,92.91
1204.00,93.07
1203.00,93.23
1202.00,93.38
1201.00,93.51
1200.00,93.64
1199.00,93.75
1198.00,93.87
1197.00,93.96
1196.00,94.03
1195.00,94.09
1194.00,94.16
1193.00,94.24
1192.00,94.32
1191.00,94.39
1190.00,94.44
1189.00,94.47
1188.00,94.50
1187.00,94.52
1186.00,94.53
1185.00,94.52
1184.00,94.49
1183.00,94.42
1182.00,94.33
1181.00,94.23
1180.00,94.12
1179.00,94.01
1178.00,93.87
1177.00,93.72
1176.00,93.55
1175.00,93.39
1174.00,93.24
1173.00,93.11
1172.00,92.99
1171.00,92.89
1170.00,92.78
1169.00,92.68
1168.00,92.60
1167.00,92.54
1166.00,92.51
1165.00,92.52
1164.00,92.57
1163.00,92.63
1162.00,92.70
1161.00,92.77
1160.00,92.85
1159.00,92.95
1158.00,93.09
1157.00,93.25
1156.00,93.41
1155.00,93.57
1154.00,93.72
1153.00,93.85
1152.00,93.97
1151.00,94.07
1150.00,94.18
1149.00,94.28
1148.00,94.38
1147.00,94.47
1146.00,94.56
1145.00,94.65
1144.00,94.75
1143.00,94.82
1142.00,94.86
1141.00,94.89
1140.00,94.93
1139.00,94.97
1138.00,95.01
1137.00,95.05
1136.00,95.09
1135.00,95.14
1134.00,95.21
1133.00,95.28
1132.00,95.35
1131.00,95.41
1130.00,95.45
1129.00,95.48
1128.00,95.48
1127.00,95.49
1126.00,95.50
1125.00,95.51
1124.00,95.53
1123.00,95.54
1122.00,95.56
1121.00,95.58
1120.00,95.60
1119.00,95.61
1118.00,95.61
1117.00,95.60
1116.00,95.59
1115.00,95.58
1114.00,95.57
1113.00,95.58
1112.00,95.60
1111.00,95.61
1110.00,95.61
1109.00,95.59
1108.00,95.58
1107.00,95.58
1106.00,95.57
1105.00,95.56
1104.00,95.56
1103.00,95.57
1102.00,95.59
1101.00,95.62
1100.00,95.64
1099.00,95.64
1098.00,95.65
1097.00,95.66
1096.00,95.68
1095.00,95.70
1094.00,95.70
1093.00,95.68
1092.00,95.63
1091.00,95.57
1090.00,95.50
1089.00,95.44
1088.00,95.37
1087.00,95.31
1086.00,95.24
1085.00,95.15
1084.00,95.04
1083.00,94.93
1082.00,94.84
1081.00,94.79
1080.00,94.76
1079.00,94.73
1078.00,94.69
1077.00,94.66
1076.00,94.64
1075.00,94.63
1074.00,94.60
1073.00,94.55
1072.00,94.51
1071.00,94.48
1070.00,94.47
1069.00,94.45
1068.00,94.43
1067.00,94.39
1066.00,94.35
1065.00,94.30
1064.00,94.27
1063.00,94.25
1062.00,94.24
1061.00,94.22
1060.00,94.19
1059.00,94.14
1058.00,94.05
1057.00,93.93
1056.00,93.81
1055.00,93.70
1054.00,93.63
1053.00,93.57
1052.00,93.52
1051.00,93.50
1050.00,93.51
1049.00,93.57
1048.00,93.67
1047.00,93.79
1046.00,93.92
1045.00,94.04
1044.00,94.16
1043.00,94.28
1042.00,94.38
1041.00,94.45
1040.00,94.50
1039.00,94.54
1038.00,94.57
1037.00,94.60
1036.00,94.61
1035.00,94.63
1034.00,94.67
1033.00,94.71
1032.00,94.75
1031.00,94.77
1030.00,94.78
1029.00,94.80
1028.00,94.82
1027.00,94.85
1026.00,94.88
1025.00,94.93
1024.00,94.99
1023.00,95.06
1022.00,95.12
1021.00,95.19
1020.00,95.24
1019.00,95.30
1018.00,95.35
1017.00,95.42
1016.00,95.47
1015.00,95.52
1014.00,95.55
1013.00,95.58
1012.00,95.61
1011.00,95.67
1010.00,95.75
1009.00,95.84
1008.00,95.92
1007.00,95.99
1006.00,96.05
1005.00,96.11
1004.00,96.16
1003.00,96.21
1002.00,96.27
1001.00,96.32
1000.00,96.36
999.00,96.39
998.00,96.42
997.00,96.46
996.00,96.50
995.00,96.54
994.00,96.56
993.00,96.59
992.00,96.62
991.00,96.67
990.00,96.73
989.00,96.78
988.00,96.82
987.00,96.85
986.00,96.87
985.00,96.89
984.00,96.91
983.00,96.91
982.00,96.90
981.00,96.89
980.00,96.86
979.00,96.82
978.00,96.76
977.00,96.68
976.00,96.58
975.00,96.43
974.00,96.26
973.00,96.06
972.00,95.81
971.00,95.49
970.00,95.10
969.00,94.67
968.00,94.24
967.00,93.86
966.00,93.58
965.00,93.41
964.00,93.36
963.00,93.42
962.00,93.57
961.00,93.79
960.00,94.07
959.00,94.37
958.00,94.66
957.00,94.90
956.00,95.10
955.00,95.29
954.00,95.46
953.00,95.62
952.00,95.76
951.00,95.90
950.00,96.02
949.00,96.13
948.00,96.22
947.00,96.28
946.00,96.33
945.00,96.38
944.00,96.42
943.00,96.44
942.00,96.44
941.00,96.42
940.00,96.40
939.00,96.39
938.00,96.39
937.00,96.40
936.00,96.41
935.00,96.40
934.00,96.37
933.00,96.33
932.00,96.28
931.00,96.24
930.00,96.22
929.00,96.22
928.00,96.22
927.00,96.22
926.00,96.21
925.00,96.21
924.00,96.23
923.00,96.28
922.00,96.34
921.00,96.41
920.00,96.47
919.00,96.52
918.00,96.58
917.00,96.64
916.00,96.69
915.00,96.73
914.00,96.77
913.00,96.80
912.00,96.83
911.00,96.86
910.00,96.88
909.00,96.90
908.00,96.90
907.00,96.90
906.00,96.88
905.00,96.85
904.00,96.81
903.00,96.77
902.00,96.74
901.00,96.70
900.00,96.68
899.00,96.68
898.00,96.71
897.00,96.78
896.00,96.85
895.00,96.90
894.00,96.94
893.00,96.96
892.00,96.98
891.00,96.99
890.00,97.00
889.00,97.01
888.00,97.02
887.00,97.03
886.00,97.05
885.00,97.09
884.00,97.11
883.00,97.11
882.00,97.10
881.00,97.08
880.00,97.05
879.00,97.03
878.00,97.01
877.00,97.02
876.00,97.04
875.00,97.07
874.00,97.09
873.00,97.08
872.00,97.08
871.00,97.09
870.00,97.10
869.00,97.11
868.00,97.12
867.00,97.11
866.00,97.12
865.00,97.15
864.00,97.17
863.00,97.17
862.00,97.14
861.00,97.10
860.00,97.04
859.00,96.99
858.00,96.95
857.00,96.91
856.00,96.86
855.00,96.81
854.00,96.76
853.00,96.72
852.00,96.70
851.00,96.68
850.00,96.67
849.00,96.67
848.00,96.69
847.00,96.70
846.00,96.70
845.00,96.69
844.00,96.68
843.00,96.64
842.00,96.59
841.00,96.52
840.00,96.46
839.00,96.40
838.00,96.36
837.00,96.33
836.00,96.29
835.00,96.23
834.00,96.13
833.00,96.03
832.00,95.95
831.00,95.92
830.00,95.92
829.00,95.93
828.00,95.92
827.00,95.89
826.00,95.84
825.00,95.78
824.00,95.75
823.00,95.75
822.00,95.80
821.00,95.85
820.00,95.87
819.00,95.87
818.00,95.85
817.00,95.85
816.00,95.87
815.00,95.88
814.00,95.88
813.00,95.87
812.00,95.84
811.00,95.79
810.00,95.74
809.00,95.72
808.00,95.72
807.00,95.72
806.00,95.70
805.00,95.65
804.00,95.60
803.00,95.55
802.00,95.51
801.00,95.48
800.00,95.45
799.00,95.43
798.00,95.41
797.00,95.40
796.00,95.40
795.00,95.41
794.00,95.39
793.00,95.35
792.00,95.29
791.00,95.22
790.00,95.15
789.00,95.07
788.00,94.96
787.00,94.85
786.00,94.73
785.00,94.60
784.00,94.45
783.00,94.30
782.00,94.17
781.00,94.06
780.00,93.98
779.00,93.93
778.00,93.91
777.00,93.92
776.00,93.93
775.00,93.92
774.00,93.87
773.00,93.80
772.00,93.74
771.00,93.70
770.00,93.67
769.00,93.63
768.00,93.57
767.00,93.52
766.00,93.52
765.00,93.55
764.00,93.58
763.00,93.57
762.00,93.53
761.00,93.50
760.00,93.47
759.00,93.44
758.00,93.42
757.00,93.38
756.00,93.34
755.00,93.29
754.00,93.23
753.00,93.17
752.00,93.12
751.00,93.08
750.00,93.04
749.00,92.99
748.00,92.96
747.00,92.95
746.00,92.96
745.00,92.94
744.00,92.87
743.00,92.77
742.00,92.69
741.00,92.65
740.00,92.62
739.00,92.61
738.00,92.59
737.00,92.55
736.00,92.50
735.00,92.43
734.00,92.36
733.00,92.28
732.00,92.19
731.00,92.10
730.00,92.01
729.00,91.91
728.00,91.79
727.00,91.65
726.00,91.49
725.00,91.33
724.00,91.15
723.00,90.95
722.00,90.74
721.00,90.50
720.00,90.27
719.00,90.07
718.00,89.90
717.00,89.73
716.00,89.54
715.00,89.31
714.00,89.06
713.00,88.80
712.00,88.55
711.00,88.32
710.00,88.11
709.00,87.87
708.00,87.60
707.00,87.32
706.00,87.08
705.00,86.90
704.00,86.75
703.00,86.63
702.00,86.52
701.00,86.42
700.00,86.32
699.00,86.25
698.00,86.21
697.00,86.18
696.00,86.16
695.00,86.12
694.00,86.07
693.00,86.00
692.00,85.90
691.00,85.81
690.00,85.74
689.00,85.70
688.00,85.68
687.00,85.68
686.00,85.68
685.00,85.68
684.00,85.67
683.00,85.65
682.00,85.61
681.00,85.56
680.00,85.53
679.00,85.55
678.00,85.61
677.00,85.67
676.00,85.69
675.00,85.69
674.00,85.70
673.00,85.68
672.00,85.58
671.00,85.42
670.00,85.24
669.00,85.10
668.00,85.13
667.00,85.33
666.00,85.50
665.00,85.59
664.00,85.62
663.00,85.60
662.00,85.56
661.00,85.52
660.00,85.49
659.00,85.49
658.00,85.53
657.00,85.60
656.00,85.67
655.00,85.67
654.00,85.60
653.00,85.50
652.00,85.45
651.00,85.49
650.00,85.57
649.00,85.60
648.00,85.56
647.00,85.53
646.00,85.55
645.00,85.58
644.00,85.56
643.00,85.48
642.00,85.44
641.00,85.51
640.00,85.68
639.00,85.81
638.00,85.78
637.00,85.57
636.00,85.31
635.00,85.18
634.00,85.22
633.00,85.31
632.00,85.30
631.00,85.09
630.00,84.72
629.00,84.31
628.00,84.07
627.00,84.13
626.00,84.40
625.00,84.57
624.00,84.47
623.00,84.18
622.00,83.93
621.00,83.84
620.00,83.86
619.00,83.92
618.00,83.93
617.00,83.79
616.00,83.51
615.00,83.21
614.00,82.95
613.00,82.68
612.00,82.44
611.00,82.37
610.00,82.55
609.00,82.90
608.00,83.32
607.00,83.74
606.00,84.06
605.00,84.21
604.00,84.24
603.00,84.30
602.00,84.42
601.00,84.49
600.00,84.45
599.00,84.38
598.00,84.34
597.00,84.26
596.00,84.09
595.00,83.95
594.00,83.96
593.00,84.00
592.00,83.84
591.00,83.46
590.00,83.17
589.00,83.24
588.00,83.67
587.00,84.21
586.00,84.51
585.00,84.43
584.00,84.11
583.00,83.93
582.00,84.11
581.00,84.53
580.00,84.89
579.00,84.98
578.00,84.75
577.00,84.40
576.00,84.20
575.00,84.35
574.00,84.67
573.00,84.69
572.00,84.14
571.00,83.16
570.00,82.24
569.00,81.81
568.00,82.10
567.00,83.02
566.00,84.05
565.00,84.65
564.00,84.76
563.00,84.74
562.00,84.82
561.00,84.89
560.00,84.72
559.00,84.26
558.00,83.60
557.00,82.91
556.00,82.37
555.00,82.15
554.00,82.16
553.00,82.13
552.00,82.00
551.00,82.08
550.00,82.45
