Created as New Dataset,Puma stretch viscose (Pink)
cm-1,%T
4000.00,97.51
3999.00,97.50
3998.00,97.49
3997.00,97.48
3996.00,97.46
3995.00,97.44
3994.00,97.43
3993.00,97.43
3992.00,97.45
3991.00,97.48
3990.00,97.50
3989.00,97.51
3988.00,97.50
3987.00,97.49
3986.00,97.47
3985.00,97.46
3984.00,97.44
3983.00,97.43
3982.00,97.42
3981.00,97.41
3980.00,97.40
3979.00,97.39
3978.00,97.39
3977.00,97.39
3976.00,97.40
3975.00,97.42
3974.00,97.44
3973.00,97.45
3972.00,97.44
3971.00,97.43
3970.00,97.42
3969.00,97.41
3968.00,97.42
3967.00,97.42
3966.00,97.43
3965.00,97.43
3964.00,97.45
3963.00,97.47
3962.00,97.49
3961.00,97.50
3960.00,97.50
3959.00,97.50
3958.00,97.50
3957.00,97.52
3956.00,97.54
3955.00,97.54
3954.00,97.54
3953.00,97.52
3952.00,97.49
3951.00,97.47
3950.00,97.45
3949.00,97.45
3948.00,97.45
3947.00,97.45
3946.00,97.46
3945.00,97.46
3944.00,97.45
3943.00,97.45
3942.00,97.45
3941.00,97.46
3940.00,97.46
3939.00,97.46
3938.00,97.45
3937.00,97.44
3936.00,97.43
3935.00,97.42
3934.00,97.42
3933.00,97.42
3932.00,97.43
3931.00,97.44
3930.00,97.46
3929.00,97.47
3928.00,97.47
3927.00,97.46
3926.00,97.45
3925.00,97.45
3924.00,97.44
3923.00,97.44
3922.00,97.44
3921.00,97.45
3920.00,97.46
3919.00,97.47
3918.00,97.48
3917.00,97.48
3916.00,97.47
3915.00,97.47
3914.00,97.48
3913.00,97.49
3912.00,97.49
3911.00,97.48
3910.00,97.46
3909.00,97.44
3908.00,97.43
3907.00,97.44
3906.00,97.47
3905.00,97.50
3904.00,97.51
3903.00,97.49
3902.00,97.48
3901.00,97.50
3900.00,97.52
3899.00,97.53
3898.00,97.53
3897.00,97.52
3896.00,97.50
3895.00,97.49
3894.00,97.49
3893.00,97.50
3892.00,97.51
3891.00,97.52
3890.00,97.53
3889.00,97.54
3888.00,97.55
3887.00,97.54
3886.00,97.52
3885.00,97.50
3884.00,97.49
3883.00,97.51
3882.00,97.54
3881.00,97.55
3880.00,97.54
3879.00,97.51
3878.00,97.49
3877.00,97.48
3876.00,97.48
3875.00,97.47
3874.00,97.46
3873.00,97.46
3872.00,97.48
3871.00,97.51
3870.00,97.52
3869.00,97.52
3868.00,97.52
3867.00,97.53
3866.00,97.56
3865.00,97.56
3864.00,97.55
3863.00,97.52
3862.00,97.50
3861.00,97.49
3860.00,97.48
3859.00,97.47
3858.00,97.48
3857.00,97.50
3856.00,97.53
3855.00,97.54
3854.00,97.54
3853.00,97.53
3852.00,97.52
3851.00,97.54
3850.00,97.56
3849.00,97.57
3848.00,97.55
3847.00,97.53
3846.00,97.52
3845.00,97.51
3844.00,97.50
3843.00,97.48
3842.00,97.45
3841.00,97.44
3840.00,97.44
3839.00,97.45
3838.00,97.46
3837.00,97.47
3836.00,97.48
3835.00,97.49
3834.00,97.49
3833.00,97.49
3832.00,97.48
3831.00,97.48
3830.00,97.49
3829.00,97.50
3828.00,97.49
3827.00,97.46
3826.00,97.42
3825.00,97.40
3824.00,97.40
3823.00,97.42
3822.00,97.44
3821.00,97.44
3820.00,97.43
3819.00,97.43
3818.00,97.44
3817.00,97.45
3816.00,97.45
3815.00,97.45
3814.00,97.46
3813.00,97.48
3812.00,97.49
3811.00,97.49
3810.00,97.48
3809.00,97.48
3808.00,97.47
3807.00,97.46
3806.00,97.45
3805.00,97.45
3804.00,97.46
3803.00,97.44
3802.00,97.40
3801.00,97.36
3800.00,97.36
3799.00,97.40
3798.00,97.46
3797.00,97.50
3796.00,97.51
3795.00,97.50
3794.00,97.49
3793.00,97.48
3792.00,97.47
3791.00,97.45
3790.00,97.43
3789.00,97.42
3788.00,97.43
3787.00,97.44
3786.00,97.44
3785.00,97.43
3784.00,97.41
3783.00,97.39
3782.00,97.38
3781.00,97.38
3780.00,97.38
3779.00,97.37
3778.00,97.35
3777.00,97.34
3776.00,97.35
3775.00,97.36
3774.00,97.37
3773.00,97.37
3772.00,97.36
3771.00,97.35
3770.00,97.34
3769.00,97.34
3768.00,97.34
3767.00,97.35
3766.00,97.35
3765.00,97.34
3764.00,97.33
3763.00,97.32
3762.00,97.32
3761.00,97.34
3760.00,97.36
3759.00,97.38
3758.00,97.38
3757.00,97.37
3756.00,97.36
3755.00,97.37
3754.00,97.38
3753.00,97.39
3752.00,97.40
3751.00,97.40
3750.00,97.38
3749.00,97.37
3748.00,97.36
3747.00,97.36
3746.00,97.36
3745.00,97.37
3744.00,97.40
3743.00,97.44
3742.00,97.48
3741.00,97.50
3740.00,97.46
3739.00,97.39
3738.00,97.34
3737.00,97.31
3736.00,97.32
3735.00,97.34
3734.00,97.37
3733.00,97.39
3732.00,97.39
3731.00,97.38
3730.00,97.36
3729.00,97.33
3728.00,97.30
3727.00,97.27
3726.00,97.25
3725.00,97.25
3724.00,97.27
3723.00,97.29
3722.00,97.29
3721.00,97.28
3720.00,97.27
3719.00,97.27
3718.00,97.28
3717.00,97.29
3716.00,97.29
3715.00,97.29
3714.00,97.28
3713.00,97.27
3712.00,97.27
3711.00,97.27
3710.00,97.27
3709.00,97.25
3708.00,97.23
3707.00,97.21
3706.00,97.19
3705.00,97.18
3704.00,97.18
3703.00,97.18
3702.00,97.18
3701.00,97.19
3700.00,97.20
3699.00,97.21
3698.00,97.22
3697.00,97.21
3696.00,97.20
3695.00,97.19
3694.00,97.19
3693.00,97.19
3692.00,97.19
3691.00,97.19
3690.00,97.20
3689.00,97.20
3688.00,97.22
3687.00,97.25
3686.00,97.27
3685.00,97.28
3684.00,97.25
3683.00,97.22
3682.00,97.18
3681.00,97.17
3680.00,97.17
3679.00,97.18
3678.00,97.19
3677.00,97.19
3676.00,97.18
3675.00,97.17
3674.00,97.16
3673.00,97.19
3672.00,97.22
3671.00,97.23
3670.00,97.20
3669.00,97.16
3668.00,97.14
3667.00,97.15
3666.00,97.17
3665.00,97.17
3664.00,97.16
3663.00,97.15
3662.00,97.14
3661.00,97.12
3660.00,97.11
3659.00,97.09
3658.00,97.08
3657.00,97.09
3656.00,97.09
3655.00,97.09
3654.00,97.09
3653.00,97.08
3652.00,97.07
3651.00,97.07
3650.00,97.06
3649.00,97.06
3648.00,97.03
3647.00,97.01
3646.00,96.99
3645.00,97.00
3644.00,97.01
3643.00,97.02
3642.00,97.02
3641.00,96.99
3640.00,96.97
3639.00,96.95
3638.00,96.94
3637.00,96.92
3636.00,96.91
3635.00,96.88
3634.00,96.86
3633.00,96.85
3632.00,96.87
3631.00,96.91
3630.00,96.93
3629.00,96.92
3628.00,96.88
3627.00,96.85
3626.00,96.85
3625.00,96.86
3624.00,96.86
3623.00,96.84
3622.00,96.82
3621.00,96.78
3620.00,96.74
3619.00,96.69
3618.00,96.64
3617.00,96.62
3616.00,96.62
3615.00,96.63
3614.00,96.64
3613.00,96.63
3612.00,96.61
3611.00,96.61
3610.00,96.61
3609.00,96.60
3608.00,96.58
3607.00,96.54
3606.00,96.51
3605.00,96.50
3604.00,96.48
3603.00,96.46
3602.00,96.42
3601.00,96.39
3600.00,96.36
3599.00,96.36
3598.00,96.36
3597.00,96.37
3596.00,96.37
3595.00,96.37
3594.00,96.36
3593.00,96.35
3592.00,96.34
3591.00,96.32
3590.00,96.31
3589.00,96.30
3588.00,96.29
3587.00,96.27
3586.00,96.24
3585.00,96.21
3584.00,96.17
3583.00,96.13
3582.00,96.09
3581.00,96.07
3580.00,96.07
3579.00,96.06
3578.00,96.06
3577.00,96.05
3576.00,96.04
3575.00,96.01
3574.00,95.98
3573.00,95.95
3572.00,95.92
3571.00,95.90
3570.00,95.87
3569.00,95.84
3568.00,95.82
3567.00,95.79
3566.00,95.78
3565.00,95.76
3564.00,95.75
3563.00,95.74
3562.00,95.74
3561.00,95.73
3560.00,95.70
3559.00,95.67
3558.00,95.62
3557.00,95.57
3556.00,95.53
3555.00,95.50
3554.00,95.49
3553.00,95.49
3552.00,95.49
3551.00,95.48
3550.00,95.46
3549.00,95.43
3548.00,95.39
3547.00,95.37
3546.00,95.33
3545.00,95.29
3544.00,95.23
3543.00,95.19
3542.00,95.16
3541.00,95.16
3540.00,95.16
3539.00,95.14
3538.00,95.12
3537.00,95.10
3536.00,95.09
3535.00,95.09
3534.00,95.08
3533.00,95.06
3532.00,95.02
3531.00,94.99
3530.00,94.97
3529.00,94.96
3528.00,94.94
3527.00,94.90
3526.00,94.87
3525.00,94.84
3524.00,94.82
3523.00,94.79
3522.00,94.77
3521.00,94.75
3520.00,94.73
3519.00,94.70
3518.00,94.67
3517.00,94.65
3516.00,94.66
3515.00,94.66
3514.00,94.66
3513.00,94.62
3512.00,94.56
3511.00,94.49
3510.00,94.44
3509.00,94.39
3508.00,94.35
3507.00,94.31
3506.00,94.28
3505.00,94.25
3504.00,94.22
3503.00,94.18
3502.00,94.14
3501.00,94.09
3500.00,94.03
3499.00,93.98
3498.00,93.93
3497.00,93.90
3496.00,93.89
3495.00,93.87
3494.00,93.84
3493.00,93.79
3492.00,93.74
3491.00,93.68
3490.00,93.62
3489.00,93.57
3488.00,93.55
3487.00,93.54
3486.00,93.54
3485.00,93.54
3484.00,93.54
3483.00,93.53
3482.00,93.52
3481.00,93.50
3480.00,93.47
3479.00,93.42
3478.00,93.38
3477.00,93.35
3476.00,93.33
3475.00,93.32
3474.00,93.30
3473.00,93.27
3472.00,93.25
3471.00,93.23
3470.00,93.22
3469.00,93.20
3468.00,93.16
3467.00,93.11
3466.00,93.04
3465.00,92.98
3464.00,92.94
3463.00,92.93
3462.00,92.93
3461.00,92.92
3460.00,92.88
3459.00,92.83
3458.00,92.77
3457.00,92.71
3456.00,92.66
3455.00,92.62
3454.00,92.58
3453.00,92.56
3452.00,92.53
3451.00,92.49
3450.00,92.43
3449.00,92.39
3448.00,92.36
3447.00,92.35
3446.00,92.35
3445.00,92.33
3444.00,92.31
3443.00,92.27
3442.00,92.24
3441.00,92.20
3440.00,92.18
3439.00,92.15
3438.00,92.13
3437.00,92.12
3436.00,92.11
3435.00,92.10
3434.00,92.09
3433.00,92.08
3432.00,92.06
3431.00,92.04
3430.00,92.01
3429.00,91.98
3428.00,91.96
3427.00,91.96
3426.00,91.97
3425.00,91.98
3424.00,91.99
3423.00,91.99
3422.00,91.98
3421.00,91.97
3420.00,91.95
3419.00,91.91
3418.00,91.88
3417.00,91.83
3416.00,91.79
3415.00,91.77
3414.00,91.77
3413.00,91.77
3412.00,91.78
3411.00,91.76
3410.00,91.74
3409.00,91.71
3408.00,91.70
3407.00,91.71
3406.00,91.73
3405.00,91.75
3404.00,91.74
3403.00,91.71
3402.00,91.68
3401.00,91.67
3400.00,91.67
3399.00,91.67
3398.00,91.67
3397.00,91.65
3396.00,91.61
3395.00,91.58
3394.00,91.55
3393.00,91.53
3392.00,91.50
3391.00,91.49
3390.00,91.47
3389.00,91.46
3388.00,91.45
3387.00,91.44
3386.00,91.41
3385.00,91.38
3384.00,91.37
3383.00,91.37
3382.00,91.39
3381.00,91.41
3380.00,91.40
3379.00,91.38
3378.00,91.36
3377.00,91.33
3376.00,91.32
3375.00,91.32
3374.00,91.32
3373.00,91.32
3372.00,91.31
3371.00,91.30
3370.00,91.27
3369.00,91.25
3368.00,91.22
3367.00,91.19
3366.00,91.17
3365.00,91.16
3364.00,91.16
3363.00,91.16
3362.00,91.14
3361.00,91.12
3360.00,91.09
3359.00,91.08
3358.00,91.09
3357.00,91.09
3356.00,91.10
3355.00,91.10
3354.00,91.11
3353.00,91.12
3352.00,91.13
3351.00,91.13
3350.00,91.11
3349.00,91.09
3348.00,91.08
3347.00,91.09
3346.00,91.11
3345.00,91.13
3344.00,91.13
3343.00,91.12
3342.00,91.09
3341.00,91.07
3340.00,91.06
3339.00,91.07
3338.00,91.08
3337.00,91.09
3336.00,91.08
3335.00,91.08
3334.00,91.08
3333.00,91.08
3332.00,91.08
3331.00,91.07
3330.00,91.06
3329.00,91.04
3328.00,91.03
3327.00,91.03
3326.00,91.03
3325.00,91.03
3324.00,91.03
3323.00,91.04
3322.00,91.05
3321.00,91.08
3320.00,91.11
3319.00,91.12
3318.00,91.11
3317.00,91.10
3316.00,91.09
3315.00,91.08
3314.00,91.08
3313.00,91.08
3312.00,91.08
3311.00,91.09
3310.00,91.10
3309.00,91.10
3308.00,91.10
3307.00,91.10
3306.00,91.11
3305.00,91.12
3304.00,91.13
3303.00,91.13
3302.00,91.13
3301.00,91.13
3300.00,91.13
3299.00,91.13
3298.00,91.11
3297.00,91.09
3296.00,91.07
3295.00,91.07
3294.00,91.07
3293.00,91.09
3292.00,91.12
3291.00,91.15
3290.00,91.17
3289.00,91.17
3288.00,91.16
3287.00,91.15
3286.00,91.15
3285.00,91.15
3284.00,91.14
3283.00,91.14
3282.00,91.12
3281.00,91.12
3280.00,91.12
3279.00,91.12
3278.00,91.12
3277.00,91.12
3276.00,91.13
3275.00,91.15
3274.00,91.17
3273.00,91.18
3272.00,91.19
3271.00,91.21
3270.00,91.23
3269.00,91.25
3268.00,91.27
3267.00,91.29
3266.00,91.32
3265.00,91.34
3264.00,91.35
3263.00,91.36
3262.00,91.36
3261.00,91.35
3260.00,91.34
3259.00,91.34
3258.00,91.35
3257.00,91.38
3256.00,91.40
3255.00,91.42
3254.00,91.43
3253.00,91.43
3252.00,91.43
3251.00,91.42
3250.00,91.41
3249.00,91.41
3248.00,91.43
3247.00,91.44
3246.00,91.46
3245.00,91.48
3244.00,91.50
3243.00,91.52
3242.00,91.54
3241.00,91.54
3240.00,91.55
3239.00,91.57
3238.00,91.59
3237.00,91.61
3236.00,91.64
3235.00,91.66
3234.00,91.67
3233.00,91.67
3232.00,91.66
3231.00,91.65
3230.00,91.65
3229.00,91.66
3228.00,91.67
3227.00,91.69
3226.00,91.71
3225.00,91.73
3224.00,91.75
3223.00,91.76
3222.00,91.76
3221.00,91.78
3220.00,91.80
3219.00,91.82
3218.00,91.84
3217.00,91.85
3216.00,91.86
3215.00,91.88
3214.00,91.90
3213.00,91.93
3212.00,91.94
3211.00,91.95
3210.00,91.94
3209.00,91.94
3208.00,91.95
3207.00,91.97
3206.00,91.99
3205.00,92.01
3204.00,92.03
3203.00,92.04
3202.00,92.06
3201.00,92.08
3200.00,92.10
3199.00,92.12
3198.00,92.15
3197.00,92.17
3196.00,92.20
3195.00,92.21
3194.00,92.21
3193.00,92.20
3192.00,92.21
3191.00,92.24
3190.00,92.27
3189.00,92.31
3188.00,92.34
3187.00,92.36
3186.00,92.37
3185.00,92.37
3184.00,92.36
3183.00,92.36
3182.00,92.36
3181.00,92.37
3180.00,92.38
3179.00,92.41
3178.00,92.46
3177.00,92.51
3176.00,92.55
3175.00,92.57
3174.00,92.57
3173.00,92.57
3172.00,92.57
3171.00,92.59
3170.00,92.62
3169.00,92.64
3168.00,92.66
3167.00,92.67
3166.00,92.68
3165.00,92.69
3164.00,92.70
3163.00,92.71
3162.00,92.73
3161.00,92.76
3160.00,92.79
3159.00,92.82
3158.00,92.85
3157.00,92.86
3156.00,92.87
3155.00,92.88
3154.00,92.90
3153.00,92.92
3152.00,92.93
3151.00,92.95
3150.00,92.97
3149.00,92.99
3148.00,93.03
3147.00,93.05
3146.00,93.07
3145.00,93.07
3144.00,93.08
3143.00,93.10
3142.00,93.13
3141.00,93.17
3140.00,93.20
3139.00,93.22
3138.00,93.24
3137.00,93.26
3136.00,93.29
3135.00,93.32
3134.00,93.35
3133.00,93.38
3132.00,93.39
3131.00,93.40
3130.00,93.40
3129.00,93.42
3128.00,93.44
3127.00,93.47
3126.00,93.50
3125.00,93.52
3124.00,93.55
3123.00,93.58
3122.00,93.60
3121.00,93.62
3120.00,93.63
3119.00,93.64
3118.00,93.65
3117.00,93.66
3116.00,93.69
3115.00,93.72
3114.00,93.74
3113.00,93.77
3112.00,93.78
3111.00,93.80
3110.00,93.83
3109.00,93.86
3108.00,93.89
3107.00,93.91
3106.00,93.92
3105.00,93.93
3104.00,93.94
3103.00,93.96
3102.00,93.98
3101.00,94.01
3100.00,94.04
3099.00,94.08
3098.00,94.12
3097.00,94.14
3096.00,94.15
3095.00,94.16
3094.00,94.17
3093.00,94.20
3092.00,94.24
3091.00,94.27
3090.00,94.30
3089.00,94.31
3088.00,94.33
3087.00,94.35
3086.00,94.36
3085.00,94.36
3084.00,94.37
3083.00,94.39
3082.00,94.42
3081.00,94.46
3080.00,94.50
3079.00,94.52
3078.00,94.53
3077.00,94.53
3076.00,94.55
3075.00,94.58
3074.00,94.61
3073.00,94.64
3072.00,94.66
3071.00,94.69
3070.00,94.72
3069.00,94.75
3068.00,94.76
3067.00,94.76
3066.00,94.76
3065.00,94.76
3064.00,94.77
3063.00,94.78
3062.00,94.80
3061.00,94.80
3060.00,94.81
3059.00,94.83
3058.00,94.85
3057.00,94.87
3056.00,94.89
3055.00,94.92
3054.00,94.95
3053.00,94.98
3052.00,95.00
3051.00,95.01
3050.00,95.02
3049.00,95.04
3048.00,95.07
3047.00,95.10
3046.00,95.12
3045.00,95.14
3044.00,95.15
3043.00,95.17
3042.00,95.19
3041.00,95.22
3040.00,95.24
3039.00,95.24
3038.00,95.24
3037.00,95.24
3036.00,95.25
3035.00,95.26
3034.00,95.27
3033.00,95.29
3032.00,95.31
3031.00,95.32
3030.00,95.33
3029.00,95.33
3028.00,95.33
3027.00,95.33
3026.00,95.33
3025.00,95.34
3024.00,95.35
3023.00,95.38
3022.00,95.40
3021.00,95.41
3020.00,95.42
3019.00,95.44
3018.00,95.45
3017.00,95.47
3016.00,95.49
3015.00,95.49
3014.00,95.50
3013.00,95.50
3012.00,95.51
3011.00,95.53
3010.00,95.54
3009.00,95.54
3008.00,95.55
3007.00,95.55
3006.00,95.56
3005.00,95.57
3004.00,95.58
3003.00,95.58
3002.00,95.59
3001.00,95.58
3000.00,95.58
2999.00,95.58
2998.00,95.58
2997.00,95.58
2996.00,95.58
2995.00,95.57
2994.00,95.57
2993.00,95.57
2992.00,95.56
2991.00,95.57
2990.00,95.56
2989.00,95.55
2988.00,95.54
2987.00,95.52
2986.00,95.51
2985.00,95.51
2984.00,95.51
2983.00,95.50
2982.00,95.49
2981.00,95.47
2980.00,95.46
2979.00,95.44
2978.00,95.42
2977.00,95.42
2976.00,95.41
2975.00,95.39
2974.00,95.37
2973.00,95.33
2972.00,95.31
2971.00,95.29
2970.00,95.27
2969.00,95.25
2968.00,95.22
2967.00,95.17
2966.00,95.11
2965.00,95.06
2964.00,95.03
2963.00,95.01
2962.00,94.99
2961.00,94.98
2960.00,94.96
2959.00,94.94
2958.00,94.93
2957.00,94.91
2956.00,94.91
2955.00,94.91
2954.00,94.92
2953.00,94.92
2952.00,94.91
2951.00,94.88
2950.00,94.85
2949.00,94.81
2948.00,94.78
2947.00,94.76
2946.00,94.74
2945.00,94.73
2944.00,94.71
2943.00,94.68
2942.00,94.66
2941.00,94.63
2940.00,94.59
2939.00,94.54
2938.00,94.47
2937.00,94.39
2936.00,94.31
2935.00,94.24
2934.00,94.19
2933.00,94.15
2932.00,94.12
2931.00,94.09
2930.00,94.06
2929.00,94.03
2928.00,93.98
2927.00,93.92
2926.00,93.83
2925.00,93.75
2924.00,93.67
2923.00,93.61
2922.00,93.55
2921.00,93.50
2920.00,93.46
2919.00,93.43
2918.00,93.40
2917.00,93.39
2916.00,93.41
2915.00,93.44
2914.00,93.47
2913.00,93.51
2912.00,93.55
2911.00,93.58
2910.00,93.61
2909.00,93.62
2908.00,93.63
2907.00,93.63
2906.00,93.64
2905.00,93.65
2904.00,93.66
2903.00,93.66
2902.00,93.64
2901.00,93.61
2900.00,93.59
2899.00,93.58
2898.00,93.59
2897.00,93.60
2896.00,93.60
2895.00,93.60
2894.00,93.59
2893.00,93.59
2892.00,93.60
2891.00,93.63
2890.00,93.65
2889.00,93.67
2888.00,93.69
2887.00,93.71
2886.00,93.71
2885.00,93.72
2884.00,93.73
2883.00,93.74
2882.00,93.75
2881.00,93.76
2880.00,93.76
2879.00,93.77
2878.00,93.77
2877.00,93.78
2876.00,93.80
2875.00,93.82
2874.00,93.86
2873.00,93.90
2872.00,93.94
2871.00,93.98
2870.00,94.02
2869.00,94.05
2868.00,94.09
2867.00,94.13
2866.00,94.16
2865.00,94.18
2864.00,94.19
2863.00,94.21
2862.00,94.24
2861.00,94.26
2860.00,94.28
2859.00,94.30
2858.00,94.30
2857.00,94.30
2856.00,94.29
2855.00,94.28
2854.00,94.26
2853.00,94.24
2852.00,94.23
2851.00,94.24
2850.00,94.27
2849.00,94.33
2848.00,94.41
2847.00,94.51
2846.00,94.61
2845.00,94.70
2844.00,94.78
2843.00,94.85
2842.00,94.90
2841.00,94.95
2840.00,95.00
2839.00,95.05
2838.00,95.09
2837.00,95.13
2836.00,95.16
2835.00,95.20
2834.00,95.23
2833.00,95.26
2832.00,95.28
2831.00,95.29
2830.00,95.30
2829.00,95.30
2828.00,95.30
2827.00,95.31
2826.00,95.33
2825.00,95.36
2824.00,95.39
2823.00,95.42
2822.00,95.45
2821.00,95.48
2820.00,95.49
2819.00,95.50
2818.00,95.51
2817.00,95.52
2816.00,95.53
2815.00,95.53
2814.00,95.54
2813.00,95.54
2812.00,95.54
2811.00,95.54
2810.00,95.55
2809.00,95.57
2808.00,95.59
2807.00,95.61
2806.00,95.62
2805.00,95.62
2804.00,95.62
2803.00,95.62
2802.00,95.63
2801.00,95.64
2800.00,95.65
2799.00,95.67
2798.00,95.69
2797.00,95.71
2796.00,95.72
2795.00,95.73
2794.00,95.75
2793.00,95.75
2792.00,95.76
2791.00,95.77
2790.00,95.78
2789.00,95.79
2788.00,95.80
2787.00,95.81
2786.00,95.83
2785.00,95.84
2784.00,95.85
2783.00,95.85
2782.00,95.85
2781.00,95.86
2780.00,95.88
2779.00,95.90
2778.00,95.92
2777.00,95.93
2776.00,95.93
2775.00,95.92
2774.00,95.92
2773.00,95.91
2772.00,95.92
2771.00,95.92
2770.00,95.93
2769.00,95.95
2768.00,95.96
2767.00,95.97
2766.00,95.98
2765.00,95.98
2764.00,95.99
2763.00,96.01
2762.00,96.02
2761.00,96.03
2760.00,96.02
2759.00,96.01
2758.00,96.00
2757.00,96.00
2756.00,96.00
2755.00,96.01
2754.00,96.00
2753.00,96.00
2752.00,96.00
2751.00,96.01
2750.00,96.02
2749.00,96.03
2748.00,96.03
2747.00,96.02
2746.00,96.01
2745.00,96.01
2744.00,96.02
2743.00,96.03
2742.00,96.05
2741.00,96.05
2740.00,96.05
2739.00,96.05
2738.00,96.05
2737.00,96.06
2736.00,96.07
2735.00,96.08
2734.00,96.09
2733.00,96.09
2732.00,96.08
2731.00,96.08
2730.00,96.08
2729.00,96.08
2728.00,96.07
2727.00,96.07
2726.00,96.07
2725.00,96.08
2724.00,96.10
2723.00,96.12
2722.00,96.14
2721.00,96.14
2720.00,96.13
2719.00,96.13
2718.00,96.13
2717.00,96.13
2716.00,96.12
2715.00,96.12
2714.00,96.12
2713.00,96.12
2712.00,96.14
2711.00,96.15
2710.00,96.17
2709.00,96.18
2708.00,96.18
2707.00,96.18
2706.00,96.18
2705.00,96.18
2704.00,96.18
2703.00,96.18
2702.00,96.18
2701.00,96.18
2700.00,96.19
2699.00,96.20
2698.00,96.22
2697.00,96.24
2696.00,96.25
2695.00,96.26
2694.00,96.26
2693.00,96.26
2692.00,96.26
2691.00,96.27
2690.00,96.28
2689.00,96.29
2688.00,96.29
2687.00,96.29
2686.00,96.29
2685.00,96.30
2684.00,96.30
2683.00,96.31
2682.00,96.32
2681.00,96.31
2680.00,96.31
2679.00,96.30
2678.00,96.31
2677.00,96.31
2676.00,96.30
2675.00,96.30
2674.00,96.29
2673.00,96.30
2672.00,96.32
2671.00,96.34
2670.00,96.35
2669.00,96.35
2668.00,96.34
2667.00,96.34
2666.00,96.34
2665.00,96.34
2664.00,96.34
2663.00,96.34
2662.00,96.34
2661.00,96.34
2660.00,96.35
2659.00,96.36
2658.00,96.36
2657.00,96.35
2656.00,96.35
2655.00,96.35
2654.00,96.35
2653.00,96.34
2652.00,96.33
2651.00,96.32
2650.00,96.31
2649.00,96.31
2648.00,96.30
2647.00,96.29
2646.00,96.28
2645.00,96.27
2644.00,96.26
2643.00,96.25
2642.00,96.23
2641.00,96.22
2640.00,96.21
2639.00,96.20
2638.00,96.20
2637.00,96.21
2636.00,96.22
2635.00,96.23
2634.00,96.23
2633.00,96.22
2632.00,96.21
2631.00,96.20
2630.00,96.20
2629.00,96.19
2628.00,96.18
2627.00,96.17
2626.00,96.17
2625.00,96.18
2624.00,96.18
2623.00,96.19
2622.00,96.19
2621.00,96.20
2620.00,96.21
2619.00,96.22
2618.00,96.21
2617.00,96.18
2616.00,96.15
2615.00,96.14
2614.00,96.14
2613.00,96.15
2612.00,96.16
2611.00,96.15
2610.00,96.14
2609.00,96.13
2608.00,96.13
2607.00,96.14
2606.00,96.16
2605.00,96.16
2604.00,96.14
2603.00,96.13
2602.00,96.11
2601.00,96.11
2600.00,96.12
2599.00,96.14
2598.00,96.16
2597.00,96.17
2596.00,96.17
2595.00,96.16
2594.00,96.14
2593.00,96.12
2592.00,96.11
2591.00,96.10
2590.00,96.08
2589.00,96.05
2588.00,96.01
2587.00,96.00
2586.00,96.01
2585.00,96.03
2584.00,96.04
2583.00,96.04
2582.00,96.04
2581.00,96.05
2580.00,96.07
2579.00,96.08
2578.00,96.09
2577.00,96.09
2576.00,96.08
2575.00,96.06
2574.00,96.05
2573.00,96.06
2572.00,96.08
2571.00,96.11
2570.00,96.13
2569.00,96.13
2568.00,96.12
2567.00,96.11
2566.00,96.10
2565.00,96.09
2564.00,96.09
2563.00,96.09
2562.00,96.09
2561.00,96.09
2560.00,96.08
2559.00,96.08
2558.00,96.07
2557.00,96.07
2556.00,96.05
2555.00,96.03
2554.00,96.02
2553.00,96.02
2552.00,96.02
2551.00,96.01
2550.00,96.01
2549.00,96.01
2548.00,96.01
2547.00,96.02
2546.00,96.04
2545.00,96.05
2544.00,96.07
2543.00,96.07
2542.00,96.07
2541.00,96.08
2540.00,96.09
2539.00,96.10
2538.00,96.11
2537.00,96.10
2536.00,96.08
2535.00,96.05
2534.00,96.03
2533.00,96.04
2532.00,96.07
2531.00,96.09
2530.00,96.10
2529.00,96.09
2528.00,96.09
2527.00,96.08
2526.00,96.08
2525.00,96.07
2524.00,96.07
2523.00,96.07
2522.00,96.07
2521.00,96.08
2520.00,96.08
2519.00,96.07
2518.00,96.06
2517.00,96.06
2516.00,96.09
2515.00,96.11
2514.00,96.12
2513.00,96.11
2512.00,96.09
2511.00,96.07
2510.00,96.05
2509.00,96.05
2508.00,96.06
2507.00,96.07
2506.00,96.08
2505.00,96.08
2504.00,96.08
2503.00,96.08
2502.00,96.10
2501.00,96.12
2500.00,96.13
2499.00,96.13
2498.00,96.12
2497.00,96.11
2496.00,96.11
2495.00,96.11
2494.00,96.09
2493.00,96.08
2492.00,96.08
2491.00,96.08
2490.00,96.09
2489.00,96.11
2488.00,96.13
2487.00,96.15
2486.00,96.16
2485.00,96.17
2484.00,96.19
2483.00,96.19
2482.00,96.19
2481.00,96.17
2480.00,96.15
2479.00,96.14
2478.00,96.16
2477.00,96.19
2476.00,96.21
2475.00,96.22
2474.00,96.20
2473.00,96.16
2472.00,96.14
2471.00,96.13
2470.00,96.12
2469.00,96.12
2468.00,96.12
2467.00,96.14
2466.00,96.17
2465.00,96.21
2464.00,96.22
2463.00,96.21
2462.00,96.20
2461.00,96.19
2460.00,96.19
2459.00,96.19
2458.00,96.18
2457.00,96.18
2456.00,96.18
2455.00,96.19
2454.00,96.21
2453.00,96.25
2452.00,96.28
2451.00,96.30
2450.00,96.29
2449.00,96.28
2448.00,96.26
2447.00,96.25
2446.00,96.24
2445.00,96.22
2444.00,96.21
2443.00,96.21
2442.00,96.21
2441.00,96.21
2440.00,96.22
2439.00,96.23
2438.00,96.25
2437.00,96.27
2436.00,96.27
2435.00,96.27
2434.00,96.26
2433.00,96.26
2432.00,96.27
2431.00,96.27
2430.00,96.28
2429.00,96.28
2428.00,96.29
2427.00,96.29
2426.00,96.29
2425.00,96.30
2424.00,96.33
2423.00,96.36
2422.00,96.38
2421.00,96.38
2420.00,96.35
2419.00,96.33
2418.00,96.32
2417.00,96.32
2416.00,96.32
2415.00,96.32
2414.00,96.32
2413.00,96.32
2412.00,96.32
2411.00,96.33
2410.00,96.36
2409.00,96.38
2408.00,96.41
2407.00,96.43
2406.00,96.44
2405.00,96.45
2404.00,96.45
2403.00,96.44
2402.00,96.43
2401.00,96.44
2400.00,96.45
2399.00,96.47
2398.00,96.48
2397.00,96.49
2396.00,96.49
2395.00,96.50
2394.00,96.50
2393.00,96.50
2392.00,96.50
2391.00,96.50
2390.00,96.52
2389.00,96.53
2388.00,96.55
2387.00,96.56
2386.00,96.57
2385.00,96.58
2384.00,96.59
2383.00,96.58
2382.00,96.58
2381.00,96.58
2380.00,96.58
2379.00,96.60
2378.00,96.64
2377.00,96.69
2376.00,96.74
2375.00,96.79
2374.00,96.83
2373.00,96.86
2372.00,96.86
2371.00,96.85
2370.00,96.81
2369.00,96.75
2368.00,96.70
2367.00,96.66
2366.00,96.64
2365.00,96.65
2364.00,96.66
2363.00,96.64
2362.00,96.59
2361.00,96.57
2360.00,96.64
2359.00,96.75
2358.00,96.81
2357.00,96.78
2356.00,96.71
2355.00,96.69
2354.00,96.72
2353.00,96.79
2352.00,96.83
2351.00,96.84
2350.00,96.83
2349.00,96.80
2348.00,96.80
2347.00,96.84
2346.00,96.89
2345.00,96.93
2344.00,96.94
2343.00,96.91
2342.00,96.85
2341.00,96.82
2340.00,96.83
2339.00,96.89
2338.00,96.93
2337.00,96.93
2336.00,96.89
2335.00,96.85
2334.00,96.82
2333.00,96.79
2332.00,96.77
2331.00,96.76
2330.00,96.77
2329.00,96.78
2328.00,96.76
2327.00,96.72
2326.00,96.68
2325.00,96.65
2324.00,96.65
2323.00,96.65
2322.00,96.64
2321.00,96.61
2320.00,96.59
2319.00,96.57
2318.00,96.56
2317.00,96.55
2316.00,96.55
2315.00,96.57
2314.00,96.60
2313.00,96.62
2312.00,96.61
2311.00,96.59
2310.00,96.54
2309.00,96.49
2308.00,96.45
2307.00,96.43
2306.00,96.43
2305.00,96.43
2304.00,96.41
2303.00,96.40
2302.00,96.39
2301.00,96.38
2300.00,96.37
2299.00,96.36
2298.00,96.33
2297.00,96.29
2296.00,96.24
2295.00,96.20
2294.00,96.18
2293.00,96.17
2292.00,96.16
2291.00,96.16
2290.00,96.16
2289.00,96.16
2288.00,96.15
2287.00,96.13
2286.00,96.09
2285.00,96.05
2284.00,96.01
2283.00,95.98
2282.00,95.97
2281.00,95.98
2280.00,95.99
2279.00,95.99
2278.00,95.99
2277.00,95.97
2276.00,95.94
2275.00,95.91
2274.00,95.90
2273.00,95.88
2272.00,95.85
2271.00,95.80
2270.00,95.76
2269.00,95.72
2268.00,95.70
2267.00,95.70
2266.00,95.71
2265.00,95.72
2264.00,95.73
2263.00,95.74
2262.00,95.75
2261.00,95.75
2260.00,95.73
2259.00,95.70
2258.00,95.66
2257.00,95.64
2256.00,95.62
2255.00,95.61
2254.00,95.60
2253.00,95.60
2252.00,95.60
2251.00,95.59
2250.00,95.58
2249.00,95.56
2248.00,95.55
2247.00,95.55
2246.00,95.58
2245.00,95.61
2244.00,95.62
2243.00,95.59
2242.00,95.54
2241.00,95.48
2240.00,95.46
2239.00,95.46
2238.00,95.47
2237.00,95.47
2236.00,95.43
2235.00,95.36
2234.00,95.30
2233.00,95.25
2232.00,95.24
2231.00,95.25
2230.00,95.26
2229.00,95.28
2228.00,95.28
2227.00,95.27
2226.00,95.26
2225.00,95.27
2224.00,95.28
2223.00,95.29
2222.00,95.28
2221.00,95.25
2220.00,95.21
2219.00,95.17
2218.00,95.15
2217.00,95.14
2216.00,95.13
2215.00,95.11
2214.00,95.10
2213.00,95.11
2212.00,95.13
2211.00,95.14
2210.00,95.15
2209.00,95.14
2208.00,95.12
2207.00,95.06
2206.00,94.98
2205.00,94.92
2204.00,94.90
2203.00,94.93
2202.00,94.98
2201.00,95.00
2200.00,94.96
2199.00,94.90
2198.00,94.87
2197.00,94.89
2196.00,94.96
2195.00,95.01
2194.00,95.03
2193.00,95.01
2192.00,94.95
2191.00,94.90
2190.00,94.86
2189.00,94.85
2188.00,94.85
2187.00,94.84
2186.00,94.82
2185.00,94.78
2184.00,94.71
2183.00,94.63
2182.00,94.58
2181.00,94.58
2180.00,94.60
2179.00,94.58
2178.00,94.55
2177.00,94.53
2176.00,94.54
2175.00,94.56
2174.00,94.55
2173.00,94.51
2172.00,94.46
2171.00,94.43
2170.00,94.42
2169.00,94.43
2168.00,94.41
2167.00,94.36
2166.00,94.28
2165.00,94.20
2164.00,94.12
2163.00,94.07
2162.00,94.04
2161.00,94.05
2160.00,94.11
2159.00,94.20
2158.00,94.30
2157.00,94.43
2156.00,94.56
2155.00,94.68
2154.00,94.77
2153.00,94.83
2152.00,94.84
2151.00,94.79
2150.00,94.73
2149.00,94.70
2148.00,94.73
2147.00,94.82
2146.00,94.92
2145.00,95.01
2144.00,95.09
2143.00,95.17
2142.00,95.23
2141.00,95.28
2140.00,95.31
2139.00,95.32
2138.00,95.34
2137.00,95.37
2136.00,95.41
2135.00,95.46
2134.00,95.49
2133.00,95.51
2132.00,95.53
2131.00,95.57
2130.00,95.64
2129.00,95.72
2128.00,95.79
2127.00,95.81
2126.00,95.80
2125.00,95.76
2124.00,95.73
2123.00,95.71
2122.00,95.70
2121.00,95.70
2120.00,95.72
2119.00,95.74
2118.00,95.74
2117.00,95.73
2116.00,95.72
2115.00,95.71
2114.00,95.71
2113.00,95.70
2112.00,95.68
2111.00,95.66
2110.00,95.64
2109.00,95.63
2108.00,95.64
2107.00,95.65
2106.00,95.65
2105.00,95.64
2104.00,95.62
2103.00,95.62
2102.00,95.62
2101.00,95.62
2100.00,95.62
2099.00,95.61
2098.00,95.61
2097.00,95.64
2096.00,95.70
2095.00,95.77
2094.00,95.82
2093.00,95.83
2092.00,95.81
2091.00,95.76
2090.00,95.70
2089.00,95.65
2088.00,95.61
2087.00,95.61
2086.00,95.63
2085.00,95.67
2084.00,95.69
2083.00,95.68
2082.00,95.64
2081.00,95.61
2080.00,95.58
2079.00,95.57
2078.00,95.56
2077.00,95.56
2076.00,95.56
2075.00,95.57
2074.00,95.58
2073.00,95.57
2072.00,95.55
2071.00,95.52
2070.00,95.49
2069.00,95.48
2068.00,95.49
2067.00,95.51
2066.00,95.51
2065.00,95.48
2064.00,95.44
2063.00,95.42
2062.00,95.43
2061.00,95.46
2060.00,95.49
2059.00,95.50
2058.00,95.48
2057.00,95.44
2056.00,95.42
2055.00,95.41
2054.00,95.38
2053.00,95.30
2052.00,95.20
2051.00,95.10
2050.00,95.05
2049.00,95.04
2048.00,95.03
2047.00,95.01
2046.00,95.00
2045.00,94.99
2044.00,94.97
2043.00,94.95
2042.00,94.92
2041.00,94.88
2040.00,94.84
2039.00,94.80
2038.00,94.75
2037.00,94.68
2036.00,94.59
2035.00,94.52
2034.00,94.51
2033.00,94.56
2032.00,94.65
2031.00,94.72
2030.00,94.75
2029.00,94.76
2028.00,94.76
2027.00,94.75
2026.00,94.75
2025.00,94.74
2024.00,94.74
2023.00,94.73
2022.00,94.73
2021.00,94.74
2020.00,94.77
2019.00,94.82
2018.00,94.89
2017.00,94.95
2016.00,94.96
2015.00,94.93
2014.00,94.85
2013.00,94.78
2012.00,94.74
2011.00,94.74
2010.00,94.78
2009.00,94.83
2008.00,94.91
2007.00,95.01
2006.00,95.09
2005.00,95.13
2004.00,95.14
2003.00,95.15
2002.00,95.18
2001.00,95.19
2000.00,95.17
1999.00,95.14
1998.00,95.13
1997.00,95.13
1996.00,95.14
1995.00,95.16
1994.00,95.19
1993.00,95.23
1992.00,95.28
1991.00,95.29
1990.00,95.27
1989.00,95.20
1988.00,95.12
1987.00,95.05
1986.00,94.99
1985.00,94.94
1984.00,94.90
1983.00,94.88
1982.00,94.86
1981.00,94.85
1980.00,94.85
1979.00,94.85
1978.00,94.87
1977.00,94.90
1976.00,94.92
1975.00,94.94
1974.00,94.93
1973.00,94.92
1972.00,94.94
1971.00,95.02
1970.00,95.15
1969.00,95.28
1968.00,95.33
1967.00,95.30
1966.00,95.26
1965.00,95.23
1964.00,95.24
1963.00,95.27
1962.00,95.31
1961.00,95.35
1960.00,95.38
1959.00,95.39
1958.00,95.38
1957.00,95.38
1956.00,95.41
1955.00,95.47
1954.00,95.53
1953.00,95.58
1952.00,95.63
1951.00,95.68
1950.00,95.71
1949.00,95.73
1948.00,95.74
1947.00,95.75
1946.00,95.79
1945.00,95.84
1944.00,95.89
1943.00,95.92
1942.00,95.93
1941.00,95.92
1940.00,95.93
1939.00,95.97
1938.00,96.02
1937.00,96.04
1936.00,96.03
1935.00,95.99
1934.00,95.97
1933.00,95.99
1932.00,96.04
1931.00,96.09
1930.00,96.11
1929.00,96.10
1928.00,96.10
1927.00,96.11
1926.00,96.12
1925.00,96.13
1924.00,96.17
1923.00,96.22
1922.00,96.27
1921.00,96.28
1920.00,96.27
1919.00,96.25
1918.00,96.25
1917.00,96.27
1916.00,96.28
1915.00,96.30
1914.00,96.33
1913.00,96.36
1912.00,96.38
1911.00,96.38
1910.00,96.38
1909.00,96.38
1908.00,96.39
1907.00,96.42
1906.00,96.45
1905.00,96.47
1904.00,96.49
1903.00,96.50
1902.00,96.50
1901.00,96.49
1900.00,96.49
1899.00,96.50
1898.00,96.52
1897.00,96.54
1896.00,96.55
1895.00,96.55
1894.00,96.54
1893.00,96.54
1892.00,96.54
1891.00,96.55
1890.00,96.55
1889.00,96.57
1888.00,96.61
1887.00,96.64
1886.00,96.66
1885.00,96.66
1884.00,96.65
1883.00,96.65
1882.00,96.66
1881.00,96.67
1880.00,96.66
1879.00,96.65
1878.00,96.61
1877.00,96.58
1876.00,96.57
1875.00,96.57
1874.00,96.59
1873.00,96.61
1872.00,96.63
1871.00,96.64
1870.00,96.66
1869.00,96.69
1868.00,96.72
1867.00,96.73
1866.00,96.71
1865.00,96.68
1864.00,96.67
1863.00,96.69
1862.00,96.72
1861.00,96.75
1860.00,96.76
1859.00,96.77
1858.00,96.77
1857.00,96.77
1856.00,96.76
1855.00,96.76
1854.00,96.75
1853.00,96.75
1852.00,96.74
1851.00,96.75
1850.00,96.76
1849.00,96.77
1848.00,96.77
1847.00,96.77
1846.00,96.78
1845.00,96.79
1844.00,96.82
1843.00,96.84
1842.00,96.85
1841.00,96.84
1840.00,96.83
1839.00,96.84
1838.00,96.86
1837.00,96.88
1836.00,96.90
1835.00,96.89
1834.00,96.87
1833.00,96.83
1832.00,96.81
1831.00,96.80
1830.00,96.82
1829.00,96.85
1828.00,96.86
1827.00,96.86
1826.00,96.85
1825.00,96.86
1824.00,96.86
1823.00,96.86
1822.00,96.85
1821.00,96.85
1820.00,96.86
1819.00,96.88
1818.00,96.90
1817.00,96.91
1816.00,96.90
1815.00,96.90
1814.00,96.91
1813.00,96.93
1812.00,96.96
1811.00,96.98
1810.00,96.98
1809.00,96.98
1808.00,96.99
1807.00,97.00
1806.00,97.01
1805.00,97.01
1804.00,97.01
1803.00,97.00
1802.00,97.00
1801.00,97.00
1800.00,97.00
1799.00,97.00
1798.00,97.00
1797.00,97.00
1796.00,96.99
1795.00,96.99
1794.00,97.00
1793.00,97.00
1792.00,97.01
1791.00,97.00
1790.00,96.99
1789.00,96.99
1788.00,96.98
1787.00,96.98
1786.00,96.97
1785.00,96.95
1784.00,96.94
1783.00,96.96
1782.00,96.98
1781.00,97.01
1780.00,97.02
1779.00,97.02
1778.00,97.01
1777.00,97.01
1776.00,97.01
1775.00,97.00
1774.00,96.99
1773.00,96.98
1772.00,96.99
1771.00,97.00
1770.00,97.01
1769.00,97.01
1768.00,97.01
1767.00,97.00
1766.00,97.00
1765.00,97.00
1764.00,97.00
1763.00,97.00
1762.00,97.01
1761.00,97.00
1760.00,96.99
1759.00,96.98
1758.00,96.98
1757.00,96.99
1756.00,96.99
1755.00,96.97
1754.00,96.95
1753.00,96.93
1752.00,96.92
1751.00,96.91
1750.00,96.90
1749.00,96.87
1748.00,96.84
1747.00,96.82
1746.00,96.82
1745.00,96.82
1744.00,96.82
1743.00,96.82
1742.00,96.81
1741.00,96.78
1740.00,96.73
1739.00,96.67
1738.00,96.60
1737.00,96.53
1736.00,96.45
1735.00,96.34
1734.00,96.21
1733.00,96.09
1732.00,95.98
1731.00,95.88
1730.00,95.78
1729.00,95.67
1728.00,95.56
1727.00,95.44
1726.00,95.33
1725.00,95.20
1724.00,95.07
1723.00,94.93
1722.00,94.79
1721.00,94.66
1720.00,94.54
1719.00,94.41
1718.00,94.28
1717.00,94.14
1716.00,94.00
1715.00,93.86
1714.00,93.74
1713.00,93.63
1712.00,93.53
1711.00,93.44
1710.00,93.36
1709.00,93.30
1708.00,93.25
1707.00,93.23
1706.00,93.24
1705.00,93.30
1704.00,93.39
1703.00,93.48
1702.00,93.60
1701.00,93.78
1700.00,93.99
1699.00,94.14
1698.00,94.22
1697.00,94.31
1696.00,94.44
1695.00,94.57
1694.00,94.65
1693.00,94.71
1692.00,94.76
1691.00,94.84
1690.00,94.90
1689.00,94.95
1688.00,94.98
1687.00,94.99
1686.00,95.01
1685.00,95.03
1684.00,95.04
1683.00,95.03
1682.00,95.01
1681.00,95.01
1680.00,95.02
1679.00,95.03
1678.00,95.03
1677.00,95.01
1676.00,94.99
1675.00,94.96
1674.00,94.94
1673.00,94.92
1672.00,94.91
1671.00,94.90
1670.00,94.87
1669.00,94.84
1668.00,94.82
1667.00,94.82
1666.00,94.83
1665.00,94.85
1664.00,94.86
1663.00,94.86
1662.00,94.86
1661.00,94.85
1660.00,94.84
1659.00,94.83
1658.00,94.83
1657.00,94.83
1656.00,94.83
1655.00,94.82
1654.00,94.78
1653.00,94.71
1652.00,94.68
1651.00,94.67
1650.00,94.68
1649.00,94.68
1648.00,94.68
1647.00,94.68
1646.00,94.67
1645.00,94.65
1644.00,94.62
1643.00,94.62
1642.00,94.63
1641.00,94.67
1640.00,94.71
1639.00,94.73
1638.00,94.75
1637.00,94.77
1636.00,94.79
1635.00,94.81
1634.00,94.82
1633.00,94.84
1632.00,94.86
1631.00,94.90
1630.00,94.93
1629.00,94.96
1628.00,94.98
1627.00,95.00
1626.00,95.03
1625.00,95.06
1624.00,95.10
1623.00,95.13
1622.00,95.16
1621.00,95.18
1620.00,95.19
1619.00,95.19
1618.00,95.21
1617.00,95.25
1616.00,95.29
1615.00,95.33
1614.00,95.36
1613.00,95.39
1612.00,95.42
1611.00,95.43
1610.00,95.45
1609.00,95.46
1608.00,95.47
1607.00,95.51
1606.00,95.55
1605.00,95.60
1604.00,95.64
1603.00,95.68
1602.00,95.70
1601.00,95.73
1600.00,95.74
1599.00,95.75
1598.00,95.75
1597.00,95.77
1596.00,95.80
1595.00,95.83
1594.00,95.86
1593.00,95.89
1592.00,95.91
1591.00,95.92
1590.00,95.92
1589.00,95.91
1588.00,95.92
1587.00,95.93
1586.00,95.94
1585.00,95.94
1584.00,95.93
1583.00,95.91
1582.00,95.90
1581.00,95.88
1580.00,95.86
1579.00,95.85
1578.00,95.84
1577.00,95.86
1576.00,95.90
1575.00,95.93
1574.00,95.95
1573.00,95.96
1572.00,95.98
1571.00,96.02
1570.00,96.07
1569.00,96.12
1568.00,96.16
1567.00,96.19
1566.00,96.21
1565.00,96.21
1564.00,96.21
1563.00,96.19
1562.00,96.19
1561.00,96.20
1560.00,96.21
1559.00,96.21
1558.00,96.21
1557.00,96.22
1556.00,96.23
1555.00,96.23
1554.00,96.24
1553.00,96.24
1552.00,96.24
1551.00,96.24
1550.00,96.24
1549.00,96.24
1548.00,96.24
1547.00,96.23
1546.00,96.20
1545.00,96.17
1544.00,96.14
1543.00,96.13
1542.00,96.15
1541.00,96.18
1540.00,96.22
1539.00,96.25
1538.00,96.26
1537.00,96.27
1536.00,96.27
1535.00,96.27
1534.00,96.27
1533.00,96.27
1532.00,96.28
1531.00,96.31
1530.00,96.34
1529.00,96.36
1528.00,96.38
1527.00,96.39
1526.00,96.39
1525.00,96.40
1524.00,96.41
1523.00,96.42
1522.00,96.42
1521.00,96.43
1520.00,96.44
1519.00,96.45
1518.00,96.45
1517.00,96.44
1516.00,96.44
1515.00,96.44
1514.00,96.45
1513.00,96.45
1512.00,96.44
1511.00,96.41
1510.00,96.37
1509.00,96.33
1508.00,96.27
1507.00,96.19
1506.00,96.11
1505.00,96.06
1504.00,96.05
1503.00,96.06
1502.00,96.09
1501.00,96.13
1500.00,96.17
1499.00,96.19
1498.00,96.20
1497.00,96.20
1496.00,96.20
1495.00,96.19
1494.00,96.19
1493.00,96.17
1492.00,96.15
1491.00,96.11
1490.00,96.05
1489.00,95.98
1488.00,95.91
1487.00,95.84
1486.00,95.78
1485.00,95.73
1484.00,95.67
1483.00,95.60
1482.00,95.52
1481.00,95.41
1480.00,95.32
1479.00,95.24
1478.00,95.15
1477.00,95.03
1476.00,94.91
1475.00,94.80
1474.00,94.71
1473.00,94.62
1472.00,94.52
1471.00,94.43
1470.00,94.36
1469.00,94.31
1468.00,94.27
1467.00,94.26
1466.00,94.23
1465.00,94.17
1464.00,94.10
1463.00,94.03
1462.00,93.98
1461.00,93.92
1460.00,93.85
1459.00,93.79
1458.00,93.73
1457.00,93.66
1456.00,93.60
1455.00,93.56
1454.00,93.52
1453.00,93.50
1452.00,93.47
1451.00,93.46
1450.00,93.46
1449.00,93.45
1448.00,93.46
1447.00,93.47
1446.00,93.48
1445.00,93.49
1444.00,93.48
1443.00,93.47
1442.00,93.46
1441.00,93.46
1440.00,93.46
1439.00,93.46
1438.00,93.45
1437.00,93.42
1436.00,93.39
1435.00,93.39
1434.00,93.40
1433.00,93.42
1432.00,93.42
1431.00,93.42
1430.00,93.40
1429.00,93.38
1428.00,93.38
1427.00,93.39
1426.00,93.40
1425.00,93.40
1424.00,93.39
1423.00,93.38
1422.00,93.37
1421.00,93.36
1420.00,93.33
1419.00,93.25
1418.00,93.17
1417.00,93.09
1416.00,93.02
1415.00,92.93
1414.00,92.84
1413.00,92.72
1412.00,92.61
1411.00,92.53
1410.00,92.47
1409.00,92.44
1408.00,92.46
1407.00,92.50
1406.00,92.59
1405.00,92.69
1404.00,92.79
1403.00,92.89
1402.00,92.98
1401.00,93.04
1400.00,93.08
1399.00,93.08
1398.00,93.07
1397.00,93.05
1396.00,93.02
1395.00,92.98
1394.00,92.93
1393.00,92.89
1392.00,92.85
1391.00,92.82
1390.00,92.79
1389.00,92.74
1388.00,92.68
1387.00,92.61
1386.00,92.54
1385.00,92.47
1384.00,92.39
1383.00,92.31
1382.00,92.23
1381.00,92.15
1380.00,92.05
1379.00,91.95
1378.00,91.86
1377.00,91.78
1376.00,91.72
1375.00,91.67
1374.00,91.63
1373.00,91.59
1372.00,91.57
1371.00,91.55
1370.00,91.53
1369.00,91.51
1368.00,91.50
1367.00,91.50
1366.00,91.52
1365.00,91.54
1364.00,91.56
1363.00,91.60
1362.00,91.64
1361.00,91.71
1360.00,91.79
1359.00,91.87
1358.00,91.95
1357.00,92.02
1356.00,92.08
1355.00,92.12
1354.00,92.16
1353.00,92.20
1352.00,92.23
1351.00,92.26
1350.00,92.28
1349.00,92.30
1348.00,92.32
1347.00,92.33
1346.00,92.35
1345.00,92.35
1344.00,92.33
1343.00,92.31
1342.00,92.29
1341.00,92.26
1340.00,92.22
1339.00,92.18
1338.00,92.14
1337.00,92.11
1336.00,92.08
1335.00,92.06
1334.00,92.05
1333.00,92.03
1332.00,92.02
1331.00,92.01
1330.00,92.01
1329.00,92.00
1328.00,91.99
1327.00,91.97
1326.00,91.94
1325.00,91.90
1324.00,91.85
1323.00,91.79
1322.00,91.74
1321.00,91.69
1320.00,91.63
1319.00,91.57
1318.00,91.51
1317.00,91.46
1316.00,91.43
1315.00,91.43
1314.00,91.43
1313.00,91.45
1312.00,91.48
1311.00,91.52
1310.00,91.59
1309.00,91.65
1308.00,91.72
1307.00,91.77
1306.00,91.83
1305.00,91.89
1304.00,91.95
1303.00,92.01
1302.00,92.05
1301.00,92.09
1300.00,92.13
1299.00,92.16
1298.00,92.20
1297.00,92.23
1296.00,92.25
1295.00,92.27
1294.00,92.27
1293.00,92.26
1292.00,92.24
1291.00,92.22
1290.00,92.20
1289.00,92.18
1288.00,92.15
1287.00,92.10
1286.00,92.03
1285.00,91.94
1284.00,91.84
1283.00,91.72
1282.00,91.60
1281.00,91.47
1280.00,91.33
1279.00,91.20
1278.00,91.08
1277.00,90.98
1276.00,90.88
1275.00,90.78
1274.00,90.68
1273.00,90.58
1272.00,90.48
1271.00,90.38
1270.00,90.30
1269.00,90.21
1268.00,90.13
1267.00,90.06
1266.00,90.01
1265.00,89.97
1264.00,89.97
1263.00,89.99
1262.00,90.02
1261.00,90.06
1260.00,90.12
1259.00,90.18
1258.00,90.25
1257.00,90.30
1256.00,90.34
1255.00,90.38
1254.00,90.42
1253.00,90.48
1252.00,90.53
1251.00,90.58
1250.00,90.61
1249.00,90.62
1248.00,90.62
1247.00,90.62
1246.00,90.62
1245.00,90.64
1244.00,90.68
1243.00,90.72
1242.00,90.77
1241.00,90.82
1240.00,90.89
1239.00,90.99
1238.00,91.10
1237.00,91.23
1236.00,91.34
1235.00,91.45
1234.00,91.54
1233.00,91.64
1232.00,91.74
1231.00,91.84
1230.00,91.93
1229.00,92.00
1228.00,92.09
1227.00,92.19
1226.00,92.30
1225.00,92.42
1224.00,92.54
1223.00,92.67
1222.00,92.81
1221.00,92.96
1220.00,93.10
1219.00,93.22
1218.00,93.32
1217.00,93.40
1216.00,93.45
1215.00,93.50
1214.00,93.54
1213.00,93.56
1212.00,93.55
1211.00,93.51
1210.00,93.42
1209.00,93.32
1208.00,93.20
1207.00,93.09
1206.00,92.99
1205.00,92.91
1204.00,92.85
1203.00,92.82
1202.00,92.82
1201.00,92.85
1200.00,92.89
1199.00,92.94
1198.00,93.02
1197.00,93.12
1196.00,93.25
1195.00,93.39
1194.00,93.54
1193.00,93.69
1192.00,93.83
1191.00,93.97
1190.00,94.10
1189.00,94.23
1188.00,94.35
1187.00,94.44
1186.00,94.50
1185.00,94.51
1184.00,94.49
1183.00,94.43
1182.00,94.36
1181.00,94.28
1180.00,94.19
1179.00,94.08
1178.00,93.95
1177.00,93.80
1176.00,93.63
1175.00,93.43
1174.00,93.23
1173.00,93.02
1172.00,92.81
1171.00,92.58
1170.00,92.29
1169.00,91.98
1168.00,91.67
1167.00,91.37
1166.00,91.09
1165.00,90.81
1164.00,90.50
1163.00,90.18
1162.00,89.88
1161.00,89.62
1160.00,89.40
1159.00,89.23
1158.00,89.13
1157.00,89.10
1156.00,89.11
1155.00,89.14
1154.00,89.17
1153.00,89.23
1152.00,89.32
1151.00,89.45
1150.00,89.59
1149.00,89.75
1148.00,89.91
1147.00,90.07
1146.00,90.22
1145.00,90.33
1144.00,90.41
1143.00,90.46
1142.00,90.50
1141.00,90.53
1140.00,90.51
1139.00,90.45
1138.00,90.34
1137.00,90.21
1136.00,90.06
1135.00,89.88
1134.00,89.64
1133.00,89.34
1132.00,89.00
1131.00,88.65
1130.00,88.30
1129.00,87.95
1128.00,87.57
1127.00,87.19
1126.00,86.81
1125.00,86.44
1124.00,86.07
1123.00,85.71
1122.00,85.38
1121.00,85.07
1120.00,84.79
1119.00,84.54
1118.00,84.33
1117.00,84.15
1116.00,84.02
1115.00,83.91
1114.00,83.81
1113.00,83.69
1112.00,83.55
1111.00,83.42
1110.00,83.28
1109.00,83.13
1108.00,82.96
1107.00,82.75
1106.00,82.50
1105.00,82.20
1104.00,81.88
1103.00,81.58
1102.00,81.32
1101.00,81.07
1100.00,80.84
1099.00,80.63
1098.00,80.46
1097.00,80.33
1096.00,80.25
1095.00,80.19
1094.00,80.16
1093.00,80.13
1092.00,80.09
1091.00,80.04
1090.00,79.98
1089.00,79.90
1088.00,79.82
1087.00,79.73
1086.00,79.65
1085.00,79.55
1084.00,79.43
1083.00,79.30
1082.00,79.17
1081.00,79.03
1080.00,78.91
1079.00,78.80
1078.00,78.71
1077.00,78.59
1076.00,78.44
1075.00,78.28
1074.00,78.12
1073.00,77.96
1072.00,77.79
1071.00,77.62
1070.00,77.45
1069.00,77.29
1068.00,77.11
1067.00,76.93
1066.00,76.73
1065.00,76.52
1064.00,76.32
1063.00,76.12
1062.00,75.94
1061.00,75.77
1060.00,75.62
1059.00,75.49
1058.00,75.37
1057.00,75.26
1056.00,75.17
1055.00,75.10
1054.00,75.03
1053.00,74.96
1052.00,74.90
1051.00,74.86
1050.00,74.83
1049.00,74.78
1048.00,74.71
1047.00,74.62
1046.00,74.54
1045.00,74.46
1044.00,74.40
1043.00,74.35
1042.00,74.31
1041.00,74.27
1040.00,74.21
1039.00,74.13
1038.00,74.02
1037.00,73.88
1036.00,73.70
1035.00,73.52
1034.00,73.31
1033.00,73.08
1032.00,72.83
1031.00,72.59
1030.00,72.35
1029.00,72.12
1028.00,71.87
1027.00,71.64
1026.00,71.42
1025.00,71.23
1024.00,71.04
1023.00,70.83
1022.00,70.60
1021.00,70.33
1020.00,70.06
1019.00,69.85
1018.00,69.73
1017.00,69.74
1016.00,69.88
1015.00,70.14
1014.00,70.46
1013.00,70.78
1012.00,71.10
1011.00,71.43
1010.00,71.74
1009.00,72.02
1008.00,72.25
1007.00,72.46
1006.00,72.66
1005.00,72.83
1004.00,72.96
1003.00,73.05
1002.00,73.09
1001.00,73.09
1000.00,73.04
999.00,72.98
998.00,72.91
997.00,72.86
996.00,72.83
995.00,72.83
994.00,72.86
993.00,72.94
992.00,73.05
991.00,73.22
990.00,73.44
989.00,73.71
988.00,74.03
987.00,74.41
986.00,74.85
985.00,75.32
984.00,75.80
983.00,76.28
982.00,76.77
981.00,77.24
980.00,77.70
979.00,78.16
978.00,78.60
977.00,79.00
976.00,79.37
975.00,79.70
974.00,80.01
973.00,80.28
972.00,80.51
971.00,80.72
970.00,80.93
969.00,81.14
968.00,81.33
967.00,81.50
966.00,81.66
965.00,81.84
964.00,82.02
963.00,82.23
962.00,82.44
961.00,82.65
960.00,82.85
959.00,83.04
958.00,83.24
957.00,83.44
956.00,83.66
955.00,83.89
954.00,84.12
953.00,84.35
952.00,84.58
951.00,84.80
950.00,85.02
949.00,85.23
948.00,85.42
947.00,85.58
946.00,85.74
945.00,85.90
944.00,86.05
943.00,86.17
942.00,86.28
941.00,86.38
940.00,86.46
939.00,86.55
938.00,86.63
937.00,86.71
936.00,86.80
935.00,86.87
934.00,86.93
933.00,86.99
932.00,87.07
931.00,87.17
930.00,87.27
929.00,87.37
928.00,87.47
927.00,87.56
926.00,87.64
925.00,87.73
924.00,87.82
923.00,87.91
922.00,88.00
921.00,88.06
920.00,88.10
919.00,88.12
918.00,88.11
917.00,88.09
916.00,88.06
915.00,88.05
914.00,88.05
913.00,88.06
912.00,88.08
911.00,88.08
910.00,88.03
909.00,87.93
908.00,87.80
907.00,87.66
906.00,87.53
905.00,87.41
904.00,87.28
903.00,87.13
902.00,86.97
901.00,86.79
900.00,86.61
899.00,86.43
898.00,86.28
897.00,86.13
896.00,86.02
895.00,85.95
894.00,85.95
893.00,86.01
892.00,86.13
891.00,86.30
890.00,86.51
889.00,86.74
888.00,86.98
887.00,87.21
886.00,87.42
885.00,87.60
884.00,87.76
883.00,87.91
882.00,88.04
881.00,88.16
880.00,88.27
879.00,88.35
878.00,88.40
877.00,88.40
876.00,88.35
875.00,88.26
874.00,88.17
873.00,88.14
872.00,88.23
871.00,88.45
870.00,88.74
869.00,89.03
868.00,89.26
867.00,89.43
866.00,89.56
865.00,89.66
864.00,89.73
863.00,89.79
862.00,89.85
861.00,89.91
860.00,89.94
859.00,89.97
858.00,89.99
857.00,90.02
856.00,90.06
855.00,90.07
854.00,90.08
853.00,90.07
852.00,90.06
851.00,90.06
850.00,90.07
849.00,90.07
848.00,90.08
847.00,90.07
846.00,90.07
845.00,90.06
844.00,90.06
843.00,90.06
842.00,90.06
841.00,90.07
840.00,90.07
839.00,90.09
838.00,90.11
837.00,90.12
836.00,90.12
835.00,90.10
834.00,90.08
833.00,90.06
832.00,90.04
831.00,90.02
830.00,89.99
829.00,89.96
828.00,89.91
827.00,89.86
826.00,89.82
825.00,89.79
824.00,89.80
823.00,89.81
822.00,89.81
821.00,89.79
820.00,89.75
819.00,89.72
818.00,89.70
817.00,89.69
816.00,89.66
815.00,89.60
814.00,89.54
813.00,89.49
812.00,89.45
811.00,89.41
810.00,89.38
809.00,89.37
808.00,89.38
807.00,89.40
806.00,89.40
805.00,89.39
804.00,89.38
803.00,89.38
802.00,89.38
801.00,89.37
800.00,89.34
799.00,89.28
798.00,89.20
797.00,89.10
796.00,89.01
795.00,88.95
794.00,88.90
793.00,88.88
792.00,88.87
791.00,88.88
790.00,88.92
789.00,88.98
788.00,89.05
787.00,89.09
786.00,89.09
785.00,89.06
784.00,89.02
783.00,88.99
782.00,88.94
781.00,88.90
780.00,88.87
779.00,88.85
778.00,88.84
777.00,88.81
776.00,88.77
775.00,88.73
774.00,88.69
773.00,88.65
772.00,88.62
771.00,88.61
770.00,88.60
769.00,88.57
768.00,88.52
767.00,88.46
766.00,88.40
765.00,88.34
764.00,88.29
763.00,88.25
762.00,88.21
761.00,88.17
760.00,88.11
759.00,88.07
758.00,88.04
757.00,88.00
756.00,87.93
755.00,87.84
754.00,87.74
753.00,87.64
752.00,87.55
751.00,87.48
750.00,87.43
749.00,87.41
748.00,87.41
747.00,87.42
746.00,87.41
745.00,87.36
744.00,87.29
743.00,87.24
742.00,87.18
741.00,87.09
740.00,86.94
739.00,86.75
738.00,86.55
737.00,86.34
736.00,86.07
735.00,85.71
734.00,85.26
733.00,84.79
732.00,84.35
731.00,83.95
730.00,83.55
729.00,83.11
728.00,82.63
727.00,82.16
726.00,81.77
725.00,81.52
724.00,81.43
723.00,81.49
722.00,81.63
721.00,81.80
720.00,81.97
719.00,82.15
718.00,82.35
717.00,82.58
716.00,82.81
715.00,83.00
714.00,83.14
713.00,83.22
712.00,83.28
711.00,83.34
710.00,83.40
709.00,83.45
708.00,83.49
707.00,83.53
706.00,83.54
705.00,83.55
704.00,83.56
703.00,83.59
702.00,83.64
701.00,83.68
700.00,83.69
699.00,83.68
698.00,83.66
697.00,83.66
696.00,83.70
695.00,83.77
694.00,83.84
693.00,83.88
692.00,83.89
691.00,83.90
690.00,83.92
689.00,83.94
688.00,83.94
687.00,83.90
686.00,83.85
685.00,83.77
684.00,83.68
683.00,83.57
682.00,83.43
681.00,83.23
680.00,82.97
679.00,82.69
678.00,82.40
677.00,82.06
676.00,81.67
675.00,81.25
674.00,80.84
673.00,80.47
672.00,80.19
671.00,80.01
670.00,79.89
669.00,79.71
668.00,79.37
667.00,79.06
666.00,78.88
665.00,78.83
664.00,78.84
663.00,78.90
662.00,79.00
661.00,79.10
660.00,79.17
659.00,79.19
658.00,79.15
657.00,79.11
656.00,79.13
655.00,79.23
654.00,79.36
653.00,79.43
652.00,79.41
651.00,79.32
650.00,79.20
649.00,79.14
648.00,79.17
647.00,79.25
646.00,79.32
645.00,79.32
644.00,79.28
643.00,79.21
642.00,79.11
641.00,78.97
640.00,78.85
639.00,78.84
638.00,78.95
637.00,79.09
636.00,79.17
635.00,79.15
634.00,79.05
633.00,78.90
632.00,78.74
631.00,78.61
630.00,78.54
629.00,78.48
628.00,78.40
627.00,78.28
626.00,78.10
625.00,77.90
624.00,77.79
623.00,77.83
622.00,77.95
621.00,77.95
620.00,77.72
619.00,77.36
618.00,77.06
617.00,76.87
616.00,76.71
615.00,76.50
614.00,76.32
613.00,76.33
612.00,76.59
611.00,76.91
610.00,77.04
609.00,76.88
608.00,76.60
607.00,76.42
606.00,76.42
605.00,76.56
604.00,76.75
603.00,76.85
602.00,76.71
601.00,76.34
600.00,75.96
599.00,75.81
598.00,75.90
597.00,76.07
596.00,76.20
595.00,76.19
594.00,76.01
593.00,75.71
592.00,75.50
591.00,75.53
590.00,75.63
589.00,75.51
588.00,75.21
587.00,75.00
586.00,75.00
585.00,75.03
584.00,74.93
583.00,74.79
582.00,74.73
581.00,74.70
580.00,74.62
579.00,74.62
578.00,74.83
577.00,75.15
576.00,75.40
575.00,75.49
574.00,75.43
573.00,75.33
572.00,75.31
571.00,75.35
570.00,75.21
569.00,74.74
568.00,74.16
567.00,73.77
566.00,73.55
565.00,73.22
564.00,72.83
563.00,72.76
562.00,73.20
561.00,73.92
560.00,74.54
559.00,74.81
558.00,74.59
557.00,73.92
556.00,73.18
555.00,72.75
554.00,72.68
553.00,72.71
552.00,72.82
551.00,73.20
550.00,73.73
