Created as New Dataset,12.2 Red Icelandic sheep
cm-1,%T
4000.00,102.36
3999.00,102.38
3998.00,102.38
3997.00,102.37
3996.00,102.35
3995.00,102.34
3994.00,102.33
3993.00,102.32
3992.00,102.32
3991.00,102.32
3990.00,102.32
3989.00,102.32
3988.00,102.31
3987.00,102.31
3986.00,102.31
3985.00,102.33
3984.00,102.33
3983.00,102.33
3982.00,102.31
3981.00,102.30
3980.00,102.29
3979.00,102.30
3978.00,102.32
3977.00,102.33
3976.00,102.32
3975.00,102.30
3974.00,102.26
3973.00,102.24
3972.00,102.24
3971.00,102.25
3970.00,102.26
3969.00,102.27
3968.00,102.26
3967.00,102.25
3966.00,102.25
3965.00,102.25
3964.00,102.26
3963.00,102.27
3962.00,102.27
3961.00,102.27
3960.00,102.27
3959.00,102.27
3958.00,102.27
3957.00,102.27
3956.00,102.26
3955.00,102.25
3954.00,102.25
3953.00,102.27
3952.00,102.29
3951.00,102.31
3950.00,102.32
3949.00,102.32
3948.00,102.32
3947.00,102.30
3946.00,102.29
3945.00,102.28
3944.00,102.28
3943.00,102.29
3942.00,102.31
3941.00,102.32
3940.00,102.32
3939.00,102.33
3938.00,102.35
3937.00,102.36
3936.00,102.35
3935.00,102.32
3934.00,102.30
3933.00,102.28
3932.00,102.27
3931.00,102.26
3930.00,102.25
3929.00,102.24
3928.00,102.24
3927.00,102.24
3926.00,102.25
3925.00,102.26
3924.00,102.27
3923.00,102.26
3922.00,102.25
3921.00,102.24
3920.00,102.24
3919.00,102.22
3918.00,102.19
3917.00,102.17
3916.00,102.18
3915.00,102.20
3914.00,102.22
3913.00,102.24
3912.00,102.26
3911.00,102.28
3910.00,102.29
3909.00,102.27
3908.00,102.24
3907.00,102.19
3906.00,102.14
3905.00,102.10
3904.00,102.08
3903.00,102.07
3902.00,102.04
3901.00,102.01
3900.00,102.00
3899.00,102.02
3898.00,102.06
3897.00,102.10
3896.00,102.13
3895.00,102.17
3894.00,102.19
3893.00,102.18
3892.00,102.16
3891.00,102.15
3890.00,102.14
3889.00,102.10
3888.00,102.04
3887.00,102.02
3886.00,102.07
3885.00,102.12
3884.00,102.11
3883.00,102.04
3882.00,101.99
3881.00,102.00
3880.00,102.06
3879.00,102.12
3878.00,102.14
3877.00,102.13
3876.00,102.13
3875.00,102.17
3874.00,102.19
3873.00,102.15
3872.00,102.05
3871.00,101.99
3870.00,102.02
3869.00,102.06
3868.00,102.04
3867.00,101.97
3866.00,101.95
3865.00,102.00
3864.00,102.06
3863.00,102.10
3862.00,102.11
3861.00,102.13
3860.00,102.16
3859.00,102.17
3858.00,102.16
3857.00,102.12
3856.00,102.06
3855.00,102.04
3854.00,102.04
3853.00,102.04
3852.00,102.02
3851.00,101.98
3850.00,101.97
3849.00,102.00
3848.00,102.07
3847.00,102.12
3846.00,102.14
3845.00,102.13
3844.00,102.11
3843.00,102.08
3842.00,102.05
3841.00,102.01
3840.00,101.98
3839.00,101.97
3838.00,101.98
3837.00,101.98
3836.00,101.98
3835.00,101.96
3834.00,101.95
3833.00,101.97
3832.00,102.02
3831.00,102.07
3830.00,102.10
3829.00,102.09
3828.00,102.06
3827.00,102.06
3826.00,102.07
3825.00,102.05
3824.00,101.98
3823.00,101.91
3822.00,101.91
3821.00,101.97
3820.00,102.00
3819.00,101.96
3818.00,101.88
3817.00,101.87
3816.00,101.95
3815.00,102.05
3814.00,102.09
3813.00,102.10
3812.00,102.12
3811.00,102.16
3810.00,102.15
3809.00,102.09
3808.00,102.03
3807.00,102.03
3806.00,102.06
3805.00,102.04
3804.00,101.97
3803.00,101.92
3802.00,101.95
3801.00,102.01
3800.00,102.03
3799.00,102.00
3798.00,101.99
3797.00,102.02
3796.00,102.07
3795.00,102.09
3794.00,102.08
3793.00,102.08
3792.00,102.10
3791.00,102.14
3790.00,102.17
3789.00,102.18
3788.00,102.19
3787.00,102.18
3786.00,102.16
3785.00,102.15
3784.00,102.14
3783.00,102.12
3782.00,102.09
3781.00,102.07
3780.00,102.08
3779.00,102.09
3778.00,102.10
3777.00,102.09
3776.00,102.08
3775.00,102.11
3774.00,102.13
3773.00,102.12
3772.00,102.08
3771.00,102.05
3770.00,102.04
3769.00,102.04
3768.00,102.01
3767.00,101.98
3766.00,101.99
3765.00,102.04
3764.00,102.10
3763.00,102.11
3762.00,102.10
3761.00,102.09
3760.00,102.09
3759.00,102.06
3758.00,102.03
3757.00,102.02
3756.00,102.01
3755.00,101.98
3754.00,101.94
3753.00,101.91
3752.00,101.88
3751.00,101.81
3750.00,101.75
3749.00,101.74
3748.00,101.73
3747.00,101.68
3746.00,101.63
3745.00,101.69
3744.00,101.82
3743.00,101.89
3742.00,101.87
3741.00,101.86
3740.00,101.89
3739.00,101.94
3738.00,101.96
3737.00,101.92
3736.00,101.84
3735.00,101.74
3734.00,101.66
3733.00,101.66
3732.00,101.75
3731.00,101.88
3730.00,101.97
3729.00,102.00
3728.00,102.03
3727.00,102.07
3726.00,102.08
3725.00,102.05
3724.00,101.99
3723.00,101.95
3722.00,101.93
3721.00,101.93
3720.00,101.91
3719.00,101.88
3718.00,101.87
3717.00,101.86
3716.00,101.84
3715.00,101.83
3714.00,101.84
3713.00,101.87
3712.00,101.90
3711.00,101.87
3710.00,101.84
3709.00,101.83
3708.00,101.86
3707.00,101.91
3706.00,101.94
3705.00,101.94
3704.00,101.92
3703.00,101.89
3702.00,101.87
3701.00,101.87
3700.00,101.87
3699.00,101.87
3698.00,101.87
3697.00,101.89
3696.00,101.90
3695.00,101.88
3694.00,101.83
3693.00,101.78
3692.00,101.74
3691.00,101.68
3690.00,101.61
3689.00,101.57
3688.00,101.58
3687.00,101.61
3686.00,101.63
3685.00,101.64
3684.00,101.66
3683.00,101.69
3682.00,101.69
3681.00,101.67
3680.00,101.65
3679.00,101.59
3678.00,101.48
3677.00,101.37
3676.00,101.31
3675.00,101.30
3674.00,101.29
3673.00,101.22
3672.00,101.16
3671.00,101.18
3670.00,101.24
3669.00,101.27
3668.00,101.26
3667.00,101.25
3666.00,101.26
3665.00,101.28
3664.00,101.30
3663.00,101.30
3662.00,101.28
3661.00,101.25
3660.00,101.21
3659.00,101.14
3658.00,101.05
3657.00,101.00
3656.00,100.99
3655.00,100.96
3654.00,100.89
3653.00,100.77
3652.00,100.69
3651.00,100.67
3650.00,100.63
3649.00,100.55
3648.00,100.47
3647.00,100.45
3646.00,100.49
3645.00,100.54
3644.00,100.59
3643.00,100.63
3642.00,100.64
3641.00,100.61
3640.00,100.55
3639.00,100.49
3638.00,100.45
3637.00,100.41
3636.00,100.37
3635.00,100.33
3634.00,100.30
3633.00,100.24
3632.00,100.13
3631.00,99.99
3630.00,99.91
3629.00,99.89
3628.00,99.88
3627.00,99.84
3626.00,99.79
3625.00,99.77
3624.00,99.76
3623.00,99.76
3622.00,99.73
3621.00,99.68
3620.00,99.64
3619.00,99.60
3618.00,99.54
3617.00,99.47
3616.00,99.39
3615.00,99.32
3614.00,99.29
3613.00,99.25
3612.00,99.21
3611.00,99.14
3610.00,99.07
3609.00,99.02
3608.00,98.99
3607.00,98.97
3606.00,98.94
3605.00,98.91
3604.00,98.89
3603.00,98.86
3602.00,98.84
3601.00,98.82
3600.00,98.80
3599.00,98.78
3598.00,98.73
3597.00,98.67
3596.00,98.61
3595.00,98.56
3594.00,98.52
3593.00,98.48
3592.00,98.44
3591.00,98.38
3590.00,98.31
3589.00,98.25
3588.00,98.20
3587.00,98.15
3586.00,98.11
3585.00,98.06
3584.00,98.03
3583.00,98.01
3582.00,97.98
3581.00,97.94
3580.00,97.91
3579.00,97.87
3578.00,97.84
3577.00,97.80
3576.00,97.75
3575.00,97.68
3574.00,97.62
3573.00,97.58
3572.00,97.55
3571.00,97.51
3570.00,97.44
3569.00,97.36
3568.00,97.26
3567.00,97.18
3566.00,97.12
3565.00,97.08
3564.00,97.06
3563.00,97.06
3562.00,97.05
3561.00,97.03
3560.00,96.99
3559.00,96.93
3558.00,96.87
3557.00,96.80
3556.00,96.74
3555.00,96.69
3554.00,96.66
3553.00,96.62
3552.00,96.58
3551.00,96.52
3550.00,96.46
3549.00,96.40
3548.00,96.36
3547.00,96.33
3546.00,96.30
3545.00,96.26
3544.00,96.21
3543.00,96.15
3542.00,96.10
3541.00,96.03
3540.00,95.95
3539.00,95.87
3538.00,95.82
3537.00,95.80
3536.00,95.79
3535.00,95.76
3534.00,95.71
3533.00,95.64
3532.00,95.58
3531.00,95.54
3530.00,95.51
3529.00,95.47
3528.00,95.43
3527.00,95.38
3526.00,95.32
3525.00,95.26
3524.00,95.20
3523.00,95.14
3522.00,95.09
3521.00,95.03
3520.00,94.99
3519.00,94.95
3518.00,94.91
3517.00,94.89
3516.00,94.85
3515.00,94.81
3514.00,94.75
3513.00,94.70
3512.00,94.65
3511.00,94.61
3510.00,94.58
3509.00,94.55
3508.00,94.53
3507.00,94.51
3506.00,94.50
3505.00,94.47
3504.00,94.43
3503.00,94.37
3502.00,94.30
3501.00,94.24
3500.00,94.18
3499.00,94.14
3498.00,94.11
3497.00,94.08
3496.00,94.04
3495.00,93.98
3494.00,93.93
3493.00,93.87
3492.00,93.82
3491.00,93.77
3490.00,93.73
3489.00,93.70
3488.00,93.67
3487.00,93.64
3486.00,93.60
3485.00,93.56
3484.00,93.52
3483.00,93.46
3482.00,93.41
3481.00,93.36
3480.00,93.32
3479.00,93.30
3478.00,93.29
3477.00,93.28
3476.00,93.25
3475.00,93.22
3474.00,93.17
3473.00,93.12
3472.00,93.07
3471.00,93.01
3470.00,92.96
3469.00,92.91
3468.00,92.88
3467.00,92.85
3466.00,92.83
3465.00,92.80
3464.00,92.77
3463.00,92.74
3462.00,92.72
3461.00,92.70
3460.00,92.67
3459.00,92.63
3458.00,92.58
3457.00,92.54
3456.00,92.50
3455.00,92.46
3454.00,92.42
3453.00,92.36
3452.00,92.31
3451.00,92.27
3450.00,92.23
3449.00,92.19
3448.00,92.16
3447.00,92.14
3446.00,92.11
3445.00,92.07
3444.00,92.03
3443.00,91.99
3442.00,91.95
3441.00,91.93
3440.00,91.92
3439.00,91.92
3438.00,91.90
3437.00,91.87
3436.00,91.82
3435.00,91.76
3434.00,91.70
3433.00,91.64
3432.00,91.58
3431.00,91.54
3430.00,91.51
3429.00,91.49
3428.00,91.47
3427.00,91.44
3426.00,91.40
3425.00,91.36
3424.00,91.34
3423.00,91.32
3422.00,91.32
3421.00,91.31
3420.00,91.29
3419.00,91.26
3418.00,91.20
3417.00,91.14
3416.00,91.08
3415.00,91.04
3414.00,91.02
3413.00,91.01
3412.00,91.00
3411.00,90.98
3410.00,90.95
3409.00,90.91
3408.00,90.86
3407.00,90.82
3406.00,90.78
3405.00,90.76
3404.00,90.74
3403.00,90.73
3402.00,90.70
3401.00,90.68
3400.00,90.65
3399.00,90.62
3398.00,90.59
3397.00,90.54
3396.00,90.48
3395.00,90.42
3394.00,90.38
3393.00,90.37
3392.00,90.37
3391.00,90.38
3390.00,90.38
3389.00,90.36
3388.00,90.33
3387.00,90.30
3386.00,90.27
3385.00,90.26
3384.00,90.24
3383.00,90.22
3382.00,90.20
3381.00,90.18
3380.00,90.14
3379.00,90.10
3378.00,90.06
3377.00,90.02
3376.00,90.00
3375.00,89.99
3374.00,89.98
3373.00,89.98
3372.00,89.97
3371.00,89.95
3370.00,89.93
3369.00,89.89
3368.00,89.86
3367.00,89.82
3366.00,89.78
3365.00,89.75
3364.00,89.71
3363.00,89.66
3362.00,89.62
3361.00,89.58
3360.00,89.56
3359.00,89.54
3358.00,89.53
3357.00,89.52
3356.00,89.50
3355.00,89.48
3354.00,89.46
3353.00,89.44
3352.00,89.40
3351.00,89.36
3350.00,89.33
3349.00,89.29
3348.00,89.27
3347.00,89.25
3346.00,89.24
3345.00,89.23
3344.00,89.22
3343.00,89.21
3342.00,89.19
3341.00,89.17
3340.00,89.15
3339.00,89.13
3338.00,89.10
3337.00,89.06
3336.00,89.01
3335.00,88.97
3334.00,88.93
3333.00,88.90
3332.00,88.87
3331.00,88.85
3330.00,88.84
3329.00,88.83
3328.00,88.82
3327.00,88.80
3326.00,88.77
3325.00,88.74
3324.00,88.71
3323.00,88.68
3322.00,88.65
3321.00,88.61
3320.00,88.57
3319.00,88.54
3318.00,88.51
3317.00,88.49
3316.00,88.46
3315.00,88.43
3314.00,88.40
3313.00,88.36
3312.00,88.33
3311.00,88.30
3310.00,88.27
3309.00,88.24
3308.00,88.21
3307.00,88.20
3306.00,88.19
3305.00,88.17
3304.00,88.15
3303.00,88.11
3302.00,88.07
3301.00,88.03
3300.00,87.99
3299.00,87.96
3298.00,87.93
3297.00,87.90
3296.00,87.89
3295.00,87.87
3294.00,87.86
3293.00,87.85
3292.00,87.84
3291.00,87.82
3290.00,87.80
3289.00,87.78
3288.00,87.75
3287.00,87.73
3286.00,87.71
3285.00,87.69
3284.00,87.66
3283.00,87.64
3282.00,87.63
3281.00,87.63
3280.00,87.62
3279.00,87.63
3278.00,87.64
3277.00,87.66
3276.00,87.66
3275.00,87.65
3274.00,87.64
3273.00,87.64
3272.00,87.65
3271.00,87.66
3270.00,87.67
3269.00,87.68
3268.00,87.71
3267.00,87.74
3266.00,87.76
3265.00,87.78
3264.00,87.79
3263.00,87.79
3262.00,87.80
3261.00,87.82
3260.00,87.86
3259.00,87.90
3258.00,87.94
3257.00,87.98
3256.00,88.03
3255.00,88.09
3254.00,88.14
3253.00,88.16
3252.00,88.17
3251.00,88.19
3250.00,88.23
3249.00,88.28
3248.00,88.32
3247.00,88.36
3246.00,88.38
3245.00,88.42
3244.00,88.47
3243.00,88.52
3242.00,88.57
3241.00,88.60
3240.00,88.62
3239.00,88.64
3238.00,88.66
3237.00,88.70
3236.00,88.73
3235.00,88.76
3234.00,88.79
3233.00,88.80
3232.00,88.82
3231.00,88.85
3230.00,88.90
3229.00,88.94
3228.00,88.98
3227.00,89.01
3226.00,89.04
3225.00,89.06
3224.00,89.08
3223.00,89.10
3222.00,89.13
3221.00,89.16
3220.00,89.19
3219.00,89.22
3218.00,89.25
3217.00,89.28
3216.00,89.31
3215.00,89.35
3214.00,89.39
3213.00,89.43
3212.00,89.47
3211.00,89.51
3210.00,89.53
3209.00,89.55
3208.00,89.57
3207.00,89.58
3206.00,89.59
3205.00,89.60
3204.00,89.64
3203.00,89.69
3202.00,89.75
3201.00,89.79
3200.00,89.83
3199.00,89.87
3198.00,89.91
3197.00,89.95
3196.00,89.99
3195.00,90.03
3194.00,90.06
3193.00,90.09
3192.00,90.12
3191.00,90.16
3190.00,90.20
3189.00,90.24
3188.00,90.28
3187.00,90.31
3186.00,90.34
3185.00,90.38
3184.00,90.43
3183.00,90.49
3182.00,90.57
3181.00,90.64
3180.00,90.72
3179.00,90.78
3178.00,90.82
3177.00,90.85
3176.00,90.88
3175.00,90.90
3174.00,90.94
3173.00,90.99
3172.00,91.03
3171.00,91.08
3170.00,91.12
3169.00,91.16
3168.00,91.21
3167.00,91.26
3166.00,91.32
3165.00,91.39
3164.00,91.46
3163.00,91.52
3162.00,91.56
3161.00,91.60
3160.00,91.64
3159.00,91.68
3158.00,91.73
3157.00,91.79
3156.00,91.84
3155.00,91.89
3154.00,91.94
3153.00,91.99
3152.00,92.02
3151.00,92.05
3150.00,92.07
3149.00,92.10
3148.00,92.14
3147.00,92.19
3146.00,92.24
3145.00,92.29
3144.00,92.35
3143.00,92.41
3142.00,92.46
3141.00,92.50
3140.00,92.55
3139.00,92.59
3138.00,92.64
3137.00,92.69
3136.00,92.72
3135.00,92.74
3134.00,92.76
3133.00,92.78
3132.00,92.82
3131.00,92.86
3130.00,92.90
3129.00,92.94
3128.00,92.98
3127.00,93.01
3126.00,93.04
3125.00,93.06
3124.00,93.08
3123.00,93.12
3122.00,93.17
3121.00,93.21
3120.00,93.25
3119.00,93.28
3118.00,93.31
3117.00,93.33
3116.00,93.34
3115.00,93.35
3114.00,93.35
3113.00,93.35
3112.00,93.36
3111.00,93.38
3110.00,93.41
3109.00,93.43
3108.00,93.45
3107.00,93.46
3106.00,93.47
3105.00,93.48
3104.00,93.49
3103.00,93.52
3102.00,93.54
3101.00,93.56
3100.00,93.58
3099.00,93.58
3098.00,93.57
3097.00,93.56
3096.00,93.56
3095.00,93.58
3094.00,93.60
3093.00,93.63
3092.00,93.64
3091.00,93.64
3090.00,93.63
3089.00,93.61
3088.00,93.60
3087.00,93.60
3086.00,93.60
3085.00,93.60
3084.00,93.61
3083.00,93.62
3082.00,93.64
3081.00,93.65
3080.00,93.65
3079.00,93.65
3078.00,93.65
3077.00,93.65
3076.00,93.64
3075.00,93.64
3074.00,93.64
3073.00,93.64
3072.00,93.65
3071.00,93.67
3070.00,93.69
3069.00,93.71
3068.00,93.72
3067.00,93.73
3066.00,93.73
3065.00,93.75
3064.00,93.78
3063.00,93.81
3062.00,93.82
3061.00,93.83
3060.00,93.85
3059.00,93.88
3058.00,93.92
3057.00,93.96
3056.00,94.00
3055.00,94.03
3054.00,94.05
3053.00,94.07
3052.00,94.10
3051.00,94.12
3050.00,94.16
3049.00,94.21
3048.00,94.25
3047.00,94.29
3046.00,94.32
3045.00,94.36
3044.00,94.40
3043.00,94.43
3042.00,94.45
3041.00,94.47
3040.00,94.51
3039.00,94.55
3038.00,94.60
3037.00,94.65
3036.00,94.70
3035.00,94.74
3034.00,94.78
3033.00,94.80
3032.00,94.82
3031.00,94.84
3030.00,94.87
3029.00,94.90
3028.00,94.94
3027.00,94.98
3026.00,95.02
3025.00,95.05
3024.00,95.06
3023.00,95.08
3022.00,95.11
3021.00,95.15
3020.00,95.20
3019.00,95.25
3018.00,95.29
3017.00,95.32
3016.00,95.34
3015.00,95.35
3014.00,95.37
3013.00,95.39
3012.00,95.42
3011.00,95.46
3010.00,95.48
3009.00,95.50
3008.00,95.52
3007.00,95.53
3006.00,95.55
3005.00,95.56
3004.00,95.57
3003.00,95.57
3002.00,95.56
3001.00,95.56
3000.00,95.56
2999.00,95.56
2998.00,95.56
2997.00,95.55
2996.00,95.54
2995.00,95.52
2994.00,95.49
2993.00,95.46
2992.00,95.43
2991.00,95.39
2990.00,95.35
2989.00,95.31
2988.00,95.27
2987.00,95.24
2986.00,95.19
2985.00,95.13
2984.00,95.07
2983.00,95.01
2982.00,94.95
2981.00,94.88
2980.00,94.81
2979.00,94.73
2978.00,94.66
2977.00,94.59
2976.00,94.52
2975.00,94.45
2974.00,94.37
2973.00,94.28
2972.00,94.19
2971.00,94.09
2970.00,94.00
2969.00,93.92
2968.00,93.84
2967.00,93.76
2966.00,93.68
2965.00,93.60
2964.00,93.52
2963.00,93.45
2962.00,93.39
2961.00,93.33
2960.00,93.28
2959.00,93.24
2958.00,93.21
2957.00,93.19
2956.00,93.20
2955.00,93.22
2954.00,93.25
2953.00,93.28
2952.00,93.32
2951.00,93.36
2950.00,93.41
2949.00,93.45
2948.00,93.47
2947.00,93.46
2946.00,93.42
2945.00,93.37
2944.00,93.31
2943.00,93.24
2942.00,93.15
2941.00,93.06
2940.00,92.94
2939.00,92.82
2938.00,92.68
2937.00,92.54
2936.00,92.41
2935.00,92.26
2934.00,92.11
2933.00,91.96
2932.00,91.82
2931.00,91.68
2930.00,91.53
2929.00,91.38
2928.00,91.23
2927.00,91.09
2926.00,90.95
2925.00,90.82
2924.00,90.68
2923.00,90.53
2922.00,90.39
2921.00,90.25
2920.00,90.13
2919.00,90.04
2918.00,90.03
2917.00,90.11
2916.00,90.32
2915.00,90.64
2914.00,91.05
2913.00,91.48
2912.00,91.90
2911.00,92.29
2910.00,92.61
2909.00,92.89
2908.00,93.12
2907.00,93.31
2906.00,93.47
2905.00,93.60
2904.00,93.71
2903.00,93.82
2902.00,93.94
2901.00,94.05
2900.00,94.17
2899.00,94.27
2898.00,94.37
2897.00,94.46
2896.00,94.54
2895.00,94.62
2894.00,94.69
2893.00,94.77
2892.00,94.84
2891.00,94.90
2890.00,94.97
2889.00,95.04
2888.00,95.10
2887.00,95.15
2886.00,95.20
2885.00,95.24
2884.00,95.27
2883.00,95.29
2882.00,95.30
2881.00,95.31
2880.00,95.32
2879.00,95.32
2878.00,95.34
2877.00,95.34
2876.00,95.33
2875.00,95.30
2874.00,95.28
2873.00,95.26
2872.00,95.27
2871.00,95.29
2870.00,95.33
2869.00,95.37
2868.00,95.40
2867.00,95.44
2866.00,95.46
2865.00,95.46
2864.00,95.46
2863.00,95.43
2862.00,95.40
2861.00,95.33
2860.00,95.23
2859.00,95.10
2858.00,94.95
2857.00,94.78
2856.00,94.59
2855.00,94.40
2854.00,94.19
2853.00,93.98
2852.00,93.80
2851.00,93.67
2850.00,93.65
2849.00,93.77
2848.00,94.03
2847.00,94.40
2846.00,94.81
2845.00,95.23
2844.00,95.60
2843.00,95.93
2842.00,96.21
2841.00,96.45
2840.00,96.65
2839.00,96.81
2838.00,96.94
2837.00,97.04
2836.00,97.13
2835.00,97.20
2834.00,97.28
2833.00,97.34
2832.00,97.40
2831.00,97.44
2830.00,97.48
2829.00,97.52
2828.00,97.56
2827.00,97.62
2826.00,97.67
2825.00,97.72
2824.00,97.76
2823.00,97.79
2822.00,97.81
2821.00,97.83
2820.00,97.84
2819.00,97.86
2818.00,97.88
2817.00,97.90
2816.00,97.92
2815.00,97.95
2814.00,97.98
2813.00,98.01
2812.00,98.04
2811.00,98.06
2810.00,98.09
2809.00,98.12
2808.00,98.16
2807.00,98.18
2806.00,98.20
2805.00,98.21
2804.00,98.22
2803.00,98.23
2802.00,98.23
2801.00,98.23
2800.00,98.23
2799.00,98.25
2798.00,98.27
2797.00,98.29
2796.00,98.31
2795.00,98.33
2794.00,98.36
2793.00,98.40
2792.00,98.44
2791.00,98.47
2790.00,98.48
2789.00,98.48
2788.00,98.48
2787.00,98.49
2786.00,98.51
2785.00,98.53
2784.00,98.56
2783.00,98.58
2782.00,98.59
2781.00,98.60
2780.00,98.61
2779.00,98.62
2778.00,98.64
2777.00,98.66
2776.00,98.67
2775.00,98.69
2774.00,98.72
2773.00,98.74
2772.00,98.76
2771.00,98.77
2770.00,98.79
2769.00,98.80
2768.00,98.83
2767.00,98.85
2766.00,98.87
2765.00,98.88
2764.00,98.89
2763.00,98.90
2762.00,98.91
2761.00,98.92
2760.00,98.93
2759.00,98.93
2758.00,98.94
2757.00,98.94
2756.00,98.95
2755.00,98.96
2754.00,98.97
2753.00,98.99
2752.00,99.01
2751.00,99.03
2750.00,99.05
2749.00,99.07
2748.00,99.09
2747.00,99.10
2746.00,99.10
2745.00,99.11
2744.00,99.11
2743.00,99.12
2742.00,99.12
2741.00,99.12
2740.00,99.13
2739.00,99.14
2738.00,99.14
2737.00,99.15
2736.00,99.15
2735.00,99.16
2734.00,99.16
2733.00,99.16
2732.00,99.17
2731.00,99.18
2730.00,99.20
2729.00,99.23
2728.00,99.24
2727.00,99.26
2726.00,99.26
2725.00,99.27
2724.00,99.27
2723.00,99.28
2722.00,99.28
2721.00,99.28
2720.00,99.29
2719.00,99.30
2718.00,99.32
2717.00,99.33
2716.00,99.34
2715.00,99.34
2714.00,99.35
2713.00,99.36
2712.00,99.37
2711.00,99.38
2710.00,99.38
2709.00,99.39
2708.00,99.39
2707.00,99.40
2706.00,99.40
2705.00,99.40
2704.00,99.40
2703.00,99.42
2702.00,99.44
2701.00,99.47
2700.00,99.49
2699.00,99.51
2698.00,99.52
2697.00,99.54
2696.00,99.55
2695.00,99.55
2694.00,99.56
2693.00,99.58
2692.00,99.59
2691.00,99.59
2690.00,99.58
2689.00,99.56
2688.00,99.55
2687.00,99.56
2686.00,99.57
2685.00,99.58
2684.00,99.60
2683.00,99.62
2682.00,99.63
2681.00,99.64
2680.00,99.64
2679.00,99.63
2678.00,99.63
2677.00,99.62
2676.00,99.63
2675.00,99.64
2674.00,99.66
2673.00,99.66
2672.00,99.65
2671.00,99.65
2670.00,99.64
2669.00,99.65
2668.00,99.66
2667.00,99.67
2666.00,99.67
2665.00,99.67
2664.00,99.67
2663.00,99.68
2662.00,99.68
2661.00,99.68
2660.00,99.68
2659.00,99.68
2658.00,99.67
2657.00,99.67
2656.00,99.67
2655.00,99.67
2654.00,99.67
2653.00,99.69
2652.00,99.71
2651.00,99.72
2650.00,99.73
2649.00,99.72
2648.00,99.72
2647.00,99.71
2646.00,99.70
2645.00,99.70
2644.00,99.69
2643.00,99.69
2642.00,99.69
2641.00,99.70
2640.00,99.70
2639.00,99.70
2638.00,99.71
2637.00,99.71
2636.00,99.72
2635.00,99.73
2634.00,99.73
2633.00,99.72
2632.00,99.70
2631.00,99.70
2630.00,99.70
2629.00,99.71
2628.00,99.71
2627.00,99.71
2626.00,99.70
2625.00,99.69
2624.00,99.69
2623.00,99.70
2622.00,99.72
2621.00,99.74
2620.00,99.75
2619.00,99.75
2618.00,99.75
2617.00,99.74
2616.00,99.74
2615.00,99.75
2614.00,99.77
2613.00,99.80
2612.00,99.83
2611.00,99.84
2610.00,99.83
2609.00,99.82
2608.00,99.79
2607.00,99.78
2606.00,99.77
2605.00,99.78
2604.00,99.80
2603.00,99.83
2602.00,99.84
2601.00,99.83
2600.00,99.80
2599.00,99.79
2598.00,99.79
2597.00,99.80
2596.00,99.80
2595.00,99.81
2594.00,99.83
2593.00,99.84
2592.00,99.87
2591.00,99.89
2590.00,99.91
2589.00,99.92
2588.00,99.92
2587.00,99.91
2586.00,99.91
2585.00,99.90
2584.00,99.89
2583.00,99.90
2582.00,99.90
2581.00,99.90
2580.00,99.90
2579.00,99.89
2578.00,99.88
2577.00,99.87
2576.00,99.88
2575.00,99.91
2574.00,99.93
2573.00,99.96
2572.00,99.97
2571.00,99.96
2570.00,99.94
2569.00,99.92
2568.00,99.91
2567.00,99.92
2566.00,99.95
2565.00,99.97
2564.00,99.96
2563.00,99.96
2562.00,99.95
2561.00,99.95
2560.00,99.96
2559.00,99.95
2558.00,99.95
2557.00,99.95
2556.00,99.95
2555.00,99.95
2554.00,99.95
2553.00,99.94
2552.00,99.93
2551.00,99.93
2550.00,99.92
2549.00,99.93
2548.00,99.93
2547.00,99.93
2546.00,99.93
2545.00,99.93
2544.00,99.93
2543.00,99.93
2542.00,99.94
2541.00,99.94
2540.00,99.94
2539.00,99.94
2538.00,99.94
2537.00,99.93
2536.00,99.94
2535.00,99.95
2534.00,99.96
2533.00,99.98
2532.00,99.99
2531.00,99.99
2530.00,99.98
2529.00,99.97
2528.00,99.97
2527.00,99.98
2526.00,100.00
2525.00,100.00
2524.00,100.01
2523.00,100.02
2522.00,100.04
2521.00,100.08
2520.00,100.09
2519.00,100.08
2518.00,100.05
2517.00,100.02
2516.00,100.00
2515.00,100.00
2514.00,100.00
2513.00,99.99
2512.00,99.97
2511.00,99.95
2510.00,99.96
2509.00,99.98
2508.00,100.01
2507.00,100.03
2506.00,100.02
2505.00,100.00
2504.00,99.98
2503.00,99.98
2502.00,99.99
2501.00,100.01
2500.00,100.03
2499.00,100.04
2498.00,100.04
2497.00,100.03
2496.00,100.03
2495.00,100.04
2494.00,100.06
2493.00,100.06
2492.00,100.05
2491.00,100.04
2490.00,100.04
2489.00,100.06
2488.00,100.09
2487.00,100.11
2486.00,100.12
2485.00,100.10
2484.00,100.08
2483.00,100.06
2482.00,100.05
2481.00,100.04
2480.00,100.04
2479.00,100.05
2478.00,100.06
2477.00,100.07
2476.00,100.06
2475.00,100.04
2474.00,100.03
2473.00,100.03
2472.00,100.05
2471.00,100.07
2470.00,100.08
2469.00,100.08
2468.00,100.06
2467.00,100.04
2466.00,100.02
2465.00,100.01
2464.00,100.01
2463.00,100.01
2462.00,100.02
2461.00,100.04
2460.00,100.05
2459.00,100.06
2458.00,100.08
2457.00,100.10
2456.00,100.12
2455.00,100.14
2454.00,100.13
2453.00,100.09
2452.00,100.05
2451.00,100.03
2450.00,100.04
2449.00,100.07
2448.00,100.11
2447.00,100.13
2446.00,100.13
2445.00,100.13
2444.00,100.13
2443.00,100.13
2442.00,100.14
2441.00,100.13
2440.00,100.11
2439.00,100.08
2438.00,100.07
2437.00,100.06
2436.00,100.07
2435.00,100.09
2434.00,100.11
2433.00,100.12
2432.00,100.14
2431.00,100.14
2430.00,100.14
2429.00,100.12
2428.00,100.10
2427.00,100.10
2426.00,100.10
2425.00,100.10
2424.00,100.11
2423.00,100.12
2422.00,100.13
2421.00,100.12
2420.00,100.12
2419.00,100.11
2418.00,100.11
2417.00,100.11
2416.00,100.12
2415.00,100.13
2414.00,100.14
2413.00,100.14
2412.00,100.15
2411.00,100.15
2410.00,100.15
2409.00,100.15
2408.00,100.14
2407.00,100.14
2406.00,100.13
2405.00,100.14
2404.00,100.15
2403.00,100.15
2402.00,100.15
2401.00,100.14
2400.00,100.13
2399.00,100.13
2398.00,100.13
2397.00,100.14
2396.00,100.14
2395.00,100.15
2394.00,100.16
2393.00,100.16
2392.00,100.17
2391.00,100.17
2390.00,100.18
2389.00,100.20
2388.00,100.22
2387.00,100.25
2386.00,100.28
2385.00,100.29
2384.00,100.30
2383.00,100.31
2382.00,100.35
2381.00,100.39
2380.00,100.43
2379.00,100.45
2378.00,100.44
2377.00,100.41
2376.00,100.40
2375.00,100.39
2374.00,100.38
2373.00,100.36
2372.00,100.34
2371.00,100.33
2370.00,100.34
2369.00,100.38
2368.00,100.44
2367.00,100.52
2366.00,100.57
2365.00,100.56
2364.00,100.48
2363.00,100.38
2362.00,100.28
2361.00,100.19
2360.00,100.15
2359.00,100.16
2358.00,100.22
2357.00,100.27
2356.00,100.30
2355.00,100.32
2354.00,100.34
2353.00,100.33
2352.00,100.30
2351.00,100.28
2350.00,100.31
2349.00,100.41
2348.00,100.56
2347.00,100.71
2346.00,100.78
2345.00,100.72
2344.00,100.61
2343.00,100.52
2342.00,100.47
2341.00,100.41
2340.00,100.36
2339.00,100.32
2338.00,100.29
2337.00,100.27
2336.00,100.23
2335.00,100.20
2334.00,100.18
2333.00,100.16
2332.00,100.12
2331.00,100.06
2330.00,99.97
2329.00,99.91
2328.00,99.88
2327.00,99.90
2326.00,99.93
2325.00,99.94
2324.00,99.94
2323.00,99.93
2322.00,99.91
2321.00,99.91
2320.00,99.93
2319.00,99.95
2318.00,99.98
2317.00,99.99
2316.00,100.00
2315.00,100.01
2314.00,100.02
2313.00,100.02
2312.00,100.02
2311.00,100.02
2310.00,100.01
2309.00,99.98
2308.00,99.95
2307.00,99.93
2306.00,99.93
2305.00,99.94
2304.00,99.95
2303.00,99.96
2302.00,99.96
2301.00,99.94
2300.00,99.94
2299.00,99.95
2298.00,99.96
2297.00,99.97
2296.00,99.96
2295.00,99.94
2294.00,99.92
2293.00,99.91
2292.00,99.92
2291.00,99.93
2290.00,99.92
2289.00,99.90
2288.00,99.87
2287.00,99.85
2286.00,99.85
2285.00,99.86
2284.00,99.87
2283.00,99.89
2282.00,99.90
2281.00,99.92
2280.00,99.92
2279.00,99.91
2278.00,99.87
2277.00,99.83
2276.00,99.80
2275.00,99.80
2274.00,99.82
2273.00,99.83
2272.00,99.83
2271.00,99.81
2270.00,99.79
2269.00,99.76
2268.00,99.75
2267.00,99.75
2266.00,99.75
2265.00,99.74
2264.00,99.75
2263.00,99.77
2262.00,99.79
2261.00,99.79
2260.00,99.76
2259.00,99.72
2258.00,99.68
2257.00,99.66
2256.00,99.68
2255.00,99.71
2254.00,99.75
2253.00,99.75
2252.00,99.74
2251.00,99.75
2250.00,99.79
2249.00,99.82
2248.00,99.84
2247.00,99.83
2246.00,99.82
2245.00,99.80
2244.00,99.77
2243.00,99.74
2242.00,99.69
2241.00,99.64
2240.00,99.62
2239.00,99.61
2238.00,99.62
2237.00,99.62
2236.00,99.62
2235.00,99.63
2234.00,99.64
2233.00,99.64
2232.00,99.63
2231.00,99.60
2230.00,99.56
2229.00,99.53
2228.00,99.53
2227.00,99.57
2226.00,99.61
2225.00,99.62
2224.00,99.61
2223.00,99.61
2222.00,99.63
2221.00,99.64
2220.00,99.62
2219.00,99.60
2218.00,99.59
2217.00,99.60
2216.00,99.62
2215.00,99.62
2214.00,99.63
2213.00,99.63
2212.00,99.63
2211.00,99.62
2210.00,99.63
2209.00,99.65
2208.00,99.67
2207.00,99.68
2206.00,99.65
2205.00,99.60
2204.00,99.56
2203.00,99.53
2202.00,99.49
2201.00,99.41
2200.00,99.29
2199.00,99.19
2198.00,99.15
2197.00,99.17
2196.00,99.24
2195.00,99.32
2194.00,99.38
2193.00,99.41
2192.00,99.42
2191.00,99.42
2190.00,99.42
2189.00,99.42
2188.00,99.44
2187.00,99.45
2186.00,99.42
2185.00,99.35
2184.00,99.27
2183.00,99.23
2182.00,99.27
2181.00,99.34
2180.00,99.40
2179.00,99.40
2178.00,99.35
2177.00,99.30
2176.00,99.27
2175.00,99.28
2174.00,99.29
2173.00,99.29
2172.00,99.27
2171.00,99.24
2170.00,99.20
2169.00,99.18
2168.00,99.19
2167.00,99.23
2166.00,99.26
2165.00,99.26
2164.00,99.24
2163.00,99.25
2162.00,99.28
2161.00,99.33
2160.00,99.39
2159.00,99.44
2158.00,99.48
2157.00,99.52
2156.00,99.57
2155.00,99.61
2154.00,99.62
2153.00,99.59
2152.00,99.55
2151.00,99.52
2150.00,99.49
2149.00,99.45
2148.00,99.43
2147.00,99.42
2146.00,99.42
2145.00,99.43
2144.00,99.44
2143.00,99.46
2142.00,99.49
2141.00,99.51
2140.00,99.51
2139.00,99.50
2138.00,99.51
2137.00,99.53
2136.00,99.56
2135.00,99.56
2134.00,99.56
2133.00,99.56
2132.00,99.60
2131.00,99.66
2130.00,99.70
2129.00,99.71
2128.00,99.69
2127.00,99.67
2126.00,99.65
2125.00,99.62
2124.00,99.60
2123.00,99.60
2122.00,99.59
2121.00,99.58
2120.00,99.55
2119.00,99.52
2118.00,99.50
2117.00,99.49
2116.00,99.49
2115.00,99.50
2114.00,99.51
2113.00,99.52
2112.00,99.54
2111.00,99.57
2110.00,99.58
2109.00,99.57
2108.00,99.56
2107.00,99.56
2106.00,99.58
2105.00,99.60
2104.00,99.59
2103.00,99.58
2102.00,99.56
2101.00,99.55
2100.00,99.55
2099.00,99.57
2098.00,99.58
2097.00,99.58
2096.00,99.56
2095.00,99.55
2094.00,99.57
2093.00,99.59
2092.00,99.61
2091.00,99.62
2090.00,99.61
2089.00,99.61
2088.00,99.62
2087.00,99.63
2086.00,99.65
2085.00,99.63
2084.00,99.61
2083.00,99.60
2082.00,99.61
2081.00,99.60
2080.00,99.59
2079.00,99.58
2078.00,99.58
2077.00,99.60
2076.00,99.61
2075.00,99.62
2074.00,99.61
2073.00,99.59
2072.00,99.56
2071.00,99.55
2070.00,99.54
2069.00,99.55
2068.00,99.55
2067.00,99.56
2066.00,99.56
2065.00,99.54
2064.00,99.52
2063.00,99.50
2062.00,99.49
2061.00,99.48
2060.00,99.49
2059.00,99.53
2058.00,99.57
2057.00,99.59
2056.00,99.58
2055.00,99.57
2054.00,99.57
2053.00,99.58
2052.00,99.58
2051.00,99.57
2050.00,99.55
2049.00,99.51
2048.00,99.47
2047.00,99.46
2046.00,99.49
2045.00,99.52
2044.00,99.54
2043.00,99.53
2042.00,99.49
2041.00,99.43
2040.00,99.38
2039.00,99.39
2038.00,99.45
2037.00,99.54
2036.00,99.61
2035.00,99.63
2034.00,99.60
2033.00,99.55
2032.00,99.54
2031.00,99.55
2030.00,99.55
2029.00,99.49
2028.00,99.41
2027.00,99.38
2026.00,99.42
2025.00,99.49
2024.00,99.55
2023.00,99.59
2022.00,99.63
2021.00,99.68
2020.00,99.70
2019.00,99.68
2018.00,99.59
2017.00,99.47
2016.00,99.37
2015.00,99.33
2014.00,99.35
2013.00,99.41
2012.00,99.47
2011.00,99.49
2010.00,99.46
2009.00,99.40
2008.00,99.36
2007.00,99.38
2006.00,99.41
2005.00,99.44
2004.00,99.46
2003.00,99.48
2002.00,99.48
2001.00,99.45
2000.00,99.43
1999.00,99.45
1998.00,99.51
1997.00,99.57
1996.00,99.59
1995.00,99.61
1994.00,99.62
1993.00,99.63
1992.00,99.65
1991.00,99.65
1990.00,99.62
1989.00,99.58
1988.00,99.57
1987.00,99.59
1986.00,99.62
1985.00,99.60
1984.00,99.54
1983.00,99.46
1982.00,99.38
1981.00,99.31
1980.00,99.29
1979.00,99.35
1978.00,99.48
1977.00,99.59
1976.00,99.65
1975.00,99.64
1974.00,99.58
1973.00,99.53
1972.00,99.54
1971.00,99.61
1970.00,99.66
1969.00,99.64
1968.00,99.58
1967.00,99.56
1966.00,99.61
1965.00,99.69
1964.00,99.73
1963.00,99.71
1962.00,99.67
1961.00,99.63
1960.00,99.65
1959.00,99.72
1958.00,99.77
1957.00,99.78
1956.00,99.76
1955.00,99.74
1954.00,99.70
1953.00,99.67
1952.00,99.66
1951.00,99.69
1950.00,99.73
1949.00,99.76
1948.00,99.75
1947.00,99.72
1946.00,99.68
1945.00,99.64
1944.00,99.64
1943.00,99.68
1942.00,99.74
1941.00,99.78
1940.00,99.79
1939.00,99.80
1938.00,99.80
1937.00,99.77
1936.00,99.74
1935.00,99.74
1934.00,99.77
1933.00,99.79
1932.00,99.81
1931.00,99.82
1930.00,99.83
1929.00,99.82
1928.00,99.82
1927.00,99.82
1926.00,99.83
1925.00,99.83
1924.00,99.80
1923.00,99.79
1922.00,99.79
1921.00,99.81
1920.00,99.83
1919.00,99.86
1918.00,99.87
1917.00,99.84
1916.00,99.80
1915.00,99.77
1914.00,99.77
1913.00,99.77
1912.00,99.78
1911.00,99.79
1910.00,99.80
1909.00,99.81
1908.00,99.82
1907.00,99.86
1906.00,99.89
1905.00,99.91
1904.00,99.90
1903.00,99.89
1902.00,99.88
1901.00,99.87
1900.00,99.86
1899.00,99.87
1898.00,99.87
1897.00,99.85
1896.00,99.83
1895.00,99.83
1894.00,99.84
1893.00,99.85
1892.00,99.86
1891.00,99.87
1890.00,99.87
1889.00,99.86
1888.00,99.84
1887.00,99.82
1886.00,99.83
1885.00,99.87
1884.00,99.92
1883.00,99.97
1882.00,99.99
1881.00,99.97
1880.00,99.94
1879.00,99.92
1878.00,99.91
1877.00,99.90
1876.00,99.88
1875.00,99.88
1874.00,99.89
1873.00,99.91
1872.00,99.93
1871.00,99.96
1870.00,99.99
1869.00,99.98
1868.00,99.94
1867.00,99.90
1866.00,99.87
1865.00,99.87
1864.00,99.87
1863.00,99.88
1862.00,99.88
1861.00,99.87
1860.00,99.87
1859.00,99.87
1858.00,99.87
1857.00,99.88
1856.00,99.87
1855.00,99.86
1854.00,99.84
1853.00,99.82
1852.00,99.81
1851.00,99.82
1850.00,99.83
1849.00,99.85
1848.00,99.85
1847.00,99.85
1846.00,99.85
1845.00,99.86
1844.00,99.86
1843.00,99.87
1842.00,99.88
1841.00,99.87
1840.00,99.86
1839.00,99.85
1838.00,99.85
1837.00,99.85
1836.00,99.85
1835.00,99.87
1834.00,99.89
1833.00,99.90
1832.00,99.90
1831.00,99.90
1830.00,99.90
1829.00,99.90
1828.00,99.90
1827.00,99.91
1826.00,99.91
1825.00,99.90
1824.00,99.87
1823.00,99.84
1822.00,99.83
1821.00,99.83
1820.00,99.83
1819.00,99.83
1818.00,99.83
1817.00,99.81
1816.00,99.80
1815.00,99.80
1814.00,99.83
1813.00,99.85
1812.00,99.87
1811.00,99.88
1810.00,99.88
1809.00,99.87
1808.00,99.84
1807.00,99.83
1806.00,99.82
1805.00,99.82
1804.00,99.82
1803.00,99.83
1802.00,99.84
1801.00,99.83
1800.00,99.82
1799.00,99.81
1798.00,99.82
1797.00,99.82
1796.00,99.81
1795.00,99.80
1794.00,99.78
1793.00,99.77
1792.00,99.75
1791.00,99.73
1790.00,99.72
1789.00,99.71
1788.00,99.69
1787.00,99.68
1786.00,99.67
1785.00,99.66
1784.00,99.65
1783.00,99.66
1782.00,99.66
1781.00,99.64
1780.00,99.61
1779.00,99.58
1778.00,99.57
1777.00,99.56
1776.00,99.55
1775.00,99.53
1774.00,99.51
1773.00,99.50
1772.00,99.46
1771.00,99.42
1770.00,99.38
1769.00,99.33
1768.00,99.29
1767.00,99.26
1766.00,99.24
1765.00,99.22
1764.00,99.19
1763.00,99.16
1762.00,99.14
1761.00,99.12
1760.00,99.09
1759.00,99.07
1758.00,99.04
1757.00,99.00
1756.00,98.96
1755.00,98.92
1754.00,98.89
1753.00,98.85
1752.00,98.79
1751.00,98.73
1750.00,98.65
1749.00,98.54
1748.00,98.42
1747.00,98.33
1746.00,98.27
1745.00,98.24
1744.00,98.20
1743.00,98.16
1742.00,98.12
1741.00,98.06
1740.00,98.00
1739.00,97.96
1738.00,97.93
1737.00,97.87
1736.00,97.78
1735.00,97.73
1734.00,97.71
1733.00,97.70
1732.00,97.70
1731.00,97.70
1730.00,97.68
1729.00,97.64
1728.00,97.59
1727.00,97.55
1726.00,97.54
1725.00,97.53
1724.00,97.52
1723.00,97.52
1722.00,97.51
1721.00,97.47
1720.00,97.38
1719.00,97.29
1718.00,97.19
1717.00,97.06
1716.00,96.92
1715.00,96.81
1714.00,96.71
1713.00,96.59
1712.00,96.46
1711.00,96.34
1710.00,96.23
1709.00,96.10
1708.00,95.94
1707.00,95.75
1706.00,95.52
1705.00,95.27
1704.00,95.00
1703.00,94.73
1702.00,94.45
1701.00,94.10
1700.00,93.69
1699.00,93.32
1698.00,93.01
1697.00,92.64
1696.00,92.25
1695.00,91.91
1694.00,91.65
1693.00,91.40
1692.00,91.12
1691.00,90.82
1690.00,90.52
1689.00,90.21
1688.00,89.88
1687.00,89.56
1686.00,89.27
1685.00,88.97
1684.00,88.66
1683.00,88.40
1682.00,88.17
1681.00,87.92
1680.00,87.65
1679.00,87.39
1678.00,87.14
1677.00,86.88
1676.00,86.60
1675.00,86.33
1674.00,86.09
1673.00,85.84
1672.00,85.57
1671.00,85.29
1670.00,85.01
1669.00,84.71
1668.00,84.43
1667.00,84.17
1666.00,83.91
1665.00,83.64
1664.00,83.35
1663.00,83.05
1662.00,82.76
1661.00,82.47
1660.00,82.18
1659.00,81.90
1658.00,81.63
1657.00,81.35
1656.00,81.02
1655.00,80.66
1654.00,80.33
1653.00,80.06
1652.00,79.88
1651.00,79.76
1650.00,79.60
1649.00,79.38
1648.00,79.14
1647.00,78.95
1646.00,78.81
1645.00,78.68
1644.00,78.55
1643.00,78.43
1642.00,78.31
1641.00,78.22
1640.00,78.11
1639.00,77.98
1638.00,77.84
1637.00,77.73
1636.00,77.69
1635.00,77.70
1634.00,77.71
1633.00,77.67
1632.00,77.61
1631.00,77.56
1630.00,77.56
1629.00,77.59
1628.00,77.66
1627.00,77.72
1626.00,77.77
1625.00,77.83
1624.00,77.95
1623.00,78.12
1622.00,78.31
1621.00,78.44
1620.00,78.51
1619.00,78.56
1618.00,78.71
1617.00,79.01
1616.00,79.38
1615.00,79.68
1614.00,79.87
1613.00,80.03
1612.00,80.21
1611.00,80.44
1610.00,80.69
1609.00,80.92
1608.00,81.14
1607.00,81.33
1606.00,81.50
1605.00,81.66
1604.00,81.81
1603.00,81.95
1602.00,82.06
1601.00,82.14
1600.00,82.22
1599.00,82.29
1598.00,82.36
1597.00,82.41
1596.00,82.47
1595.00,82.52
1594.00,82.56
1593.00,82.57
1592.00,82.58
1591.00,82.59
1590.00,82.59
1589.00,82.57
1588.00,82.54
1587.00,82.50
1586.00,82.43
1585.00,82.33
1584.00,82.21
1583.00,82.08
1582.00,81.93
1581.00,81.78
1580.00,81.59
1579.00,81.37
1578.00,81.11
1577.00,80.88
1576.00,80.71
1575.00,80.60
1574.00,80.48
1573.00,80.32
1572.00,80.13
1571.00,79.94
1570.00,79.75
1569.00,79.56
1568.00,79.35
1567.00,79.12
1566.00,78.88
1565.00,78.65
1564.00,78.43
1563.00,78.20
1562.00,77.95
1561.00,77.72
1560.00,77.57
1559.00,77.47
1558.00,77.38
1557.00,77.24
1556.00,77.06
1555.00,76.87
1554.00,76.71
1553.00,76.57
1552.00,76.43
1551.00,76.29
1550.00,76.18
1549.00,76.09
1548.00,76.01
1547.00,75.94
1546.00,75.89
1545.00,75.89
1544.00,75.87
1543.00,75.82
1542.00,75.78
1541.00,75.84
1540.00,76.02
1539.00,76.23
1538.00,76.36
1537.00,76.40
1536.00,76.38
1535.00,76.40
1534.00,76.52
1533.00,76.71
1532.00,76.86
1531.00,76.95
1530.00,77.02
1529.00,77.12
1528.00,77.24
1527.00,77.39
1526.00,77.54
1525.00,77.65
1524.00,77.72
1523.00,77.78
1522.00,77.92
1521.00,78.11
1520.00,78.23
1519.00,78.27
1518.00,78.32
1517.00,78.43
1516.00,78.57
1515.00,78.69
1514.00,78.79
1513.00,78.93
1512.00,79.11
1511.00,79.30
1510.00,79.45
1509.00,79.58
1508.00,79.81
1507.00,80.23
1506.00,80.70
1505.00,81.05
1504.00,81.28
1503.00,81.47
1502.00,81.67
1501.00,81.93
1500.00,82.20
1499.00,82.49
1498.00,82.80
1497.00,83.15
1496.00,83.53
1495.00,83.89
1494.00,84.20
1493.00,84.47
1492.00,84.76
1491.00,85.12
1490.00,85.52
1489.00,85.87
1488.00,86.14
1487.00,86.37
1486.00,86.59
1485.00,86.77
1484.00,86.92
1483.00,87.06
1482.00,87.20
1481.00,87.33
1480.00,87.42
1479.00,87.48
1478.00,87.51
1477.00,87.50
1476.00,87.40
1475.00,87.22
1474.00,87.00
1473.00,86.76
1472.00,86.53
1471.00,86.35
1470.00,86.21
1469.00,86.07
1468.00,85.93
1467.00,85.81
1466.00,85.73
1465.00,85.68
1464.00,85.65
1463.00,85.62
1462.00,85.61
1461.00,85.59
1460.00,85.53
1459.00,85.44
1458.00,85.37
1457.00,85.33
1456.00,85.30
1455.00,85.28
1454.00,85.24
1453.00,85.20
1452.00,85.17
1451.00,85.15
1450.00,85.15
1449.00,85.17
1448.00,85.20
1447.00,85.23
1446.00,85.24
1445.00,85.26
1444.00,85.28
1443.00,85.31
1442.00,85.37
1441.00,85.42
1440.00,85.46
1439.00,85.48
1438.00,85.55
1437.00,85.68
1436.00,85.81
1435.00,85.89
1434.00,85.94
1433.00,85.97
1432.00,86.01
1431.00,86.05
1430.00,86.07
1429.00,86.06
1428.00,86.03
1427.00,85.97
1426.00,85.90
1425.00,85.82
1424.00,85.73
1423.00,85.61
1422.00,85.48
1421.00,85.36
1420.00,85.24
1419.00,85.12
1418.00,85.00
1417.00,84.85
1416.00,84.69
1415.00,84.51
1414.00,84.35
1413.00,84.19
1412.00,84.02
1411.00,83.84
1410.00,83.67
1409.00,83.50
1408.00,83.31
1407.00,83.13
1406.00,82.94
1405.00,82.76
1404.00,82.57
1403.00,82.41
1402.00,82.28
1401.00,82.17
1400.00,82.08
1399.00,82.01
1398.00,81.94
1397.00,81.87
1396.00,81.80
1395.00,81.76
1394.00,81.75
1393.00,81.76
1392.00,81.77
1391.00,81.80
1390.00,81.85
1389.00,81.92
1388.00,82.02
1387.00,82.15
1386.00,82.28
1385.00,82.41
1384.00,82.54
1383.00,82.70
1382.00,82.90
1381.00,83.11
1380.00,83.32
1379.00,83.52
1378.00,83.71
1377.00,83.89
1376.00,84.08
1375.00,84.30
1374.00,84.52
1373.00,84.71
1372.00,84.87
1371.00,85.02
1370.00,85.16
1369.00,85.30
1368.00,85.44
1367.00,85.58
1366.00,85.74
1365.00,85.92
1364.00,86.12
1363.00,86.33
1362.00,86.51
1361.00,86.64
1360.00,86.74
1359.00,86.83
1358.00,86.92
1357.00,87.00
1356.00,87.06
1355.00,87.13
1354.00,87.19
1353.00,87.24
1352.00,87.29
1351.00,87.33
1350.00,87.36
1349.00,87.38
1348.00,87.40
1347.00,87.42
1346.00,87.44
1345.00,87.47
1344.00,87.50
1343.00,87.54
1342.00,87.59
1341.00,87.65
1340.00,87.69
1339.00,87.73
1338.00,87.75
1337.00,87.76
1336.00,87.78
1335.00,87.80
1334.00,87.82
1333.00,87.85
1332.00,87.88
1331.00,87.92
1330.00,87.94
1329.00,87.94
1328.00,87.92
1327.00,87.90
1326.00,87.87
1325.00,87.83
1324.00,87.79
1323.00,87.73
1322.00,87.68
1321.00,87.63
1320.00,87.58
1319.00,87.53
1318.00,87.49
1317.00,87.46
1316.00,87.44
1315.00,87.41
1314.00,87.39
1313.00,87.37
1312.00,87.35
1311.00,87.34
1310.00,87.33
1309.00,87.33
1308.00,87.33
1307.00,87.33
1306.00,87.32
1305.00,87.31
1304.00,87.30
1303.00,87.29
1302.00,87.28
1301.00,87.28
1300.00,87.26
1299.00,87.25
1298.00,87.23
1297.00,87.21
1296.00,87.21
1295.00,87.22
1294.00,87.24
1293.00,87.28
1292.00,87.31
1291.00,87.34
1290.00,87.37
1289.00,87.40
1288.00,87.42
1287.00,87.44
1286.00,87.47
1285.00,87.50
1284.00,87.54
1283.00,87.56
1282.00,87.57
1281.00,87.56
1280.00,87.56
1279.00,87.56
1278.00,87.56
1277.00,87.55
1276.00,87.54
1275.00,87.54
1274.00,87.54
1273.00,87.55
1272.00,87.55
1271.00,87.56
1270.00,87.55
1269.00,87.53
1268.00,87.51
1267.00,87.50
1266.00,87.48
1265.00,87.45
1264.00,87.41
1263.00,87.37
1262.00,87.34
1261.00,87.30
1260.00,87.26
1259.00,87.20
1258.00,87.15
1257.00,87.10
1256.00,87.06
1255.00,87.02
1254.00,86.97
1253.00,86.91
1252.00,86.85
1251.00,86.80
1250.00,86.77
1249.00,86.76
1248.00,86.74
1247.00,86.72
1246.00,86.68
1245.00,86.65
1244.00,86.61
1243.00,86.57
1242.00,86.55
1241.00,86.53
1240.00,86.51
1239.00,86.51
1238.00,86.51
1237.00,86.51
1236.00,86.52
1235.00,86.52
1234.00,86.53
1233.00,86.54
1232.00,86.56
1231.00,86.60
1230.00,86.65
1229.00,86.71
1228.00,86.78
1227.00,86.86
1226.00,86.94
1225.00,87.02
1224.00,87.12
1223.00,87.22
1222.00,87.31
1221.00,87.40
1220.00,87.48
1219.00,87.55
1218.00,87.64
1217.00,87.74
1216.00,87.84
1215.00,87.94
1214.00,88.02
1213.00,88.09
1212.00,88.14
1211.00,88.17
1210.00,88.21
1209.00,88.24
1208.00,88.28
1207.00,88.32
1206.00,88.34
1205.00,88.37
1204.00,88.39
1203.00,88.43
1202.00,88.48
1201.00,88.54
1200.00,88.61
1199.00,88.68
1198.00,88.75
1197.00,88.80
1196.00,88.84
1195.00,88.87
1194.00,88.91
1193.00,88.95
1192.00,88.98
1191.00,89.01
1190.00,89.02
1189.00,89.02
1188.00,89.04
1187.00,89.07
1186.00,89.12
1185.00,89.15
1184.00,89.15
1183.00,89.14
1182.00,89.14
1181.00,89.16
1180.00,89.18
1179.00,89.18
1178.00,89.16
1177.00,89.14
1176.00,89.12
1175.00,89.11
1174.00,89.11
1173.00,89.11
1172.00,89.12
1171.00,89.16
1170.00,89.22
1169.00,89.28
1168.00,89.34
1167.00,89.38
1166.00,89.42
1165.00,89.45
1164.00,89.48
1163.00,89.51
1162.00,89.54
1161.00,89.58
1160.00,89.61
1159.00,89.64
1158.00,89.66
1157.00,89.68
1156.00,89.71
1155.00,89.76
1154.00,89.81
1153.00,89.86
1152.00,89.91
1151.00,89.96
1150.00,90.03
1149.00,90.10
1148.00,90.18
1147.00,90.26
1146.00,90.33
1145.00,90.39
1144.00,90.43
1143.00,90.45
1142.00,90.47
1141.00,90.47
1140.00,90.47
1139.00,90.47
1138.00,90.49
1137.00,90.50
1136.00,90.50
1135.00,90.48
1134.00,90.46
1133.00,90.44
1132.00,90.41
1131.00,90.38
1130.00,90.32
1129.00,90.26
1128.00,90.20
1127.00,90.15
1126.00,90.13
1125.00,90.13
1124.00,90.12
1123.00,90.10
1122.00,90.09
1121.00,90.09
1120.00,90.12
1119.00,90.13
1118.00,90.12
1117.00,90.06
1116.00,89.99
1115.00,89.93
1114.00,89.90
1113.00,89.89
1112.00,89.88
1111.00,89.86
1110.00,89.83
1109.00,89.81
1108.00,89.80
1107.00,89.81
1106.00,89.82
1105.00,89.81
1104.00,89.81
1103.00,89.81
1102.00,89.82
1101.00,89.83
1100.00,89.81
1099.00,89.76
1098.00,89.70
1097.00,89.65
1096.00,89.63
1095.00,89.63
1094.00,89.65
1093.00,89.65
1092.00,89.61
1091.00,89.54
1090.00,89.45
1089.00,89.37
1088.00,89.32
1087.00,89.30
1086.00,89.28
1085.00,89.26
1084.00,89.20
1083.00,89.12
1082.00,89.03
1081.00,88.95
1080.00,88.90
1079.00,88.88
1078.00,88.87
1077.00,88.87
1076.00,88.88
1075.00,88.89
1074.00,88.92
1073.00,88.95
1072.00,88.99
1071.00,89.05
1070.00,89.13
1069.00,89.19
1068.00,89.23
1067.00,89.24
1066.00,89.23
1065.00,89.22
1064.00,89.21
1063.00,89.21
1062.00,89.23
1061.00,89.26
1060.00,89.31
1059.00,89.35
1058.00,89.38
1057.00,89.41
1056.00,89.44
1055.00,89.46
1054.00,89.48
1053.00,89.49
1052.00,89.49
1051.00,89.48
1050.00,89.48
1049.00,89.48
1048.00,89.49
1047.00,89.48
1046.00,89.46
1045.00,89.45
1044.00,89.46
1043.00,89.50
1042.00,89.56
1041.00,89.65
1040.00,89.73
1039.00,89.81
1038.00,89.89
1037.00,89.96
1036.00,90.03
1035.00,90.08
1034.00,90.11
1033.00,90.13
1032.00,90.15
1031.00,90.18
1030.00,90.21
1029.00,90.26
1028.00,90.32
1027.00,90.38
1026.00,90.44
1025.00,90.48
1024.00,90.54
1023.00,90.61
1022.00,90.69
1021.00,90.79
1020.00,90.88
1019.00,90.98
1018.00,91.08
1017.00,91.17
1016.00,91.21
1015.00,91.23
1014.00,91.26
1013.00,91.31
1012.00,91.36
1011.00,91.41
1010.00,91.47
1009.00,91.54
1008.00,91.63
1007.00,91.70
1006.00,91.75
1005.00,91.79
1004.00,91.84
1003.00,91.90
1002.00,91.95
1001.00,91.99
1000.00,92.01
999.00,92.03
998.00,92.04
997.00,92.05
996.00,92.06
995.00,92.07
994.00,92.10
993.00,92.14
992.00,92.16
991.00,92.18
990.00,92.20
989.00,92.22
988.00,92.26
987.00,92.29
986.00,92.33
985.00,92.36
984.00,92.37
983.00,92.38
982.00,92.37
981.00,92.38
980.00,92.39
979.00,92.41
978.00,92.42
977.00,92.43
976.00,92.46
975.00,92.49
974.00,92.53
973.00,92.54
972.00,92.54
971.00,92.54
970.00,92.54
969.00,92.55
968.00,92.57
967.00,92.59
966.00,92.61
965.00,92.63
964.00,92.64
963.00,92.65
962.00,92.66
961.00,92.67
960.00,92.68
959.00,92.69
958.00,92.71
957.00,92.71
956.00,92.70
955.00,92.69
954.00,92.68
953.00,92.68
952.00,92.69
951.00,92.68
950.00,92.67
949.00,92.67
948.00,92.68
947.00,92.69
946.00,92.69
945.00,92.69
944.00,92.67
943.00,92.66
942.00,92.63
941.00,92.60
940.00,92.57
939.00,92.54
938.00,92.50
937.00,92.46
936.00,92.41
935.00,92.38
934.00,92.35
933.00,92.35
932.00,92.37
931.00,92.38
930.00,92.38
929.00,92.37
928.00,92.36
927.00,92.36
926.00,92.36
925.00,92.35
924.00,92.34
923.00,92.33
922.00,92.34
921.00,92.35
920.00,92.36
919.00,92.37
918.00,92.41
917.00,92.46
916.00,92.51
915.00,92.56
914.00,92.60
913.00,92.62
912.00,92.64
911.00,92.63
910.00,92.61
909.00,92.58
908.00,92.58
907.00,92.59
906.00,92.59
905.00,92.58
904.00,92.53
903.00,92.48
902.00,92.44
901.00,92.41
900.00,92.39
899.00,92.36
898.00,92.33
897.00,92.30
896.00,92.26
895.00,92.24
894.00,92.22
893.00,92.21
892.00,92.19
891.00,92.16
890.00,92.13
889.00,92.10
888.00,92.07
887.00,92.05
886.00,92.03
885.00,91.99
884.00,91.95
883.00,91.88
882.00,91.80
881.00,91.73
880.00,91.68
879.00,91.65
878.00,91.64
877.00,91.63
876.00,91.62
875.00,91.60
874.00,91.58
873.00,91.54
872.00,91.51
871.00,91.49
870.00,91.49
869.00,91.49
868.00,91.47
867.00,91.43
866.00,91.39
865.00,91.36
864.00,91.35
863.00,91.36
862.00,91.35
861.00,91.32
860.00,91.27
859.00,91.22
858.00,91.18
857.00,91.16
856.00,91.14
855.00,91.11
854.00,91.04
853.00,90.96
852.00,90.90
851.00,90.87
850.00,90.87
849.00,90.87
848.00,90.85
847.00,90.78
846.00,90.68
845.00,90.58
844.00,90.51
843.00,90.48
842.00,90.46
841.00,90.42
840.00,90.34
839.00,90.24
838.00,90.15
837.00,90.09
836.00,90.05
835.00,90.01
834.00,89.96
833.00,89.91
832.00,89.86
831.00,89.82
830.00,89.78
829.00,89.75
828.00,89.73
827.00,89.72
826.00,89.70
825.00,89.65
824.00,89.56
823.00,89.47
822.00,89.41
821.00,89.37
820.00,89.34
819.00,89.32
818.00,89.30
817.00,89.27
816.00,89.22
815.00,89.15
814.00,89.09
813.00,89.04
812.00,88.99
811.00,88.93
810.00,88.87
809.00,88.81
808.00,88.76
807.00,88.70
806.00,88.64
805.00,88.58
804.00,88.51
803.00,88.44
802.00,88.38
801.00,88.33
800.00,88.26
799.00,88.17
798.00,88.09
797.00,88.01
796.00,87.94
795.00,87.87
794.00,87.81
793.00,87.75
792.00,87.69
791.00,87.63
790.00,87.58
789.00,87.52
788.00,87.46
787.00,87.41
786.00,87.37
785.00,87.33
784.00,87.27
783.00,87.21
782.00,87.15
781.00,87.11
780.00,87.09
779.00,87.06
778.00,87.02
777.00,86.95
776.00,86.86
775.00,86.77
774.00,86.69
773.00,86.63
772.00,86.58
771.00,86.55
770.00,86.54
769.00,86.54
768.00,86.51
767.00,86.44
766.00,86.32
765.00,86.20
764.00,86.09
763.00,86.01
762.00,85.96
761.00,85.91
760.00,85.86
759.00,85.82
758.00,85.79
757.00,85.76
756.00,85.70
755.00,85.61
754.00,85.49
753.00,85.39
752.00,85.32
751.00,85.26
750.00,85.20
749.00,85.14
748.00,85.07
747.00,85.00
746.00,84.92
745.00,84.83
744.00,84.73
743.00,84.65
742.00,84.61
741.00,84.61
740.00,84.61
739.00,84.60
738.00,84.56
737.00,84.49
736.00,84.41
735.00,84.36
734.00,84.34
733.00,84.31
732.00,84.23
731.00,84.10
730.00,83.97
729.00,83.84
728.00,83.72
727.00,83.62
726.00,83.54
725.00,83.45
724.00,83.35
723.00,83.25
722.00,83.16
721.00,83.07
720.00,82.99
719.00,82.93
718.00,82.89
717.00,82.85
716.00,82.81
715.00,82.76
714.00,82.71
713.00,82.65
712.00,82.58
711.00,82.51
710.00,82.45
709.00,82.39
708.00,82.32
707.00,82.22
706.00,82.12
705.00,82.02
704.00,81.94
703.00,81.89
702.00,81.83
701.00,81.74
700.00,81.63
699.00,81.55
698.00,81.52
697.00,81.52
696.00,81.53
695.00,81.53
694.00,81.50
693.00,81.44
692.00,81.38
691.00,81.34
690.00,81.32
689.00,81.30
688.00,81.26
687.00,81.22
686.00,81.19
685.00,81.17
684.00,81.15
683.00,81.14
682.00,81.11
681.00,81.02
680.00,80.87
679.00,80.72
678.00,80.61
677.00,80.56
676.00,80.53
675.00,80.48
674.00,80.39
673.00,80.27
672.00,80.16
671.00,80.08
670.00,80.06
669.00,80.09
668.00,80.07
667.00,79.96
666.00,79.91
665.00,79.89
664.00,79.82
663.00,79.75
662.00,79.72
661.00,79.68
660.00,79.61
659.00,79.53
658.00,79.45
657.00,79.37
656.00,79.27
655.00,79.19
654.00,79.16
653.00,79.16
652.00,79.14
651.00,79.11
650.00,79.06
649.00,78.98
648.00,78.90
647.00,78.89
646.00,78.95
645.00,78.96
644.00,78.87
643.00,78.76
642.00,78.74
641.00,78.79
640.00,78.80
639.00,78.74
638.00,78.67
637.00,78.64
636.00,78.64
635.00,78.63
634.00,78.58
633.00,78.45
632.00,78.26
631.00,78.11
630.00,78.07
629.00,78.11
628.00,78.15
627.00,78.13
626.00,78.07
625.00,77.98
624.00,77.85
623.00,77.75
622.00,77.69
621.00,77.61
620.00,77.53
619.00,77.50
618.00,77.49
617.00,77.38
616.00,77.21
615.00,77.21
614.00,77.50
613.00,77.87
612.00,78.09
611.00,78.08
610.00,77.94
609.00,77.74
608.00,77.51
607.00,77.34
606.00,77.28
605.00,77.28
604.00,77.33
603.00,77.50
602.00,77.74
601.00,77.83
600.00,77.57
599.00,77.12
598.00,76.81
597.00,76.81
596.00,77.01
595.00,77.24
594.00,77.40
593.00,77.44
592.00,77.37
591.00,77.25
590.00,77.17
589.00,77.12
588.00,77.01
587.00,76.89
586.00,76.83
585.00,76.87
584.00,76.93
583.00,76.94
582.00,76.82
581.00,76.55
580.00,76.22
579.00,76.05
578.00,76.09
577.00,76.22
576.00,76.32
575.00,76.42
574.00,76.52
573.00,76.46
572.00,76.18
571.00,75.79
570.00,75.48
569.00,75.37
568.00,75.53
567.00,76.00
566.00,76.48
565.00,76.55
564.00,76.08
563.00,75.38
562.00,74.78
561.00,74.36
560.00,74.19
559.00,74.35
558.00,74.64
557.00,74.67
556.00,74.40
555.00,74.20
554.00,74.23
553.00,74.19
552.00,73.81
551.00,73.49
550.00,73.56
