Created as New Dataset,13.4 Red Wool Shetland sheep
cm-1,%T
4000.00,98.39
3999.00,98.39
3998.00,98.39
3997.00,98.40
3996.00,98.40
3995.00,98.40
3994.00,98.39
3993.00,98.38
3992.00,98.36
3991.00,98.36
3990.00,98.36
3989.00,98.38
3988.00,98.41
3987.00,98.42
3986.00,98.42
3985.00,98.42
3984.00,98.41
3983.00,98.41
3982.00,98.42
3981.00,98.43
3980.00,98.44
3979.00,98.44
3978.00,98.44
3977.00,98.43
3976.00,98.43
3975.00,98.42
3974.00,98.41
3973.00,98.41
3972.00,98.41
3971.00,98.41
3970.00,98.41
3969.00,98.41
3968.00,98.41
3967.00,98.41
3966.00,98.41
3965.00,98.41
3964.00,98.40
3963.00,98.40
3962.00,98.40
3961.00,98.42
3960.00,98.43
3959.00,98.44
3958.00,98.44
3957.00,98.43
3956.00,98.41
3955.00,98.39
3954.00,98.36
3953.00,98.35
3952.00,98.35
3951.00,98.38
3950.00,98.40
3949.00,98.41
3948.00,98.41
3947.00,98.39
3946.00,98.37
3945.00,98.36
3944.00,98.37
3943.00,98.39
3942.00,98.42
3941.00,98.45
3940.00,98.47
3939.00,98.49
3938.00,98.48
3937.00,98.46
3936.00,98.43
3935.00,98.40
3934.00,98.38
3933.00,98.36
3932.00,98.35
3931.00,98.35
3930.00,98.35
3929.00,98.35
3928.00,98.36
3927.00,98.37
3926.00,98.38
3925.00,98.40
3924.00,98.41
3923.00,98.41
3922.00,98.41
3921.00,98.41
3920.00,98.40
3919.00,98.40
3918.00,98.40
3917.00,98.40
3916.00,98.39
3915.00,98.39
3914.00,98.39
3913.00,98.40
3912.00,98.42
3911.00,98.43
3910.00,98.44
3909.00,98.43
3908.00,98.41
3907.00,98.40
3906.00,98.39
3905.00,98.39
3904.00,98.38
3903.00,98.37
3902.00,98.36
3901.00,98.36
3900.00,98.36
3899.00,98.37
3898.00,98.37
3897.00,98.37
3896.00,98.37
3895.00,98.38
3894.00,98.38
3893.00,98.40
3892.00,98.41
3891.00,98.41
3890.00,98.40
3889.00,98.38
3888.00,98.37
3887.00,98.38
3886.00,98.39
3885.00,98.40
3884.00,98.38
3883.00,98.36
3882.00,98.36
3881.00,98.38
3880.00,98.39
3879.00,98.39
3878.00,98.38
3877.00,98.37
3876.00,98.37
3875.00,98.38
3874.00,98.37
3873.00,98.35
3872.00,98.35
3871.00,98.38
3870.00,98.42
3869.00,98.44
3868.00,98.43
3867.00,98.41
3866.00,98.41
3865.00,98.43
3864.00,98.46
3863.00,98.46
3862.00,98.45
3861.00,98.43
3860.00,98.39
3859.00,98.36
3858.00,98.34
3857.00,98.33
3856.00,98.34
3855.00,98.37
3854.00,98.40
3853.00,98.38
3852.00,98.35
3851.00,98.33
3850.00,98.33
3849.00,98.36
3848.00,98.38
3847.00,98.38
3846.00,98.38
3845.00,98.37
3844.00,98.35
3843.00,98.34
3842.00,98.33
3841.00,98.32
3840.00,98.33
3839.00,98.35
3838.00,98.35
3837.00,98.35
3836.00,98.34
3835.00,98.35
3834.00,98.35
3833.00,98.36
3832.00,98.36
3831.00,98.36
3830.00,98.35
3829.00,98.35
3828.00,98.36
3827.00,98.36
3826.00,98.36
3825.00,98.34
3824.00,98.31
3823.00,98.31
3822.00,98.32
3821.00,98.33
3820.00,98.33
3819.00,98.32
3818.00,98.33
3817.00,98.36
3816.00,98.39
3815.00,98.40
3814.00,98.39
3813.00,98.40
3812.00,98.41
3811.00,98.43
3810.00,98.42
3809.00,98.40
3808.00,98.37
3807.00,98.35
3806.00,98.34
3805.00,98.33
3804.00,98.34
3803.00,98.36
3802.00,98.37
3801.00,98.36
3800.00,98.32
3799.00,98.27
3798.00,98.25
3797.00,98.27
3796.00,98.31
3795.00,98.34
3794.00,98.37
3793.00,98.39
3792.00,98.41
3791.00,98.42
3790.00,98.42
3789.00,98.40
3788.00,98.39
3787.00,98.38
3786.00,98.38
3785.00,98.40
3784.00,98.43
3783.00,98.45
3782.00,98.45
3781.00,98.44
3780.00,98.43
3779.00,98.40
3778.00,98.37
3777.00,98.34
3776.00,98.34
3775.00,98.36
3774.00,98.37
3773.00,98.38
3772.00,98.38
3771.00,98.36
3770.00,98.35
3769.00,98.32
3768.00,98.30
3767.00,98.28
3766.00,98.28
3765.00,98.29
3764.00,98.28
3763.00,98.28
3762.00,98.28
3761.00,98.29
3760.00,98.30
3759.00,98.30
3758.00,98.30
3757.00,98.30
3756.00,98.30
3755.00,98.29
3754.00,98.29
3753.00,98.28
3752.00,98.26
3751.00,98.25
3750.00,98.25
3749.00,98.24
3748.00,98.22
3747.00,98.19
3746.00,98.19
3745.00,98.20
3744.00,98.19
3743.00,98.17
3742.00,98.15
3741.00,98.16
3740.00,98.17
3739.00,98.17
3738.00,98.15
3737.00,98.12
3736.00,98.10
3735.00,98.09
3734.00,98.08
3733.00,98.09
3732.00,98.11
3731.00,98.12
3730.00,98.12
3729.00,98.13
3728.00,98.16
3727.00,98.19
3726.00,98.20
3725.00,98.20
3724.00,98.19
3723.00,98.18
3722.00,98.19
3721.00,98.19
3720.00,98.20
3719.00,98.21
3718.00,98.22
3717.00,98.21
3716.00,98.18
3715.00,98.13
3714.00,98.11
3713.00,98.10
3712.00,98.12
3711.00,98.13
3710.00,98.12
3709.00,98.12
3708.00,98.14
3707.00,98.17
3706.00,98.19
3705.00,98.19
3704.00,98.18
3703.00,98.15
3702.00,98.13
3701.00,98.11
3700.00,98.10
3699.00,98.09
3698.00,98.09
3697.00,98.08
3696.00,98.09
3695.00,98.11
3694.00,98.13
3693.00,98.13
3692.00,98.11
3691.00,98.06
3690.00,98.00
3689.00,97.96
3688.00,97.96
3687.00,97.98
3686.00,98.01
3685.00,98.04
3684.00,98.06
3683.00,98.07
3682.00,98.06
3681.00,98.05
3680.00,98.04
3679.00,98.03
3678.00,98.01
3677.00,97.98
3676.00,97.92
3675.00,97.85
3674.00,97.79
3673.00,97.74
3672.00,97.73
3671.00,97.73
3670.00,97.73
3669.00,97.72
3668.00,97.70
3667.00,97.69
3666.00,97.70
3665.00,97.71
3664.00,97.72
3663.00,97.72
3662.00,97.72
3661.00,97.72
3660.00,97.70
3659.00,97.67
3658.00,97.63
3657.00,97.61
3656.00,97.60
3655.00,97.60
3654.00,97.60
3653.00,97.58
3652.00,97.54
3651.00,97.47
3650.00,97.40
3649.00,97.33
3648.00,97.28
3647.00,97.25
3646.00,97.24
3645.00,97.23
3644.00,97.23
3643.00,97.22
3642.00,97.21
3641.00,97.20
3640.00,97.19
3639.00,97.18
3638.00,97.17
3637.00,97.15
3636.00,97.12
3635.00,97.08
3634.00,97.04
3633.00,96.99
3632.00,96.93
3631.00,96.88
3630.00,96.86
3629.00,96.84
3628.00,96.82
3627.00,96.79
3626.00,96.77
3625.00,96.75
3624.00,96.73
3623.00,96.72
3622.00,96.70
3621.00,96.68
3620.00,96.65
3619.00,96.60
3618.00,96.56
3617.00,96.53
3616.00,96.51
3615.00,96.48
3614.00,96.44
3613.00,96.38
3612.00,96.31
3611.00,96.25
3610.00,96.24
3609.00,96.25
3608.00,96.27
3607.00,96.27
3606.00,96.26
3605.00,96.23
3604.00,96.20
3603.00,96.17
3602.00,96.13
3601.00,96.10
3600.00,96.08
3599.00,96.05
3598.00,96.02
3597.00,95.99
3596.00,95.95
3595.00,95.91
3594.00,95.86
3593.00,95.81
3592.00,95.78
3591.00,95.76
3590.00,95.73
3589.00,95.70
3588.00,95.67
3587.00,95.63
3586.00,95.60
3585.00,95.57
3584.00,95.55
3583.00,95.53
3582.00,95.51
3581.00,95.51
3580.00,95.49
3579.00,95.47
3578.00,95.44
3577.00,95.41
3576.00,95.37
3575.00,95.33
3574.00,95.30
3573.00,95.27
3572.00,95.24
3571.00,95.19
3570.00,95.13
3569.00,95.06
3568.00,94.99
3567.00,94.92
3566.00,94.86
3565.00,94.81
3564.00,94.79
3563.00,94.79
3562.00,94.81
3561.00,94.83
3560.00,94.84
3559.00,94.81
3558.00,94.76
3557.00,94.70
3556.00,94.64
3555.00,94.59
3554.00,94.57
3553.00,94.56
3552.00,94.55
3551.00,94.51
3550.00,94.47
3549.00,94.42
3548.00,94.38
3547.00,94.36
3546.00,94.34
3545.00,94.32
3544.00,94.29
3543.00,94.25
3542.00,94.22
3541.00,94.19
3540.00,94.17
3539.00,94.14
3538.00,94.11
3537.00,94.07
3536.00,94.02
3535.00,93.96
3534.00,93.90
3533.00,93.85
3532.00,93.81
3531.00,93.77
3530.00,93.75
3529.00,93.73
3528.00,93.70
3527.00,93.66
3526.00,93.62
3525.00,93.59
3524.00,93.58
3523.00,93.57
3522.00,93.56
3521.00,93.54
3520.00,93.51
3519.00,93.48
3518.00,93.45
3517.00,93.41
3516.00,93.38
3515.00,93.36
3514.00,93.34
3513.00,93.30
3512.00,93.26
3511.00,93.22
3510.00,93.18
3509.00,93.14
3508.00,93.12
3507.00,93.11
3506.00,93.10
3505.00,93.08
3504.00,93.05
3503.00,93.01
3502.00,92.98
3501.00,92.96
3500.00,92.95
3499.00,92.92
3498.00,92.86
3497.00,92.80
3496.00,92.74
3495.00,92.71
3494.00,92.71
3493.00,92.71
3492.00,92.71
3491.00,92.70
3490.00,92.67
3489.00,92.64
3488.00,92.61
3487.00,92.59
3486.00,92.56
3485.00,92.54
3484.00,92.51
3483.00,92.48
3482.00,92.45
3481.00,92.43
3480.00,92.40
3479.00,92.37
3478.00,92.34
3477.00,92.30
3476.00,92.26
3475.00,92.23
3474.00,92.21
3473.00,92.19
3472.00,92.17
3471.00,92.15
3470.00,92.11
3469.00,92.08
3468.00,92.05
3467.00,92.02
3466.00,91.99
3465.00,91.96
3464.00,91.94
3463.00,91.92
3462.00,91.89
3461.00,91.85
3460.00,91.81
3459.00,91.77
3458.00,91.73
3457.00,91.71
3456.00,91.69
3455.00,91.68
3454.00,91.67
3453.00,91.66
3452.00,91.65
3451.00,91.63
3450.00,91.62
3449.00,91.60
3448.00,91.58
3447.00,91.55
3446.00,91.51
3445.00,91.48
3444.00,91.45
3443.00,91.43
3442.00,91.43
3441.00,91.42
3440.00,91.41
3439.00,91.39
3438.00,91.37
3437.00,91.33
3436.00,91.28
3435.00,91.24
3434.00,91.21
3433.00,91.18
3432.00,91.15
3431.00,91.11
3430.00,91.07
3429.00,91.04
3428.00,91.01
3427.00,91.00
3426.00,90.97
3425.00,90.94
3424.00,90.89
3423.00,90.86
3422.00,90.83
3421.00,90.80
3420.00,90.79
3419.00,90.77
3418.00,90.74
3417.00,90.71
3416.00,90.68
3415.00,90.65
3414.00,90.61
3413.00,90.59
3412.00,90.58
3411.00,90.57
3410.00,90.55
3409.00,90.52
3408.00,90.50
3407.00,90.48
3406.00,90.45
3405.00,90.43
3404.00,90.39
3403.00,90.37
3402.00,90.34
3401.00,90.32
3400.00,90.29
3399.00,90.24
3398.00,90.18
3397.00,90.13
3396.00,90.09
3395.00,90.08
3394.00,90.07
3393.00,90.06
3392.00,90.04
3391.00,90.01
3390.00,89.97
3389.00,89.95
3388.00,89.92
3387.00,89.91
3386.00,89.89
3385.00,89.88
3384.00,89.86
3383.00,89.84
3382.00,89.81
3381.00,89.78
3380.00,89.75
3379.00,89.74
3378.00,89.73
3377.00,89.71
3376.00,89.68
3375.00,89.65
3374.00,89.63
3373.00,89.62
3372.00,89.60
3371.00,89.59
3370.00,89.56
3369.00,89.53
3368.00,89.48
3367.00,89.42
3366.00,89.35
3365.00,89.32
3364.00,89.31
3363.00,89.32
3362.00,89.33
3361.00,89.32
3360.00,89.29
3359.00,89.26
3358.00,89.21
3357.00,89.17
3356.00,89.13
3355.00,89.11
3354.00,89.08
3353.00,89.06
3352.00,89.03
3351.00,89.01
3350.00,89.00
3349.00,88.98
3348.00,88.96
3347.00,88.93
3346.00,88.90
3345.00,88.87
3344.00,88.84
3343.00,88.81
3342.00,88.77
3341.00,88.74
3340.00,88.71
3339.00,88.68
3338.00,88.67
3337.00,88.65
3336.00,88.63
3335.00,88.60
3334.00,88.56
3333.00,88.53
3332.00,88.50
3331.00,88.47
3330.00,88.44
3329.00,88.41
3328.00,88.38
3327.00,88.35
3326.00,88.31
3325.00,88.28
3324.00,88.24
3323.00,88.21
3322.00,88.18
3321.00,88.13
3320.00,88.07
3319.00,88.00
3318.00,87.95
3317.00,87.91
3316.00,87.88
3315.00,87.86
3314.00,87.82
3313.00,87.79
3312.00,87.75
3311.00,87.74
3310.00,87.73
3309.00,87.71
3308.00,87.68
3307.00,87.63
3306.00,87.57
3305.00,87.51
3304.00,87.46
3303.00,87.43
3302.00,87.40
3301.00,87.37
3300.00,87.36
3299.00,87.35
3298.00,87.35
3297.00,87.35
3296.00,87.33
3295.00,87.29
3294.00,87.23
3293.00,87.17
3292.00,87.11
3291.00,87.08
3290.00,87.07
3289.00,87.06
3288.00,87.04
3287.00,87.01
3286.00,86.99
3285.00,86.96
3284.00,86.94
3283.00,86.92
3282.00,86.89
3281.00,86.88
3280.00,86.88
3279.00,86.88
3278.00,86.89
3277.00,86.89
3276.00,86.90
3275.00,86.93
3274.00,86.95
3273.00,86.97
3272.00,86.97
3271.00,86.97
3270.00,86.97
3269.00,86.98
3268.00,86.99
3267.00,87.00
3266.00,87.01
3265.00,87.03
3264.00,87.06
3263.00,87.10
3262.00,87.14
3261.00,87.18
3260.00,87.21
3259.00,87.26
3258.00,87.31
3257.00,87.35
3256.00,87.37
3255.00,87.38
3254.00,87.38
3253.00,87.40
3252.00,87.43
3251.00,87.47
3250.00,87.52
3249.00,87.58
3248.00,87.63
3247.00,87.68
3246.00,87.70
3245.00,87.73
3244.00,87.75
3243.00,87.77
3242.00,87.79
3241.00,87.81
3240.00,87.84
3239.00,87.86
3238.00,87.88
3237.00,87.90
3236.00,87.93
3235.00,87.97
3234.00,88.02
3233.00,88.05
3232.00,88.05
3231.00,88.06
3230.00,88.07
3229.00,88.10
3228.00,88.15
3227.00,88.19
3226.00,88.24
3225.00,88.27
3224.00,88.30
3223.00,88.32
3222.00,88.32
3221.00,88.32
3220.00,88.33
3219.00,88.36
3218.00,88.40
3217.00,88.44
3216.00,88.47
3215.00,88.48
3214.00,88.48
3213.00,88.50
3212.00,88.52
3211.00,88.54
3210.00,88.55
3209.00,88.57
3208.00,88.60
3207.00,88.66
3206.00,88.72
3205.00,88.77
3204.00,88.80
3203.00,88.83
3202.00,88.85
3201.00,88.88
3200.00,88.90
3199.00,88.93
3198.00,88.94
3197.00,88.96
3196.00,88.99
3195.00,89.03
3194.00,89.08
3193.00,89.13
3192.00,89.17
3191.00,89.21
3190.00,89.24
3189.00,89.27
3188.00,89.31
3187.00,89.34
3186.00,89.36
3185.00,89.38
3184.00,89.40
3183.00,89.43
3182.00,89.47
3181.00,89.51
3180.00,89.55
3179.00,89.60
3178.00,89.64
3177.00,89.67
3176.00,89.71
3175.00,89.74
3174.00,89.77
3173.00,89.81
3172.00,89.86
3171.00,89.91
3170.00,89.96
3169.00,90.00
3168.00,90.03
3167.00,90.06
3166.00,90.09
3165.00,90.12
3164.00,90.15
3163.00,90.19
3162.00,90.23
3161.00,90.28
3160.00,90.33
3159.00,90.39
3158.00,90.45
3157.00,90.49
3156.00,90.54
3155.00,90.57
3154.00,90.60
3153.00,90.62
3152.00,90.63
3151.00,90.65
3150.00,90.69
3149.00,90.73
3148.00,90.78
3147.00,90.82
3146.00,90.87
3145.00,90.91
3144.00,90.95
3143.00,90.98
3142.00,91.01
3141.00,91.03
3140.00,91.05
3139.00,91.08
3138.00,91.10
3137.00,91.14
3136.00,91.17
3135.00,91.21
3134.00,91.24
3133.00,91.26
3132.00,91.28
3131.00,91.31
3130.00,91.33
3129.00,91.35
3128.00,91.37
3127.00,91.40
3126.00,91.43
3125.00,91.46
3124.00,91.48
3123.00,91.49
3122.00,91.50
3121.00,91.51
3120.00,91.52
3119.00,91.54
3118.00,91.56
3117.00,91.58
3116.00,91.59
3115.00,91.59
3114.00,91.60
3113.00,91.61
3112.00,91.62
3111.00,91.64
3110.00,91.66
3109.00,91.68
3108.00,91.69
3107.00,91.68
3106.00,91.68
3105.00,91.68
3104.00,91.70
3103.00,91.71
3102.00,91.73
3101.00,91.74
3100.00,91.73
3099.00,91.72
3098.00,91.70
3097.00,91.69
3096.00,91.68
3095.00,91.68
3094.00,91.69
3093.00,91.70
3092.00,91.70
3091.00,91.69
3090.00,91.69
3089.00,91.69
3088.00,91.69
3087.00,91.67
3086.00,91.66
3085.00,91.65
3084.00,91.66
3083.00,91.66
3082.00,91.66
3081.00,91.65
3080.00,91.64
3079.00,91.63
3078.00,91.63
3077.00,91.64
3076.00,91.64
3075.00,91.64
3074.00,91.63
3073.00,91.61
3072.00,91.61
3071.00,91.60
3070.00,91.60
3069.00,91.61
3068.00,91.63
3067.00,91.65
3066.00,91.67
3065.00,91.68
3064.00,91.69
3063.00,91.69
3062.00,91.70
3061.00,91.72
3060.00,91.74
3059.00,91.77
3058.00,91.79
3057.00,91.81
3056.00,91.82
3055.00,91.84
3054.00,91.86
3053.00,91.89
3052.00,91.92
3051.00,91.95
3050.00,91.98
3049.00,92.00
3048.00,92.03
3047.00,92.05
3046.00,92.07
3045.00,92.09
3044.00,92.12
3043.00,92.16
3042.00,92.20
3041.00,92.23
3040.00,92.25
3039.00,92.26
3038.00,92.28
3037.00,92.32
3036.00,92.35
3035.00,92.38
3034.00,92.41
3033.00,92.43
3032.00,92.46
3031.00,92.48
3030.00,92.51
3029.00,92.54
3028.00,92.58
3027.00,92.62
3026.00,92.66
3025.00,92.69
3024.00,92.71
3023.00,92.72
3022.00,92.73
3021.00,92.74
3020.00,92.77
3019.00,92.79
3018.00,92.82
3017.00,92.85
3016.00,92.87
3015.00,92.88
3014.00,92.89
3013.00,92.90
3012.00,92.93
3011.00,92.96
3010.00,92.99
3009.00,93.02
3008.00,93.02
3007.00,93.01
3006.00,93.00
3005.00,93.00
3004.00,93.01
3003.00,93.01
3002.00,93.01
3001.00,92.99
3000.00,92.97
2999.00,92.96
2998.00,92.95
2997.00,92.93
2996.00,92.90
2995.00,92.86
2994.00,92.82
2993.00,92.78
2992.00,92.75
2991.00,92.72
2990.00,92.68
2989.00,92.64
2988.00,92.57
2987.00,92.50
2986.00,92.41
2985.00,92.33
2984.00,92.25
2983.00,92.18
2982.00,92.10
2981.00,92.03
2980.00,91.96
2979.00,91.89
2978.00,91.80
2977.00,91.69
2976.00,91.58
2975.00,91.47
2974.00,91.35
2973.00,91.22
2972.00,91.09
2971.00,90.96
2970.00,90.84
2969.00,90.72
2968.00,90.59
2967.00,90.46
2966.00,90.32
2965.00,90.19
2964.00,90.07
2963.00,89.96
2962.00,89.85
2961.00,89.77
2960.00,89.69
2959.00,89.61
2958.00,89.56
2957.00,89.53
2956.00,89.52
2955.00,89.53
2954.00,89.54
2953.00,89.55
2952.00,89.57
2951.00,89.60
2950.00,89.62
2949.00,89.65
2948.00,89.67
2947.00,89.67
2946.00,89.66
2945.00,89.61
2944.00,89.52
2943.00,89.40
2942.00,89.24
2941.00,89.05
2940.00,88.85
2939.00,88.66
2938.00,88.48
2937.00,88.30
2936.00,88.10
2935.00,87.87
2934.00,87.63
2933.00,87.38
2932.00,87.14
2931.00,86.90
2930.00,86.66
2929.00,86.40
2928.00,86.16
2927.00,85.92
2926.00,85.68
2925.00,85.43
2924.00,85.16
2923.00,84.89
2922.00,84.62
2921.00,84.36
2920.00,84.15
2919.00,84.02
2918.00,83.99
2917.00,84.12
2916.00,84.41
2915.00,84.87
2914.00,85.42
2913.00,86.03
2912.00,86.62
2911.00,87.14
2910.00,87.59
2909.00,87.97
2908.00,88.28
2907.00,88.56
2906.00,88.80
2905.00,89.01
2904.00,89.18
2903.00,89.35
2902.00,89.51
2901.00,89.66
2900.00,89.80
2899.00,89.93
2898.00,90.04
2897.00,90.14
2896.00,90.24
2895.00,90.33
2894.00,90.41
2893.00,90.50
2892.00,90.60
2891.00,90.70
2890.00,90.81
2889.00,90.91
2888.00,91.00
2887.00,91.08
2886.00,91.16
2885.00,91.23
2884.00,91.28
2883.00,91.32
2882.00,91.36
2881.00,91.38
2880.00,91.38
2879.00,91.37
2878.00,91.35
2877.00,91.32
2876.00,91.29
2875.00,91.27
2874.00,91.26
2873.00,91.25
2872.00,91.25
2871.00,91.26
2870.00,91.27
2869.00,91.28
2868.00,91.29
2867.00,91.30
2866.00,91.30
2865.00,91.29
2864.00,91.26
2863.00,91.20
2862.00,91.10
2861.00,90.97
2860.00,90.80
2859.00,90.59
2858.00,90.35
2857.00,90.07
2856.00,89.75
2855.00,89.38
2854.00,88.98
2853.00,88.58
2852.00,88.22
2851.00,87.98
2850.00,87.93
2849.00,88.12
2848.00,88.55
2847.00,89.14
2846.00,89.81
2845.00,90.46
2844.00,91.05
2843.00,91.55
2842.00,91.95
2841.00,92.28
2840.00,92.55
2839.00,92.79
2838.00,93.00
2837.00,93.17
2836.00,93.31
2835.00,93.43
2834.00,93.53
2833.00,93.64
2832.00,93.73
2831.00,93.81
2830.00,93.87
2829.00,93.93
2828.00,93.99
2827.00,94.06
2826.00,94.11
2825.00,94.15
2824.00,94.18
2823.00,94.21
2822.00,94.26
2821.00,94.29
2820.00,94.32
2819.00,94.35
2818.00,94.38
2817.00,94.42
2816.00,94.45
2815.00,94.48
2814.00,94.50
2813.00,94.52
2812.00,94.54
2811.00,94.56
2810.00,94.59
2809.00,94.62
2808.00,94.65
2807.00,94.67
2806.00,94.69
2805.00,94.72
2804.00,94.75
2803.00,94.78
2802.00,94.81
2801.00,94.82
2800.00,94.83
2799.00,94.85
2798.00,94.88
2797.00,94.91
2796.00,94.94
2795.00,94.97
2794.00,94.98
2793.00,94.99
2792.00,95.00
2791.00,95.01
2790.00,95.01
2789.00,95.03
2788.00,95.04
2787.00,95.06
2786.00,95.07
2785.00,95.08
2784.00,95.10
2783.00,95.12
2782.00,95.15
2781.00,95.18
2780.00,95.20
2779.00,95.22
2778.00,95.24
2777.00,95.25
2776.00,95.26
2775.00,95.28
2774.00,95.29
2773.00,95.30
2772.00,95.31
2771.00,95.32
2770.00,95.33
2769.00,95.34
2768.00,95.36
2767.00,95.38
2766.00,95.40
2765.00,95.41
2764.00,95.42
2763.00,95.43
2762.00,95.43
2761.00,95.44
2760.00,95.44
2759.00,95.44
2758.00,95.45
2757.00,95.46
2756.00,95.47
2755.00,95.49
2754.00,95.51
2753.00,95.53
2752.00,95.54
2751.00,95.54
2750.00,95.55
2749.00,95.55
2748.00,95.55
2747.00,95.57
2746.00,95.59
2745.00,95.62
2744.00,95.63
2743.00,95.63
2742.00,95.63
2741.00,95.63
2740.00,95.64
2739.00,95.66
2738.00,95.67
2737.00,95.68
2736.00,95.68
2735.00,95.69
2734.00,95.71
2733.00,95.72
2732.00,95.73
2731.00,95.74
2730.00,95.74
2729.00,95.75
2728.00,95.78
2727.00,95.80
2726.00,95.83
2725.00,95.84
2724.00,95.85
2723.00,95.87
2722.00,95.89
2721.00,95.90
2720.00,95.91
2719.00,95.90
2718.00,95.90
2717.00,95.89
2716.00,95.90
2715.00,95.90
2714.00,95.92
2713.00,95.93
2712.00,95.93
2711.00,95.94
2710.00,95.94
2709.00,95.94
2708.00,95.95
2707.00,95.96
2706.00,95.96
2705.00,95.98
2704.00,95.99
2703.00,96.01
2702.00,96.03
2701.00,96.05
2700.00,96.06
2699.00,96.07
2698.00,96.07
2697.00,96.07
2696.00,96.07
2695.00,96.07
2694.00,96.07
2693.00,96.08
2692.00,96.09
2691.00,96.09
2690.00,96.10
2689.00,96.10
2688.00,96.10
2687.00,96.12
2686.00,96.13
2685.00,96.13
2684.00,96.13
2683.00,96.13
2682.00,96.13
2681.00,96.14
2680.00,96.16
2679.00,96.17
2678.00,96.18
2677.00,96.18
2676.00,96.18
2675.00,96.18
2674.00,96.17
2673.00,96.18
2672.00,96.18
2671.00,96.18
2670.00,96.17
2669.00,96.16
2668.00,96.17
2667.00,96.18
2666.00,96.20
2665.00,96.22
2664.00,96.23
2663.00,96.22
2662.00,96.21
2661.00,96.20
2660.00,96.19
2659.00,96.19
2658.00,96.19
2657.00,96.19
2656.00,96.20
2655.00,96.21
2654.00,96.22
2653.00,96.23
2652.00,96.25
2651.00,96.25
2650.00,96.25
2649.00,96.24
2648.00,96.24
2647.00,96.24
2646.00,96.25
2645.00,96.25
2644.00,96.26
2643.00,96.27
2642.00,96.27
2641.00,96.27
2640.00,96.27
2639.00,96.26
2638.00,96.25
2637.00,96.25
2636.00,96.24
2635.00,96.23
2634.00,96.23
2633.00,96.22
2632.00,96.22
2631.00,96.22
2630.00,96.22
2629.00,96.21
2628.00,96.21
2627.00,96.22
2626.00,96.23
2625.00,96.25
2624.00,96.26
2623.00,96.27
2622.00,96.26
2621.00,96.25
2620.00,96.24
2619.00,96.23
2618.00,96.23
2617.00,96.23
2616.00,96.23
2615.00,96.23
2614.00,96.22
2613.00,96.22
2612.00,96.23
2611.00,96.25
2610.00,96.27
2609.00,96.28
2608.00,96.29
2607.00,96.30
2606.00,96.30
2605.00,96.30
2604.00,96.31
2603.00,96.32
2602.00,96.31
2601.00,96.31
2600.00,96.30
2599.00,96.30
2598.00,96.31
2597.00,96.32
2596.00,96.34
2595.00,96.35
2594.00,96.35
2593.00,96.34
2592.00,96.32
2591.00,96.31
2590.00,96.31
2589.00,96.32
2588.00,96.34
2587.00,96.35
2586.00,96.35
2585.00,96.35
2584.00,96.34
2583.00,96.33
2582.00,96.32
2581.00,96.32
2580.00,96.33
2579.00,96.35
2578.00,96.37
2577.00,96.38
2576.00,96.38
2575.00,96.38
2574.00,96.38
2573.00,96.39
2572.00,96.41
2571.00,96.44
2570.00,96.46
2569.00,96.47
2568.00,96.45
2567.00,96.41
2566.00,96.38
2565.00,96.36
2564.00,96.35
2563.00,96.35
2562.00,96.34
2561.00,96.35
2560.00,96.36
2559.00,96.39
2558.00,96.42
2557.00,96.43
2556.00,96.43
2555.00,96.44
2554.00,96.46
2553.00,96.47
2552.00,96.47
2551.00,96.47
2550.00,96.47
2549.00,96.47
2548.00,96.48
2547.00,96.48
2546.00,96.46
2545.00,96.44
2544.00,96.42
2543.00,96.43
2542.00,96.46
2541.00,96.48
2540.00,96.50
2539.00,96.52
2538.00,96.51
2537.00,96.50
2536.00,96.48
2535.00,96.45
2534.00,96.43
2533.00,96.43
2532.00,96.46
2531.00,96.50
2530.00,96.54
2529.00,96.55
2528.00,96.55
2527.00,96.53
2526.00,96.52
2525.00,96.50
2524.00,96.48
2523.00,96.46
2522.00,96.45
2521.00,96.44
2520.00,96.43
2519.00,96.44
2518.00,96.46
2517.00,96.48
2516.00,96.50
2515.00,96.52
2514.00,96.54
2513.00,96.54
2512.00,96.55
2511.00,96.54
2510.00,96.54
2509.00,96.54
2508.00,96.55
2507.00,96.56
2506.00,96.57
2505.00,96.58
2504.00,96.59
2503.00,96.61
2502.00,96.60
2501.00,96.59
2500.00,96.58
2499.00,96.58
2498.00,96.59
2497.00,96.58
2496.00,96.57
2495.00,96.56
2494.00,96.56
2493.00,96.57
2492.00,96.58
2491.00,96.59
2490.00,96.61
2489.00,96.62
2488.00,96.62
2487.00,96.62
2486.00,96.62
2485.00,96.63
2484.00,96.65
2483.00,96.70
2482.00,96.74
2481.00,96.76
2480.00,96.75
2479.00,96.73
2478.00,96.71
2477.00,96.70
2476.00,96.70
2475.00,96.69
2474.00,96.70
2473.00,96.71
2472.00,96.73
2471.00,96.75
2470.00,96.76
2469.00,96.75
2468.00,96.73
2467.00,96.71
2466.00,96.70
2465.00,96.71
2464.00,96.71
2463.00,96.72
2462.00,96.72
2461.00,96.71
2460.00,96.71
2459.00,96.72
2458.00,96.74
2457.00,96.75
2456.00,96.76
2455.00,96.75
2454.00,96.74
2453.00,96.72
2452.00,96.70
2451.00,96.69
2450.00,96.70
2449.00,96.73
2448.00,96.76
2447.00,96.78
2446.00,96.78
2445.00,96.77
2444.00,96.76
2443.00,96.78
2442.00,96.82
2441.00,96.85
2440.00,96.87
2439.00,96.87
2438.00,96.86
2437.00,96.84
2436.00,96.84
2435.00,96.83
2434.00,96.83
2433.00,96.81
2432.00,96.80
2431.00,96.80
2430.00,96.82
2429.00,96.84
2428.00,96.87
2427.00,96.89
2426.00,96.91
2425.00,96.90
2424.00,96.89
2423.00,96.88
2422.00,96.86
2421.00,96.85
2420.00,96.84
2419.00,96.82
2418.00,96.82
2417.00,96.82
2416.00,96.84
2415.00,96.88
2414.00,96.91
2413.00,96.93
2412.00,96.94
2411.00,96.94
2410.00,96.93
2409.00,96.93
2408.00,96.93
2407.00,96.95
2406.00,96.96
2405.00,96.96
2404.00,96.96
2403.00,96.97
2402.00,96.99
2401.00,97.00
2400.00,96.99
2399.00,96.98
2398.00,96.97
2397.00,96.96
2396.00,96.98
2395.00,97.00
2394.00,97.03
2393.00,97.05
2392.00,97.05
2391.00,97.05
2390.00,97.05
2389.00,97.07
2388.00,97.09
2387.00,97.11
2386.00,97.10
2385.00,97.08
2384.00,97.06
2383.00,97.05
2382.00,97.06
2381.00,97.09
2380.00,97.12
2379.00,97.14
2378.00,97.15
2377.00,97.15
2376.00,97.14
2375.00,97.15
2374.00,97.16
2373.00,97.16
2372.00,97.16
2371.00,97.14
2370.00,97.12
2369.00,97.09
2368.00,97.08
2367.00,97.12
2366.00,97.19
2365.00,97.24
2364.00,97.24
2363.00,97.20
2362.00,97.15
2361.00,97.15
2360.00,97.18
2359.00,97.22
2358.00,97.23
2357.00,97.21
2356.00,97.19
2355.00,97.17
2354.00,97.14
2353.00,97.13
2352.00,97.14
2351.00,97.17
2350.00,97.21
2349.00,97.25
2348.00,97.28
2347.00,97.30
2346.00,97.29
2345.00,97.26
2344.00,97.24
2343.00,97.23
2342.00,97.24
2341.00,97.25
2340.00,97.25
2339.00,97.23
2338.00,97.21
2337.00,97.22
2336.00,97.25
2335.00,97.29
2334.00,97.30
2333.00,97.27
2332.00,97.23
2331.00,97.21
2330.00,97.21
2329.00,97.22
2328.00,97.24
2327.00,97.27
2326.00,97.27
2325.00,97.24
2324.00,97.20
2323.00,97.17
2322.00,97.15
2321.00,97.15
2320.00,97.15
2319.00,97.15
2318.00,97.14
2317.00,97.14
2316.00,97.13
2315.00,97.13
2314.00,97.12
2313.00,97.11
2312.00,97.10
2311.00,97.10
2310.00,97.09
2309.00,97.07
2308.00,97.04
2307.00,97.00
2306.00,96.98
2305.00,96.96
2304.00,96.96
2303.00,96.98
2302.00,96.98
2301.00,96.98
2300.00,96.98
2299.00,96.99
2298.00,97.02
2297.00,97.04
2296.00,97.04
2295.00,97.03
2294.00,97.00
2293.00,96.96
2292.00,96.92
2291.00,96.88
2290.00,96.87
2289.00,96.87
2288.00,96.88
2287.00,96.90
2286.00,96.90
2285.00,96.88
2284.00,96.85
2283.00,96.83
2282.00,96.84
2281.00,96.85
2280.00,96.86
2279.00,96.86
2278.00,96.87
2277.00,96.87
2276.00,96.87
2275.00,96.86
2274.00,96.85
2273.00,96.83
2272.00,96.81
2271.00,96.81
2270.00,96.81
2269.00,96.80
2268.00,96.79
2267.00,96.80
2266.00,96.82
2265.00,96.83
2264.00,96.81
2263.00,96.77
2262.00,96.73
2261.00,96.69
2260.00,96.67
2259.00,96.66
2258.00,96.68
2257.00,96.70
2256.00,96.74
2255.00,96.78
2254.00,96.78
2253.00,96.74
2252.00,96.69
2251.00,96.67
2250.00,96.72
2249.00,96.80
2248.00,96.84
2247.00,96.83
2246.00,96.79
2245.00,96.77
2244.00,96.77
2243.00,96.77
2242.00,96.74
2241.00,96.69
2240.00,96.65
2239.00,96.65
2238.00,96.68
2237.00,96.71
2236.00,96.73
2235.00,96.73
2234.00,96.72
2233.00,96.71
2232.00,96.71
2231.00,96.70
2230.00,96.69
2229.00,96.67
2228.00,96.66
2227.00,96.65
2226.00,96.63
2225.00,96.58
2224.00,96.53
2223.00,96.50
2222.00,96.50
2221.00,96.50
2220.00,96.49
2219.00,96.51
2218.00,96.52
2217.00,96.53
2216.00,96.50
2215.00,96.47
2214.00,96.45
2213.00,96.44
2212.00,96.46
2211.00,96.49
2210.00,96.53
2209.00,96.55
2208.00,96.54
2207.00,96.50
2206.00,96.46
2205.00,96.43
2204.00,96.42
2203.00,96.40
2202.00,96.38
2201.00,96.37
2200.00,96.39
2199.00,96.44
2198.00,96.46
2197.00,96.43
2196.00,96.38
2195.00,96.34
2194.00,96.33
2193.00,96.36
2192.00,96.42
2191.00,96.48
2190.00,96.52
2189.00,96.52
2188.00,96.49
2187.00,96.46
2186.00,96.42
2185.00,96.37
2184.00,96.30
2183.00,96.26
2182.00,96.28
2181.00,96.32
2180.00,96.34
2179.00,96.31
2178.00,96.25
2177.00,96.21
2176.00,96.23
2175.00,96.28
2174.00,96.32
2173.00,96.31
2172.00,96.28
2171.00,96.25
2170.00,96.21
2169.00,96.15
2168.00,96.09
2167.00,96.07
2166.00,96.09
2165.00,96.12
2164.00,96.10
2163.00,96.04
2162.00,95.96
2161.00,95.92
2160.00,95.98
2159.00,96.10
2158.00,96.22
2157.00,96.29
2156.00,96.29
2155.00,96.30
2154.00,96.34
2153.00,96.41
2152.00,96.46
2151.00,96.48
2150.00,96.47
2149.00,96.44
2148.00,96.43
2147.00,96.45
2146.00,96.49
2145.00,96.52
2144.00,96.55
2143.00,96.59
2142.00,96.63
2141.00,96.62
2140.00,96.60
2139.00,96.60
2138.00,96.62
2137.00,96.66
2136.00,96.69
2135.00,96.70
2134.00,96.70
2133.00,96.71
2132.00,96.74
2131.00,96.79
2130.00,96.84
2129.00,96.87
2128.00,96.87
2127.00,96.87
2126.00,96.89
2125.00,96.89
2124.00,96.87
2123.00,96.83
2122.00,96.79
2121.00,96.76
2120.00,96.76
2119.00,96.78
2118.00,96.80
2117.00,96.79
2116.00,96.76
2115.00,96.74
2114.00,96.72
2113.00,96.70
2112.00,96.69
2111.00,96.71
2110.00,96.76
2109.00,96.80
2108.00,96.82
2107.00,96.83
2106.00,96.84
2105.00,96.85
2104.00,96.85
2103.00,96.83
2102.00,96.82
2101.00,96.81
2100.00,96.82
2099.00,96.87
2098.00,96.93
2097.00,96.95
2096.00,96.94
2095.00,96.89
2094.00,96.85
2093.00,96.81
2092.00,96.79
2091.00,96.79
2090.00,96.80
2089.00,96.81
2088.00,96.81
2087.00,96.82
2086.00,96.84
2085.00,96.85
2084.00,96.85
2083.00,96.85
2082.00,96.85
2081.00,96.85
2080.00,96.85
2079.00,96.85
2078.00,96.85
2077.00,96.86
2076.00,96.88
2075.00,96.89
2074.00,96.90
2073.00,96.90
2072.00,96.92
2071.00,96.93
2070.00,96.90
2069.00,96.82
2068.00,96.73
2067.00,96.66
2066.00,96.65
2065.00,96.70
2064.00,96.78
2063.00,96.85
2062.00,96.90
2061.00,96.90
2060.00,96.88
2059.00,96.84
2058.00,96.79
2057.00,96.74
2056.00,96.70
2055.00,96.71
2054.00,96.72
2053.00,96.71
2052.00,96.70
2051.00,96.69
2050.00,96.68
2049.00,96.67
2048.00,96.64
2047.00,96.61
2046.00,96.56
2045.00,96.52
2044.00,96.50
2043.00,96.51
2042.00,96.56
2041.00,96.62
2040.00,96.67
2039.00,96.70
2038.00,96.68
2037.00,96.63
2036.00,96.57
2035.00,96.55
2034.00,96.55
2033.00,96.54
2032.00,96.55
2031.00,96.58
2030.00,96.62
2029.00,96.66
2028.00,96.69
2027.00,96.70
2026.00,96.67
2025.00,96.59
2024.00,96.49
2023.00,96.46
2022.00,96.48
2021.00,96.50
2020.00,96.51
2019.00,96.52
2018.00,96.53
2017.00,96.55
2016.00,96.56
2015.00,96.58
2014.00,96.60
2013.00,96.61
2012.00,96.60
2011.00,96.62
2010.00,96.64
2009.00,96.65
2008.00,96.66
2007.00,96.68
2006.00,96.72
2005.00,96.76
2004.00,96.76
2003.00,96.74
2002.00,96.73
2001.00,96.73
2000.00,96.76
1999.00,96.80
1998.00,96.85
1997.00,96.87
1996.00,96.87
1995.00,96.86
1994.00,96.83
1993.00,96.80
1992.00,96.78
1991.00,96.78
1990.00,96.77
1989.00,96.74
1988.00,96.71
1987.00,96.68
1986.00,96.66
1985.00,96.65
1984.00,96.65
1983.00,96.66
1982.00,96.66
1981.00,96.63
1980.00,96.59
1979.00,96.57
1978.00,96.60
1977.00,96.67
1976.00,96.73
1975.00,96.76
1974.00,96.74
1973.00,96.68
1972.00,96.65
1971.00,96.66
1970.00,96.68
1969.00,96.69
1968.00,96.69
1967.00,96.72
1966.00,96.76
1965.00,96.77
1964.00,96.74
1963.00,96.74
1962.00,96.77
1961.00,96.82
1960.00,96.86
1959.00,96.88
1958.00,96.91
1957.00,96.96
1956.00,96.99
1955.00,97.01
1954.00,97.01
1953.00,97.00
1952.00,96.99
1951.00,97.00
1950.00,97.01
1949.00,97.00
1948.00,97.00
1947.00,97.02
1946.00,97.08
1945.00,97.13
1944.00,97.14
1943.00,97.10
1942.00,97.05
1941.00,97.00
1940.00,96.98
1939.00,97.01
1938.00,97.06
1937.00,97.10
1936.00,97.13
1935.00,97.16
1934.00,97.19
1933.00,97.21
1932.00,97.22
1931.00,97.22
1930.00,97.21
1929.00,97.20
1928.00,97.19
1927.00,97.22
1926.00,97.26
1925.00,97.27
1924.00,97.25
1923.00,97.24
1922.00,97.25
1921.00,97.26
1920.00,97.26
1919.00,97.25
1918.00,97.24
1917.00,97.24
1916.00,97.24
1915.00,97.23
1914.00,97.22
1913.00,97.20
1912.00,97.18
1911.00,97.19
1910.00,97.23
1909.00,97.25
1908.00,97.27
1907.00,97.28
1906.00,97.30
1905.00,97.31
1904.00,97.32
1903.00,97.33
1902.00,97.35
1901.00,97.35
1900.00,97.35
1899.00,97.34
1898.00,97.33
1897.00,97.34
1896.00,97.38
1895.00,97.44
1894.00,97.50
1893.00,97.52
1892.00,97.48
1891.00,97.43
1890.00,97.39
1889.00,97.39
1888.00,97.40
1887.00,97.42
1886.00,97.43
1885.00,97.42
1884.00,97.41
1883.00,97.43
1882.00,97.45
1881.00,97.46
1880.00,97.46
1879.00,97.48
1878.00,97.50
1877.00,97.52
1876.00,97.52
1875.00,97.53
1874.00,97.54
1873.00,97.56
1872.00,97.57
1871.00,97.55
1870.00,97.53
1869.00,97.53
1868.00,97.53
1867.00,97.52
1866.00,97.51
1865.00,97.49
1864.00,97.48
1863.00,97.49
1862.00,97.49
1861.00,97.49
1860.00,97.47
1859.00,97.47
1858.00,97.49
1857.00,97.51
1856.00,97.52
1855.00,97.53
1854.00,97.53
1853.00,97.52
1852.00,97.51
1851.00,97.51
1850.00,97.51
1849.00,97.51
1848.00,97.53
1847.00,97.57
1846.00,97.63
1845.00,97.67
1844.00,97.70
1843.00,97.71
1842.00,97.69
1841.00,97.65
1840.00,97.61
1839.00,97.60
1838.00,97.60
1837.00,97.60
1836.00,97.61
1835.00,97.63
1834.00,97.64
1833.00,97.65
1832.00,97.64
1831.00,97.63
1830.00,97.63
1829.00,97.62
1828.00,97.61
1827.00,97.59
1826.00,97.57
1825.00,97.57
1824.00,97.57
1823.00,97.57
1822.00,97.57
1821.00,97.56
1820.00,97.57
1819.00,97.58
1818.00,97.60
1817.00,97.61
1816.00,97.62
1815.00,97.63
1814.00,97.63
1813.00,97.61
1812.00,97.58
1811.00,97.57
1810.00,97.57
1809.00,97.57
1808.00,97.56
1807.00,97.56
1806.00,97.57
1805.00,97.57
1804.00,97.57
1803.00,97.56
1802.00,97.56
1801.00,97.57
1800.00,97.57
1799.00,97.57
1798.00,97.57
1797.00,97.55
1796.00,97.54
1795.00,97.53
1794.00,97.53
1793.00,97.50
1792.00,97.48
1791.00,97.48
1790.00,97.48
1789.00,97.45
1788.00,97.41
1787.00,97.38
1786.00,97.36
1785.00,97.35
1784.00,97.32
1783.00,97.30
1782.00,97.27
1781.00,97.24
1780.00,97.22
1779.00,97.20
1778.00,97.17
1777.00,97.13
1776.00,97.09
1775.00,97.07
1774.00,97.04
1773.00,97.01
1772.00,96.98
1771.00,96.96
1770.00,96.93
1769.00,96.85
1768.00,96.77
1767.00,96.72
1766.00,96.69
1765.00,96.63
1764.00,96.56
1763.00,96.51
1762.00,96.48
1761.00,96.47
1760.00,96.44
1759.00,96.38
1758.00,96.30
1757.00,96.21
1756.00,96.14
1755.00,96.09
1754.00,96.03
1753.00,95.92
1752.00,95.76
1751.00,95.58
1750.00,95.41
1749.00,95.23
1748.00,95.06
1747.00,94.91
1746.00,94.78
1745.00,94.66
1744.00,94.53
1743.00,94.43
1742.00,94.33
1741.00,94.21
1740.00,94.05
1739.00,93.92
1738.00,93.82
1737.00,93.74
1736.00,93.65
1735.00,93.56
1734.00,93.51
1733.00,93.50
1732.00,93.49
1731.00,93.47
1730.00,93.47
1729.00,93.49
1728.00,93.50
1727.00,93.51
1726.00,93.52
1725.00,93.52
1724.00,93.51
1723.00,93.50
1722.00,93.49
1721.00,93.45
1720.00,93.38
1719.00,93.27
1718.00,93.17
1717.00,93.06
1716.00,92.95
1715.00,92.86
1714.00,92.77
1713.00,92.67
1712.00,92.55
1711.00,92.44
1710.00,92.34
1709.00,92.23
1708.00,92.09
1707.00,91.92
1706.00,91.73
1705.00,91.53
1704.00,91.35
1703.00,91.20
1702.00,91.01
1701.00,90.72
1700.00,90.36
1699.00,90.05
1698.00,89.75
1697.00,89.37
1696.00,88.94
1695.00,88.57
1694.00,88.26
1693.00,87.93
1692.00,87.56
1691.00,87.18
1690.00,86.82
1689.00,86.49
1688.00,86.19
1687.00,85.93
1686.00,85.64
1685.00,85.25
1684.00,84.84
1683.00,84.53
1682.00,84.26
1681.00,83.93
1680.00,83.57
1679.00,83.27
1678.00,83.02
1677.00,82.75
1676.00,82.42
1675.00,82.07
1674.00,81.76
1673.00,81.46
1672.00,81.16
1671.00,80.84
1670.00,80.51
1669.00,80.19
1668.00,79.87
1667.00,79.57
1666.00,79.28
1665.00,78.97
1664.00,78.61
1663.00,78.24
1662.00,77.89
1661.00,77.55
1660.00,77.19
1659.00,76.84
1658.00,76.52
1657.00,76.26
1656.00,76.03
1655.00,75.78
1654.00,75.41
1653.00,74.97
1652.00,74.62
1651.00,74.36
1650.00,74.12
1649.00,73.87
1648.00,73.60
1647.00,73.37
1646.00,73.23
1645.00,73.10
1644.00,72.94
1643.00,72.78
1642.00,72.65
1641.00,72.55
1640.00,72.46
1639.00,72.40
1638.00,72.35
1637.00,72.30
1636.00,72.26
1635.00,72.24
1634.00,72.20
1633.00,72.12
1632.00,72.02
1631.00,71.95
1630.00,71.94
1629.00,71.96
1628.00,71.99
1627.00,72.04
1626.00,72.10
1625.00,72.19
1624.00,72.32
1623.00,72.50
1622.00,72.70
1621.00,72.88
1620.00,73.02
1619.00,73.18
1618.00,73.41
1617.00,73.73
1616.00,74.10
1615.00,74.42
1614.00,74.66
1613.00,74.88
1612.00,75.11
1611.00,75.39
1610.00,75.69
1609.00,75.98
1608.00,76.27
1607.00,76.53
1606.00,76.77
1605.00,76.97
1604.00,77.16
1603.00,77.33
1602.00,77.49
1601.00,77.64
1600.00,77.79
1599.00,77.94
1598.00,78.08
1597.00,78.22
1596.00,78.35
1595.00,78.49
1594.00,78.61
1593.00,78.71
1592.00,78.79
1591.00,78.87
1590.00,78.94
1589.00,79.00
1588.00,79.05
1587.00,79.08
1586.00,79.08
1585.00,79.07
1584.00,79.06
1583.00,79.04
1582.00,78.99
1581.00,78.93
1580.00,78.88
1579.00,78.80
1578.00,78.71
1577.00,78.60
1576.00,78.53
1575.00,78.49
1574.00,78.42
1573.00,78.32
1572.00,78.19
1571.00,78.05
1570.00,77.91
1569.00,77.80
1568.00,77.68
1567.00,77.53
1566.00,77.34
1565.00,77.14
1564.00,76.98
1563.00,76.86
1562.00,76.76
1561.00,76.66
1560.00,76.49
1559.00,76.21
1558.00,75.99
1557.00,75.79
1556.00,75.53
1555.00,75.24
1554.00,74.97
1553.00,74.73
1552.00,74.51
1551.00,74.29
1550.00,74.06
1549.00,73.86
1548.00,73.70
1547.00,73.56
1546.00,73.42
1545.00,73.30
1544.00,73.19
1543.00,73.11
1542.00,73.03
1541.00,72.93
1540.00,72.87
1539.00,72.86
1538.00,72.83
1537.00,72.78
1536.00,72.72
1535.00,72.67
1534.00,72.66
1533.00,72.70
1532.00,72.74
1531.00,72.77
1530.00,72.79
1529.00,72.83
1528.00,72.89
1527.00,72.98
1526.00,73.07
1525.00,73.17
1524.00,73.24
1523.00,73.30
1522.00,73.37
1521.00,73.47
1520.00,73.53
1519.00,73.55
1518.00,73.53
1517.00,73.54
1516.00,73.61
1515.00,73.71
1514.00,73.83
1513.00,73.99
1512.00,74.18
1511.00,74.39
1510.00,74.58
1509.00,74.79
1508.00,75.09
1507.00,75.57
1506.00,76.12
1505.00,76.49
1504.00,76.69
1503.00,76.86
1502.00,77.07
1501.00,77.36
1500.00,77.69
1499.00,78.05
1498.00,78.42
1497.00,78.81
1496.00,79.20
1495.00,79.57
1494.00,79.90
1493.00,80.20
1492.00,80.50
1491.00,80.83
1490.00,81.22
1489.00,81.62
1488.00,81.96
1487.00,82.25
1486.00,82.51
1485.00,82.72
1484.00,82.89
1483.00,83.03
1482.00,83.17
1481.00,83.29
1480.00,83.38
1479.00,83.44
1478.00,83.45
1477.00,83.39
1476.00,83.25
1475.00,83.04
1474.00,82.77
1473.00,82.43
1472.00,82.10
1471.00,81.83
1470.00,81.60
1469.00,81.39
1468.00,81.19
1467.00,81.03
1466.00,80.91
1465.00,80.80
1464.00,80.72
1463.00,80.69
1462.00,80.70
1461.00,80.74
1460.00,80.77
1459.00,80.79
1458.00,80.77
1457.00,80.72
1456.00,80.66
1455.00,80.58
1454.00,80.51
1453.00,80.46
1452.00,80.46
1451.00,80.49
1450.00,80.53
1449.00,80.57
1448.00,80.60
1447.00,80.63
1446.00,80.67
1445.00,80.71
1444.00,80.74
1443.00,80.78
1442.00,80.84
1441.00,80.91
1440.00,80.99
1439.00,81.09
1438.00,81.21
1437.00,81.36
1436.00,81.50
1435.00,81.60
1434.00,81.68
1433.00,81.75
1432.00,81.84
1431.00,81.93
1430.00,82.02
1429.00,82.09
1428.00,82.12
1427.00,82.12
1426.00,82.10
1425.00,82.07
1424.00,82.02
1423.00,81.96
1422.00,81.89
1421.00,81.81
1420.00,81.69
1419.00,81.55
1418.00,81.41
1417.00,81.29
1416.00,81.15
1415.00,81.00
1414.00,80.87
1413.00,80.74
1412.00,80.61
1411.00,80.49
1410.00,80.37
1409.00,80.27
1408.00,80.16
1407.00,80.03
1406.00,79.89
1405.00,79.75
1404.00,79.62
1403.00,79.52
1402.00,79.44
1401.00,79.36
1400.00,79.27
1399.00,79.18
1398.00,79.10
1397.00,79.02
1396.00,78.94
1395.00,78.88
1394.00,78.85
1393.00,78.83
1392.00,78.80
1391.00,78.77
1390.00,78.75
1389.00,78.73
1388.00,78.71
1387.00,78.70
1386.00,78.71
1385.00,78.73
1384.00,78.75
1383.00,78.80
1382.00,78.87
1381.00,78.94
1380.00,79.03
1379.00,79.13
1378.00,79.25
1377.00,79.37
1376.00,79.50
1375.00,79.64
1374.00,79.80
1373.00,79.95
1372.00,80.08
1371.00,80.19
1370.00,80.30
1369.00,80.41
1368.00,80.51
1367.00,80.62
1366.00,80.74
1365.00,80.87
1364.00,81.01
1363.00,81.17
1362.00,81.33
1361.00,81.47
1360.00,81.59
1359.00,81.68
1358.00,81.75
1357.00,81.81
1356.00,81.87
1355.00,81.93
1354.00,81.99
1353.00,82.05
1352.00,82.11
1351.00,82.15
1350.00,82.19
1349.00,82.22
1348.00,82.24
1347.00,82.25
1346.00,82.26
1345.00,82.27
1344.00,82.28
1343.00,82.30
1342.00,82.31
1341.00,82.32
1340.00,82.35
1339.00,82.39
1338.00,82.44
1337.00,82.48
1336.00,82.50
1335.00,82.52
1334.00,82.53
1333.00,82.54
1332.00,82.56
1331.00,82.57
1330.00,82.58
1329.00,82.58
1328.00,82.58
1327.00,82.59
1326.00,82.60
1325.00,82.60
1324.00,82.58
1323.00,82.55
1322.00,82.52
1321.00,82.48
1320.00,82.45
1319.00,82.42
1318.00,82.38
1317.00,82.33
1316.00,82.28
1315.00,82.24
1314.00,82.22
1313.00,82.21
1312.00,82.22
1311.00,82.24
1310.00,82.26
1309.00,82.26
1308.00,82.26
1307.00,82.26
1306.00,82.27
1305.00,82.27
1304.00,82.27
1303.00,82.27
1302.00,82.28
1301.00,82.29
1300.00,82.30
1299.00,82.31
1298.00,82.32
1297.00,82.34
1296.00,82.37
1295.00,82.39
1294.00,82.39
1293.00,82.38
1292.00,82.36
1291.00,82.35
1290.00,82.36
1289.00,82.37
1288.00,82.39
1287.00,82.40
1286.00,82.40
1285.00,82.39
1284.00,82.39
1283.00,82.38
1282.00,82.38
1281.00,82.38
1280.00,82.37
1279.00,82.35
1278.00,82.34
1277.00,82.31
1276.00,82.27
1275.00,82.23
1274.00,82.18
1273.00,82.14
1272.00,82.09
1271.00,82.05
1270.00,82.01
1269.00,81.97
1268.00,81.93
1267.00,81.89
1266.00,81.86
1265.00,81.82
1264.00,81.78
1263.00,81.73
1262.00,81.68
1261.00,81.62
1260.00,81.56
1259.00,81.50
1258.00,81.43
1257.00,81.36
1256.00,81.28
1255.00,81.20
1254.00,81.13
1253.00,81.06
1252.00,81.00
1251.00,80.94
1250.00,80.88
1249.00,80.82
1248.00,80.74
1247.00,80.66
1246.00,80.58
1245.00,80.50
1244.00,80.44
1243.00,80.40
1242.00,80.38
1241.00,80.36
1240.00,80.33
1239.00,80.29
1238.00,80.26
1237.00,80.24
1236.00,80.23
1235.00,80.25
1234.00,80.29
1233.00,80.32
1232.00,80.36
1231.00,80.39
1230.00,80.44
1229.00,80.50
1228.00,80.57
1227.00,80.65
1226.00,80.72
1225.00,80.80
1224.00,80.88
1223.00,80.95
1222.00,81.03
1221.00,81.12
1220.00,81.21
1219.00,81.32
1218.00,81.43
1217.00,81.53
1216.00,81.62
1215.00,81.71
1214.00,81.79
1213.00,81.86
1212.00,81.94
1211.00,82.01
1210.00,82.07
1209.00,82.11
1208.00,82.14
1207.00,82.17
1206.00,82.20
1205.00,82.24
1204.00,82.28
1203.00,82.33
1202.00,82.37
1201.00,82.42
1200.00,82.47
1199.00,82.54
1198.00,82.60
1197.00,82.66
1196.00,82.70
1195.00,82.74
1194.00,82.77
1193.00,82.81
1192.00,82.84
1191.00,82.87
1190.00,82.89
1189.00,82.89
1188.00,82.89
1187.00,82.88
1186.00,82.89
1185.00,82.89
1184.00,82.90
1183.00,82.90
1182.00,82.89
1181.00,82.87
1180.00,82.83
1179.00,82.77
1178.00,82.70
1177.00,82.65
1176.00,82.62
1175.00,82.60
1174.00,82.59
1173.00,82.58
1172.00,82.59
1171.00,82.61
1170.00,82.65
1169.00,82.71
1168.00,82.77
1167.00,82.83
1166.00,82.90
1165.00,82.98
1164.00,83.05
1163.00,83.13
1162.00,83.21
1161.00,83.26
1160.00,83.30
1159.00,83.35
1158.00,83.42
1157.00,83.52
1156.00,83.62
1155.00,83.69
1154.00,83.74
1153.00,83.79
1152.00,83.87
1151.00,83.97
1150.00,84.08
1149.00,84.18
1148.00,84.26
1147.00,84.34
1146.00,84.43
1145.00,84.52
1144.00,84.60
1143.00,84.67
1142.00,84.72
1141.00,84.77
1140.00,84.79
1139.00,84.80
1138.00,84.79
1137.00,84.78
1136.00,84.80
1135.00,84.81
1134.00,84.80
1133.00,84.76
1132.00,84.69
1131.00,84.63
1130.00,84.59
1129.00,84.56
1128.00,84.54
1127.00,84.50
1126.00,84.45
1125.00,84.38
1124.00,84.31
1123.00,84.28
1122.00,84.26
1121.00,84.26
1120.00,84.23
1119.00,84.18
1118.00,84.14
1117.00,84.10
1116.00,84.06
1115.00,84.02
1114.00,83.98
1113.00,83.95
1112.00,83.93
1111.00,83.91
1110.00,83.90
1109.00,83.88
1108.00,83.85
1107.00,83.83
1106.00,83.82
1105.00,83.81
1104.00,83.79
1103.00,83.76
1102.00,83.72
1101.00,83.67
1100.00,83.62
1099.00,83.59
1098.00,83.58
1097.00,83.57
1096.00,83.56
1095.00,83.55
1094.00,83.53
1093.00,83.50
1092.00,83.45
1091.00,83.41
1090.00,83.37
1089.00,83.31
1088.00,83.24
1087.00,83.17
1086.00,83.10
1085.00,83.02
1084.00,82.91
1083.00,82.81
1082.00,82.71
1081.00,82.63
1080.00,82.57
1079.00,82.52
1078.00,82.50
1077.00,82.49
1076.00,82.49
1075.00,82.49
1074.00,82.50
1073.00,82.51
1072.00,82.52
1071.00,82.55
1070.00,82.61
1069.00,82.67
1068.00,82.71
1067.00,82.73
1066.00,82.76
1065.00,82.79
1064.00,82.81
1063.00,82.81
1062.00,82.83
1061.00,82.87
1060.00,82.90
1059.00,82.93
1058.00,82.93
1057.00,82.92
1056.00,82.88
1055.00,82.85
1054.00,82.85
1053.00,82.87
1052.00,82.91
1051.00,82.93
1050.00,82.93
1049.00,82.89
1048.00,82.82
1047.00,82.76
1046.00,82.72
1045.00,82.71
1044.00,82.71
1043.00,82.71
1042.00,82.73
1041.00,82.74
1040.00,82.78
1039.00,82.86
1038.00,82.97
1037.00,83.08
1036.00,83.18
1035.00,83.28
1034.00,83.36
1033.00,83.43
1032.00,83.49
1031.00,83.55
1030.00,83.62
1029.00,83.72
1028.00,83.82
1027.00,83.92
1026.00,84.04
1025.00,84.16
1024.00,84.27
1023.00,84.38
1022.00,84.48
1021.00,84.57
1020.00,84.66
1019.00,84.75
1018.00,84.86
1017.00,84.98
1016.00,85.08
1015.00,85.16
1014.00,85.23
1013.00,85.30
1012.00,85.36
1011.00,85.43
1010.00,85.50
1009.00,85.57
1008.00,85.64
1007.00,85.72
1006.00,85.81
1005.00,85.89
1004.00,85.96
1003.00,86.01
1002.00,86.07
1001.00,86.14
1000.00,86.22
999.00,86.30
998.00,86.37
997.00,86.44
996.00,86.51
995.00,86.58
994.00,86.65
993.00,86.73
992.00,86.81
991.00,86.88
990.00,86.95
989.00,87.01
988.00,87.06
987.00,87.11
986.00,87.16
985.00,87.23
984.00,87.28
983.00,87.32
982.00,87.36
981.00,87.41
980.00,87.47
979.00,87.53
978.00,87.58
977.00,87.63
976.00,87.68
975.00,87.74
974.00,87.81
973.00,87.90
972.00,87.98
971.00,88.04
970.00,88.10
969.00,88.17
968.00,88.24
967.00,88.31
966.00,88.35
965.00,88.37
964.00,88.37
963.00,88.38
962.00,88.41
961.00,88.44
960.00,88.47
959.00,88.48
958.00,88.48
957.00,88.49
956.00,88.52
955.00,88.55
954.00,88.58
953.00,88.62
952.00,88.67
951.00,88.71
950.00,88.74
949.00,88.75
948.00,88.76
947.00,88.77
946.00,88.79
945.00,88.82
944.00,88.85
943.00,88.88
942.00,88.89
941.00,88.88
940.00,88.86
939.00,88.84
938.00,88.82
937.00,88.82
936.00,88.81
935.00,88.80
934.00,88.77
933.00,88.76
932.00,88.77
931.00,88.79
930.00,88.81
929.00,88.80
928.00,88.79
927.00,88.77
926.00,88.76
925.00,88.75
924.00,88.77
923.00,88.79
922.00,88.83
921.00,88.88
920.00,88.94
919.00,89.00
918.00,89.05
917.00,89.08
916.00,89.10
915.00,89.11
914.00,89.13
913.00,89.16
912.00,89.19
911.00,89.21
910.00,89.23
909.00,89.24
908.00,89.26
907.00,89.28
906.00,89.30
905.00,89.32
904.00,89.32
903.00,89.32
902.00,89.32
901.00,89.32
900.00,89.34
899.00,89.34
898.00,89.33
897.00,89.31
896.00,89.30
895.00,89.30
894.00,89.28
893.00,89.24
892.00,89.19
891.00,89.16
890.00,89.16
889.00,89.19
888.00,89.21
887.00,89.20
886.00,89.17
885.00,89.15
884.00,89.14
883.00,89.16
882.00,89.17
881.00,89.16
880.00,89.13
879.00,89.07
878.00,89.01
877.00,88.96
876.00,88.93
875.00,88.89
874.00,88.87
873.00,88.87
872.00,88.89
871.00,88.90
870.00,88.91
869.00,88.91
868.00,88.89
867.00,88.87
866.00,88.83
865.00,88.81
864.00,88.79
863.00,88.78
862.00,88.75
861.00,88.71
860.00,88.65
859.00,88.60
858.00,88.57
857.00,88.56
856.00,88.56
855.00,88.56
854.00,88.55
853.00,88.51
852.00,88.45
851.00,88.39
850.00,88.33
849.00,88.27
848.00,88.21
847.00,88.15
846.00,88.10
845.00,88.05
844.00,88.00
843.00,87.93
842.00,87.86
841.00,87.79
840.00,87.73
839.00,87.65
838.00,87.58
837.00,87.53
836.00,87.49
835.00,87.46
834.00,87.42
833.00,87.35
832.00,87.27
831.00,87.18
830.00,87.10
829.00,87.06
828.00,87.05
827.00,87.05
826.00,87.02
825.00,86.96
824.00,86.89
823.00,86.86
822.00,86.86
821.00,86.85
820.00,86.79
819.00,86.68
818.00,86.57
817.00,86.49
816.00,86.43
815.00,86.38
814.00,86.32
813.00,86.24
812.00,86.14
811.00,86.04
810.00,85.95
809.00,85.87
808.00,85.79
807.00,85.69
806.00,85.58
805.00,85.48
804.00,85.40
803.00,85.32
802.00,85.26
801.00,85.19
800.00,85.13
799.00,85.06
798.00,85.00
797.00,84.92
796.00,84.83
795.00,84.72
794.00,84.62
793.00,84.51
792.00,84.42
791.00,84.33
790.00,84.25
789.00,84.18
788.00,84.11
787.00,84.05
786.00,83.99
785.00,83.93
784.00,83.86
783.00,83.79
782.00,83.75
781.00,83.72
780.00,83.70
779.00,83.69
778.00,83.68
777.00,83.66
776.00,83.63
775.00,83.59
774.00,83.55
773.00,83.52
772.00,83.50
771.00,83.47
770.00,83.43
769.00,83.37
768.00,83.28
767.00,83.19
766.00,83.11
765.00,83.05
764.00,82.99
763.00,82.93
762.00,82.86
761.00,82.79
760.00,82.73
759.00,82.68
758.00,82.61
757.00,82.51
756.00,82.41
755.00,82.34
754.00,82.29
753.00,82.22
752.00,82.12
751.00,82.00
750.00,81.91
749.00,81.82
748.00,81.74
747.00,81.66
746.00,81.59
745.00,81.54
744.00,81.48
743.00,81.39
742.00,81.29
741.00,81.19
740.00,81.12
739.00,81.08
738.00,81.02
737.00,80.93
736.00,80.83
735.00,80.74
734.00,80.69
733.00,80.62
732.00,80.51
731.00,80.38
730.00,80.26
729.00,80.17
728.00,80.11
727.00,80.08
726.00,80.02
725.00,79.93
724.00,79.78
723.00,79.60
722.00,79.41
721.00,79.21
720.00,79.05
719.00,78.95
718.00,78.94
717.00,78.98
716.00,79.03
715.00,79.08
714.00,79.09
713.00,79.07
712.00,78.99
711.00,78.90
710.00,78.82
709.00,78.76
708.00,78.68
707.00,78.55
706.00,78.38
705.00,78.21
704.00,78.06
703.00,77.93
702.00,77.79
701.00,77.64
700.00,77.49
699.00,77.38
698.00,77.29
697.00,77.19
696.00,77.09
695.00,77.01
694.00,76.99
693.00,77.00
692.00,77.00
691.00,77.00
690.00,76.98
689.00,76.94
688.00,76.89
687.00,76.85
686.00,76.82
685.00,76.77
684.00,76.70
683.00,76.62
682.00,76.53
681.00,76.44
680.00,76.33
679.00,76.23
678.00,76.12
677.00,76.00
676.00,75.92
675.00,75.88
674.00,75.86
673.00,75.82
672.00,75.77
671.00,75.79
670.00,75.90
669.00,76.00
668.00,75.88
667.00,75.58
666.00,75.30
665.00,75.11
664.00,74.94
663.00,74.79
662.00,74.63
661.00,74.50
660.00,74.39
659.00,74.33
658.00,74.32
657.00,74.35
656.00,74.36
655.00,74.35
654.00,74.28
653.00,74.15
652.00,73.98
651.00,73.83
650.00,73.71
649.00,73.58
648.00,73.43
647.00,73.31
646.00,73.27
645.00,73.29
644.00,73.35
643.00,73.45
642.00,73.57
641.00,73.63
640.00,73.60
639.00,73.53
638.00,73.48
637.00,73.42
636.00,73.35
635.00,73.26
634.00,73.16
633.00,73.01
632.00,72.85
631.00,72.77
630.00,72.78
629.00,72.76
628.00,72.67
627.00,72.58
626.00,72.57
625.00,72.58
624.00,72.48
623.00,72.32
622.00,72.15
621.00,71.96
620.00,71.74
619.00,71.59
618.00,71.57
617.00,71.62
616.00,71.65
615.00,71.66
614.00,71.66
613.00,71.59
612.00,71.44
611.00,71.32
610.00,71.25
609.00,71.16
608.00,71.03
607.00,70.95
606.00,70.93
605.00,70.87
604.00,70.84
603.00,71.10
602.00,71.66
601.00,72.14
600.00,72.11
599.00,71.60
598.00,70.94
597.00,70.45
596.00,70.17
595.00,70.12
594.00,70.30
593.00,70.56
592.00,70.73
591.00,70.71
590.00,70.50
589.00,70.14
588.00,69.73
587.00,69.47
586.00,69.47
585.00,69.60
584.00,69.70
583.00,69.69
582.00,69.56
581.00,69.23
580.00,68.77
579.00,68.53
578.00,68.68
577.00,69.03
576.00,69.34
575.00,69.64
574.00,69.92
573.00,70.05
572.00,69.91
571.00,69.47
570.00,68.72
569.00,67.75
568.00,67.01
567.00,67.07
566.00,67.81
565.00,68.44
564.00,68.54
563.00,68.42
562.00,68.40
561.00,68.26
560.00,67.78
559.00,67.24
558.00,67.01
557.00,67.03
556.00,67.05
555.00,67.19
554.00,67.53
553.00,67.83
552.00,67.79
551.00,67.70
550.00,67.83
