Created as New Dataset,14.1 Red Wool Suffolk sheep
cm-1,%T
4000.00,101.04
3999.00,101.03
3998.00,101.02
3997.00,101.01
3996.00,101.00
3995.00,101.01
3994.00,101.01
3993.00,101.02
3992.00,101.01
3991.00,101.00
3990.00,101.01
3989.00,101.02
3988.00,101.04
3987.00,101.05
3986.00,101.05
3985.00,101.04
3984.00,101.03
3983.00,101.03
3982.00,101.02
3981.00,101.02
3980.00,101.02
3979.00,101.00
3978.00,100.98
3977.00,100.97
3976.00,100.96
3975.00,100.96
3974.00,100.97
3973.00,100.98
3972.00,100.98
3971.00,100.99
3970.00,100.99
3969.00,101.00
3968.00,101.01
3967.00,101.01
3966.00,100.99
3965.00,100.98
3964.00,100.98
3963.00,100.98
3962.00,100.99
3961.00,101.00
3960.00,101.01
3959.00,101.00
3958.00,101.00
3957.00,101.00
3956.00,100.99
3955.00,100.99
3954.00,101.00
3953.00,101.00
3952.00,101.01
3951.00,101.00
3950.00,100.99
3949.00,100.98
3948.00,100.97
3947.00,100.97
3946.00,100.95
3945.00,100.95
3944.00,100.95
3943.00,100.97
3942.00,100.98
3941.00,100.98
3940.00,100.97
3939.00,100.97
3938.00,100.97
3937.00,100.98
3936.00,100.99
3935.00,100.98
3934.00,100.98
3933.00,100.98
3932.00,100.97
3931.00,100.95
3930.00,100.93
3929.00,100.90
3928.00,100.87
3927.00,100.87
3926.00,100.87
3925.00,100.89
3924.00,100.90
3923.00,100.89
3922.00,100.89
3921.00,100.88
3920.00,100.88
3919.00,100.87
3918.00,100.88
3917.00,100.91
3916.00,100.95
3915.00,100.99
3914.00,101.01
3913.00,101.01
3912.00,101.00
3911.00,100.98
3910.00,100.96
3909.00,100.93
3908.00,100.91
3907.00,100.89
3906.00,100.89
3905.00,100.90
3904.00,100.89
3903.00,100.86
3902.00,100.82
3901.00,100.81
3900.00,100.84
3899.00,100.87
3898.00,100.88
3897.00,100.88
3896.00,100.88
3895.00,100.89
3894.00,100.90
3893.00,100.93
3892.00,100.97
3891.00,100.99
3890.00,100.98
3889.00,100.93
3888.00,100.87
3887.00,100.86
3886.00,100.89
3885.00,100.90
3884.00,100.87
3883.00,100.83
3882.00,100.81
3881.00,100.84
3880.00,100.87
3879.00,100.87
3878.00,100.85
3877.00,100.83
3876.00,100.85
3875.00,100.90
3874.00,100.93
3873.00,100.91
3872.00,100.87
3871.00,100.85
3870.00,100.87
3869.00,100.85
3868.00,100.79
3867.00,100.73
3866.00,100.73
3865.00,100.77
3864.00,100.80
3863.00,100.81
3862.00,100.82
3861.00,100.85
3860.00,100.89
3859.00,100.94
3858.00,100.98
3857.00,100.98
3856.00,100.95
3855.00,100.95
3854.00,100.96
3853.00,100.95
3852.00,100.92
3851.00,100.90
3850.00,100.89
3849.00,100.89
3848.00,100.89
3847.00,100.87
3846.00,100.86
3845.00,100.86
3844.00,100.87
3843.00,100.87
3842.00,100.86
3841.00,100.84
3840.00,100.83
3839.00,100.84
3838.00,100.84
3837.00,100.84
3836.00,100.82
3835.00,100.80
3834.00,100.79
3833.00,100.81
3832.00,100.84
3831.00,100.86
3830.00,100.86
3829.00,100.84
3828.00,100.85
3827.00,100.89
3826.00,100.92
3825.00,100.91
3824.00,100.86
3823.00,100.83
3822.00,100.85
3821.00,100.87
3820.00,100.85
3819.00,100.80
3818.00,100.76
3817.00,100.80
3816.00,100.86
3815.00,100.88
3814.00,100.86
3813.00,100.84
3812.00,100.85
3811.00,100.87
3810.00,100.88
3809.00,100.88
3808.00,100.90
3807.00,100.93
3806.00,100.92
3805.00,100.85
3804.00,100.78
3803.00,100.77
3802.00,100.83
3801.00,100.88
3800.00,100.87
3799.00,100.83
3798.00,100.81
3797.00,100.82
3796.00,100.83
3795.00,100.83
3794.00,100.83
3793.00,100.84
3792.00,100.86
3791.00,100.86
3790.00,100.85
3789.00,100.84
3788.00,100.82
3787.00,100.82
3786.00,100.83
3785.00,100.84
3784.00,100.84
3783.00,100.82
3782.00,100.81
3781.00,100.81
3780.00,100.82
3779.00,100.82
3778.00,100.82
3777.00,100.82
3776.00,100.85
3775.00,100.88
3774.00,100.89
3773.00,100.86
3772.00,100.83
3771.00,100.82
3770.00,100.83
3769.00,100.83
3768.00,100.81
3767.00,100.79
3766.00,100.80
3765.00,100.81
3764.00,100.79
3763.00,100.75
3762.00,100.73
3761.00,100.74
3760.00,100.77
3759.00,100.80
3758.00,100.83
3757.00,100.84
3756.00,100.83
3755.00,100.81
3754.00,100.79
3753.00,100.79
3752.00,100.79
3751.00,100.76
3750.00,100.72
3749.00,100.67
3748.00,100.60
3747.00,100.54
3746.00,100.55
3745.00,100.67
3744.00,100.78
3743.00,100.80
3742.00,100.77
3741.00,100.75
3740.00,100.76
3739.00,100.75
3738.00,100.74
3737.00,100.72
3736.00,100.71
3735.00,100.69
3734.00,100.66
3733.00,100.65
3732.00,100.66
3731.00,100.67
3730.00,100.67
3729.00,100.67
3728.00,100.68
3727.00,100.70
3726.00,100.70
3725.00,100.67
3724.00,100.65
3723.00,100.66
3722.00,100.66
3721.00,100.66
3720.00,100.64
3719.00,100.63
3718.00,100.65
3717.00,100.68
3716.00,100.71
3715.00,100.74
3714.00,100.77
3713.00,100.78
3712.00,100.75
3711.00,100.69
3710.00,100.64
3709.00,100.63
3708.00,100.64
3707.00,100.66
3706.00,100.65
3705.00,100.63
3704.00,100.60
3703.00,100.58
3702.00,100.57
3701.00,100.55
3700.00,100.55
3699.00,100.55
3698.00,100.57
3697.00,100.60
3696.00,100.61
3695.00,100.59
3694.00,100.54
3693.00,100.48
3692.00,100.42
3691.00,100.38
3690.00,100.36
3689.00,100.38
3688.00,100.40
3687.00,100.39
3686.00,100.36
3685.00,100.34
3684.00,100.32
3683.00,100.31
3682.00,100.31
3681.00,100.32
3680.00,100.33
3679.00,100.31
3678.00,100.25
3677.00,100.19
3676.00,100.18
3675.00,100.19
3674.00,100.15
3673.00,100.09
3672.00,100.05
3671.00,100.04
3670.00,100.04
3669.00,100.02
3668.00,99.99
3667.00,99.96
3666.00,99.96
3665.00,99.96
3664.00,99.96
3663.00,99.93
3662.00,99.89
3661.00,99.84
3660.00,99.78
3659.00,99.71
3658.00,99.65
3657.00,99.63
3656.00,99.65
3655.00,99.65
3654.00,99.61
3653.00,99.54
3652.00,99.47
3651.00,99.42
3650.00,99.36
3649.00,99.28
3648.00,99.19
3647.00,99.13
3646.00,99.10
3645.00,99.08
3644.00,99.08
3643.00,99.07
3642.00,99.05
3641.00,99.00
3640.00,98.95
3639.00,98.90
3638.00,98.85
3637.00,98.79
3636.00,98.73
3635.00,98.69
3634.00,98.67
3633.00,98.64
3632.00,98.59
3631.00,98.53
3630.00,98.47
3629.00,98.41
3628.00,98.34
3627.00,98.28
3626.00,98.24
3625.00,98.22
3624.00,98.20
3623.00,98.15
3622.00,98.07
3621.00,97.97
3620.00,97.88
3619.00,97.80
3618.00,97.73
3617.00,97.65
3616.00,97.57
3615.00,97.51
3614.00,97.49
3613.00,97.49
3612.00,97.48
3611.00,97.42
3610.00,97.35
3609.00,97.28
3608.00,97.24
3607.00,97.22
3606.00,97.20
3605.00,97.18
3604.00,97.14
3603.00,97.08
3602.00,97.02
3601.00,96.97
3600.00,96.91
3599.00,96.85
3598.00,96.80
3597.00,96.75
3596.00,96.71
3595.00,96.66
3594.00,96.63
3593.00,96.59
3592.00,96.53
3591.00,96.44
3590.00,96.35
3589.00,96.27
3588.00,96.23
3587.00,96.19
3586.00,96.15
3585.00,96.11
3584.00,96.07
3583.00,96.02
3582.00,95.97
3581.00,95.90
3580.00,95.82
3579.00,95.76
3578.00,95.71
3577.00,95.67
3576.00,95.64
3575.00,95.61
3574.00,95.55
3573.00,95.48
3572.00,95.40
3571.00,95.32
3570.00,95.24
3569.00,95.17
3568.00,95.09
3567.00,95.02
3566.00,94.95
3565.00,94.88
3564.00,94.83
3563.00,94.79
3562.00,94.76
3561.00,94.72
3560.00,94.68
3559.00,94.62
3558.00,94.57
3557.00,94.52
3556.00,94.48
3555.00,94.44
3554.00,94.40
3553.00,94.35
3552.00,94.28
3551.00,94.21
3550.00,94.13
3549.00,94.07
3548.00,94.00
3547.00,93.95
3546.00,93.89
3545.00,93.83
3544.00,93.77
3543.00,93.72
3542.00,93.66
3541.00,93.61
3540.00,93.56
3539.00,93.51
3538.00,93.47
3537.00,93.42
3536.00,93.36
3535.00,93.30
3534.00,93.23
3533.00,93.17
3532.00,93.10
3531.00,93.02
3530.00,92.95
3529.00,92.91
3528.00,92.88
3527.00,92.85
3526.00,92.79
3525.00,92.72
3524.00,92.64
3523.00,92.58
3522.00,92.54
3521.00,92.50
3520.00,92.45
3519.00,92.41
3518.00,92.37
3517.00,92.33
3516.00,92.28
3515.00,92.22
3514.00,92.16
3513.00,92.10
3512.00,92.04
3511.00,91.99
3510.00,91.93
3509.00,91.88
3508.00,91.84
3507.00,91.79
3506.00,91.73
3505.00,91.65
3504.00,91.58
3503.00,91.52
3502.00,91.49
3501.00,91.47
3500.00,91.44
3499.00,91.39
3498.00,91.33
3497.00,91.27
3496.00,91.20
3495.00,91.13
3494.00,91.08
3493.00,91.04
3492.00,91.03
3491.00,91.01
3490.00,90.98
3489.00,90.93
3488.00,90.87
3487.00,90.81
3486.00,90.77
3485.00,90.74
3484.00,90.72
3483.00,90.68
3482.00,90.63
3481.00,90.58
3480.00,90.52
3479.00,90.48
3478.00,90.45
3477.00,90.42
3476.00,90.38
3475.00,90.33
3474.00,90.28
3473.00,90.23
3472.00,90.17
3471.00,90.10
3470.00,90.04
3469.00,89.99
3468.00,89.94
3467.00,89.90
3466.00,89.85
3465.00,89.81
3464.00,89.77
3463.00,89.74
3462.00,89.70
3461.00,89.66
3460.00,89.61
3459.00,89.58
3458.00,89.54
3457.00,89.50
3456.00,89.47
3455.00,89.44
3454.00,89.43
3453.00,89.41
3452.00,89.36
3451.00,89.29
3450.00,89.22
3449.00,89.16
3448.00,89.12
3447.00,89.08
3446.00,89.04
3445.00,88.99
3444.00,88.96
3443.00,88.93
3442.00,88.90
3441.00,88.86
3440.00,88.82
3439.00,88.78
3438.00,88.74
3437.00,88.70
3436.00,88.66
3435.00,88.62
3434.00,88.58
3433.00,88.55
3432.00,88.52
3431.00,88.49
3430.00,88.46
3429.00,88.43
3428.00,88.39
3427.00,88.34
3426.00,88.28
3425.00,88.23
3424.00,88.19
3423.00,88.16
3422.00,88.13
3421.00,88.10
3420.00,88.07
3419.00,88.03
3418.00,87.99
3417.00,87.95
3416.00,87.92
3415.00,87.90
3414.00,87.87
3413.00,87.84
3412.00,87.79
3411.00,87.75
3410.00,87.70
3409.00,87.66
3408.00,87.63
3407.00,87.61
3406.00,87.58
3405.00,87.55
3404.00,87.51
3403.00,87.47
3402.00,87.43
3401.00,87.38
3400.00,87.34
3399.00,87.30
3398.00,87.28
3397.00,87.27
3396.00,87.25
3395.00,87.23
3394.00,87.20
3393.00,87.17
3392.00,87.13
3391.00,87.10
3390.00,87.08
3389.00,87.07
3388.00,87.06
3387.00,87.05
3386.00,87.03
3385.00,87.00
3384.00,86.97
3383.00,86.95
3382.00,86.93
3381.00,86.91
3380.00,86.90
3379.00,86.88
3378.00,86.85
3377.00,86.82
3376.00,86.78
3375.00,86.74
3374.00,86.70
3373.00,86.66
3372.00,86.64
3371.00,86.62
3370.00,86.62
3369.00,86.61
3368.00,86.60
3367.00,86.59
3366.00,86.57
3365.00,86.54
3364.00,86.50
3363.00,86.46
3362.00,86.45
3361.00,86.45
3360.00,86.46
3359.00,86.44
3358.00,86.41
3357.00,86.37
3356.00,86.34
3355.00,86.32
3354.00,86.32
3353.00,86.31
3352.00,86.30
3351.00,86.28
3350.00,86.25
3349.00,86.22
3348.00,86.20
3347.00,86.17
3346.00,86.14
3345.00,86.09
3344.00,86.05
3343.00,86.02
3342.00,86.02
3341.00,86.01
3340.00,86.00
3339.00,85.97
3338.00,85.93
3337.00,85.89
3336.00,85.85
3335.00,85.81
3334.00,85.79
3333.00,85.77
3332.00,85.76
3331.00,85.76
3330.00,85.76
3329.00,85.75
3328.00,85.72
3327.00,85.68
3326.00,85.65
3325.00,85.62
3324.00,85.60
3323.00,85.58
3322.00,85.55
3321.00,85.51
3320.00,85.47
3319.00,85.44
3318.00,85.40
3317.00,85.37
3316.00,85.34
3315.00,85.32
3314.00,85.30
3313.00,85.27
3312.00,85.24
3311.00,85.21
3310.00,85.18
3309.00,85.16
3308.00,85.14
3307.00,85.12
3306.00,85.10
3305.00,85.07
3304.00,85.05
3303.00,85.03
3302.00,85.01
3301.00,84.98
3300.00,84.95
3299.00,84.93
3298.00,84.90
3297.00,84.88
3296.00,84.86
3295.00,84.84
3294.00,84.81
3293.00,84.78
3292.00,84.76
3291.00,84.75
3290.00,84.76
3289.00,84.76
3288.00,84.74
3287.00,84.72
3286.00,84.69
3285.00,84.67
3284.00,84.65
3283.00,84.63
3282.00,84.60
3281.00,84.57
3280.00,84.56
3279.00,84.57
3278.00,84.57
3277.00,84.57
3276.00,84.57
3275.00,84.57
3274.00,84.60
3273.00,84.62
3272.00,84.66
3271.00,84.69
3270.00,84.73
3269.00,84.76
3268.00,84.78
3267.00,84.80
3266.00,84.81
3265.00,84.82
3264.00,84.83
3263.00,84.86
3262.00,84.89
3261.00,84.93
3260.00,84.98
3259.00,85.03
3258.00,85.07
3257.00,85.09
3256.00,85.10
3255.00,85.13
3254.00,85.17
3253.00,85.22
3252.00,85.27
3251.00,85.31
3250.00,85.35
3249.00,85.38
3248.00,85.41
3247.00,85.44
3246.00,85.47
3245.00,85.50
3244.00,85.55
3243.00,85.60
3242.00,85.65
3241.00,85.69
3240.00,85.72
3239.00,85.75
3238.00,85.78
3237.00,85.82
3236.00,85.88
3235.00,85.92
3234.00,85.96
3233.00,85.99
3232.00,86.02
3231.00,86.05
3230.00,86.08
3229.00,86.10
3228.00,86.12
3227.00,86.14
3226.00,86.17
3225.00,86.20
3224.00,86.25
3223.00,86.31
3222.00,86.37
3221.00,86.41
3220.00,86.43
3219.00,86.46
3218.00,86.48
3217.00,86.51
3216.00,86.56
3215.00,86.60
3214.00,86.64
3213.00,86.68
3212.00,86.71
3211.00,86.74
3210.00,86.76
3209.00,86.79
3208.00,86.81
3207.00,86.83
3206.00,86.87
3205.00,86.90
3204.00,86.94
3203.00,86.98
3202.00,87.02
3201.00,87.06
3200.00,87.10
3199.00,87.15
3198.00,87.20
3197.00,87.25
3196.00,87.30
3195.00,87.35
3194.00,87.40
3193.00,87.44
3192.00,87.48
3191.00,87.52
3190.00,87.56
3189.00,87.61
3188.00,87.65
3187.00,87.71
3186.00,87.77
3185.00,87.85
3184.00,87.92
3183.00,87.98
3182.00,88.04
3181.00,88.08
3180.00,88.11
3179.00,88.14
3178.00,88.17
3177.00,88.21
3176.00,88.26
3175.00,88.32
3174.00,88.40
3173.00,88.47
3172.00,88.55
3171.00,88.62
3170.00,88.68
3169.00,88.72
3168.00,88.76
3167.00,88.80
3166.00,88.84
3165.00,88.89
3164.00,88.94
3163.00,88.99
3162.00,89.04
3161.00,89.10
3160.00,89.15
3159.00,89.21
3158.00,89.26
3157.00,89.30
3156.00,89.35
3155.00,89.40
3154.00,89.47
3153.00,89.54
3152.00,89.60
3151.00,89.65
3150.00,89.69
3149.00,89.74
3148.00,89.79
3147.00,89.84
3146.00,89.90
3145.00,89.94
3144.00,89.98
3143.00,90.01
3142.00,90.05
3141.00,90.09
3140.00,90.12
3139.00,90.15
3138.00,90.18
3137.00,90.23
3136.00,90.29
3135.00,90.34
3134.00,90.38
3133.00,90.43
3132.00,90.48
3131.00,90.53
3130.00,90.58
3129.00,90.62
3128.00,90.66
3127.00,90.70
3126.00,90.75
3125.00,90.80
3124.00,90.85
3123.00,90.87
3122.00,90.90
3121.00,90.92
3120.00,90.96
3119.00,91.00
3118.00,91.04
3117.00,91.08
3116.00,91.11
3115.00,91.13
3114.00,91.15
3113.00,91.17
3112.00,91.21
3111.00,91.25
3110.00,91.28
3109.00,91.31
3108.00,91.32
3107.00,91.34
3106.00,91.35
3105.00,91.35
3104.00,91.35
3103.00,91.35
3102.00,91.35
3101.00,91.37
3100.00,91.39
3099.00,91.40
3098.00,91.42
3097.00,91.43
3096.00,91.45
3095.00,91.47
3094.00,91.49
3093.00,91.50
3092.00,91.52
3091.00,91.53
3090.00,91.53
3089.00,91.54
3088.00,91.54
3087.00,91.55
3086.00,91.57
3085.00,91.59
3084.00,91.61
3083.00,91.62
3082.00,91.63
3081.00,91.65
3080.00,91.66
3079.00,91.68
3078.00,91.69
3077.00,91.69
3076.00,91.68
3075.00,91.68
3074.00,91.68
3073.00,91.69
3072.00,91.70
3071.00,91.71
3070.00,91.72
3069.00,91.74
3068.00,91.76
3067.00,91.78
3066.00,91.81
3065.00,91.85
3064.00,91.88
3063.00,91.91
3062.00,91.93
3061.00,91.93
3060.00,91.94
3059.00,91.95
3058.00,91.98
3057.00,92.01
3056.00,92.06
3055.00,92.11
3054.00,92.15
3053.00,92.18
3052.00,92.22
3051.00,92.25
3050.00,92.29
3049.00,92.34
3048.00,92.37
3047.00,92.41
3046.00,92.44
3045.00,92.48
3044.00,92.51
3043.00,92.56
3042.00,92.61
3041.00,92.65
3040.00,92.68
3039.00,92.71
3038.00,92.74
3037.00,92.78
3036.00,92.83
3035.00,92.89
3034.00,92.94
3033.00,92.97
3032.00,93.00
3031.00,93.03
3030.00,93.07
3029.00,93.12
3028.00,93.17
3027.00,93.22
3026.00,93.24
3025.00,93.26
3024.00,93.28
3023.00,93.32
3022.00,93.37
3021.00,93.43
3020.00,93.48
3019.00,93.51
3018.00,93.54
3017.00,93.56
3016.00,93.59
3015.00,93.62
3014.00,93.64
3013.00,93.66
3012.00,93.67
3011.00,93.68
3010.00,93.69
3009.00,93.69
3008.00,93.70
3007.00,93.71
3006.00,93.73
3005.00,93.74
3004.00,93.76
3003.00,93.77
3002.00,93.79
3001.00,93.80
3000.00,93.80
2999.00,93.79
2998.00,93.77
2997.00,93.74
2996.00,93.71
2995.00,93.68
2994.00,93.64
2993.00,93.62
2992.00,93.60
2991.00,93.57
2990.00,93.52
2989.00,93.46
2988.00,93.38
2987.00,93.30
2986.00,93.22
2985.00,93.15
2984.00,93.07
2983.00,93.00
2982.00,92.92
2981.00,92.84
2980.00,92.75
2979.00,92.67
2978.00,92.57
2977.00,92.47
2976.00,92.35
2975.00,92.22
2974.00,92.10
2973.00,91.99
2972.00,91.86
2971.00,91.73
2970.00,91.60
2969.00,91.46
2968.00,91.33
2967.00,91.21
2966.00,91.09
2965.00,90.97
2964.00,90.86
2963.00,90.76
2962.00,90.66
2961.00,90.58
2960.00,90.50
2959.00,90.43
2958.00,90.36
2957.00,90.30
2956.00,90.27
2955.00,90.27
2954.00,90.29
2953.00,90.34
2952.00,90.40
2951.00,90.45
2950.00,90.48
2949.00,90.50
2948.00,90.51
2947.00,90.51
2946.00,90.49
2945.00,90.44
2944.00,90.38
2943.00,90.28
2942.00,90.16
2941.00,90.01
2940.00,89.83
2939.00,89.63
2938.00,89.43
2937.00,89.22
2936.00,89.00
2935.00,88.76
2934.00,88.51
2933.00,88.27
2932.00,88.03
2931.00,87.80
2930.00,87.56
2929.00,87.33
2928.00,87.09
2927.00,86.87
2926.00,86.66
2925.00,86.46
2924.00,86.26
2923.00,86.07
2922.00,85.89
2921.00,85.71
2920.00,85.55
2919.00,85.44
2918.00,85.44
2917.00,85.58
2916.00,85.87
2915.00,86.30
2914.00,86.82
2913.00,87.38
2912.00,87.93
2911.00,88.43
2910.00,88.86
2909.00,89.23
2908.00,89.55
2907.00,89.83
2906.00,90.06
2905.00,90.26
2904.00,90.45
2903.00,90.62
2902.00,90.79
2901.00,90.94
2900.00,91.08
2899.00,91.21
2898.00,91.35
2897.00,91.49
2896.00,91.63
2895.00,91.75
2894.00,91.87
2893.00,91.98
2892.00,92.09
2891.00,92.20
2890.00,92.31
2889.00,92.41
2888.00,92.50
2887.00,92.58
2886.00,92.63
2885.00,92.67
2884.00,92.72
2883.00,92.78
2882.00,92.84
2881.00,92.88
2880.00,92.90
2879.00,92.89
2878.00,92.88
2877.00,92.86
2876.00,92.84
2875.00,92.81
2874.00,92.78
2873.00,92.76
2872.00,92.74
2871.00,92.75
2870.00,92.77
2869.00,92.79
2868.00,92.82
2867.00,92.84
2866.00,92.85
2865.00,92.84
2864.00,92.82
2863.00,92.76
2862.00,92.68
2861.00,92.55
2860.00,92.39
2859.00,92.18
2858.00,91.94
2857.00,91.66
2856.00,91.36
2855.00,91.04
2854.00,90.71
2853.00,90.36
2852.00,90.05
2851.00,89.83
2850.00,89.77
2849.00,89.95
2848.00,90.35
2847.00,90.92
2846.00,91.58
2845.00,92.24
2844.00,92.82
2843.00,93.32
2842.00,93.72
2841.00,94.06
2840.00,94.33
2839.00,94.57
2838.00,94.78
2837.00,94.97
2836.00,95.14
2835.00,95.28
2834.00,95.40
2833.00,95.50
2832.00,95.58
2831.00,95.66
2830.00,95.72
2829.00,95.78
2828.00,95.83
2827.00,95.88
2826.00,95.93
2825.00,95.99
2824.00,96.04
2823.00,96.08
2822.00,96.12
2821.00,96.15
2820.00,96.19
2819.00,96.22
2818.00,96.26
2817.00,96.29
2816.00,96.32
2815.00,96.36
2814.00,96.39
2813.00,96.42
2812.00,96.45
2811.00,96.49
2810.00,96.53
2809.00,96.56
2808.00,96.60
2807.00,96.62
2806.00,96.65
2805.00,96.68
2804.00,96.71
2803.00,96.74
2802.00,96.77
2801.00,96.81
2800.00,96.84
2799.00,96.87
2798.00,96.89
2797.00,96.91
2796.00,96.93
2795.00,96.94
2794.00,96.95
2793.00,96.96
2792.00,96.97
2791.00,96.98
2790.00,96.98
2789.00,96.98
2788.00,96.99
2787.00,97.01
2786.00,97.04
2785.00,97.07
2784.00,97.11
2783.00,97.14
2782.00,97.16
2781.00,97.19
2780.00,97.21
2779.00,97.24
2778.00,97.26
2777.00,97.27
2776.00,97.28
2775.00,97.30
2774.00,97.32
2773.00,97.34
2772.00,97.35
2771.00,97.37
2770.00,97.38
2769.00,97.40
2768.00,97.43
2767.00,97.45
2766.00,97.47
2765.00,97.48
2764.00,97.49
2763.00,97.50
2762.00,97.50
2761.00,97.51
2760.00,97.52
2759.00,97.52
2758.00,97.53
2757.00,97.53
2756.00,97.54
2755.00,97.56
2754.00,97.57
2753.00,97.60
2752.00,97.63
2751.00,97.65
2750.00,97.66
2749.00,97.66
2748.00,97.66
2747.00,97.67
2746.00,97.69
2745.00,97.70
2744.00,97.72
2743.00,97.73
2742.00,97.74
2741.00,97.75
2740.00,97.76
2739.00,97.77
2738.00,97.79
2737.00,97.80
2736.00,97.81
2735.00,97.81
2734.00,97.81
2733.00,97.80
2732.00,97.80
2731.00,97.81
2730.00,97.82
2729.00,97.84
2728.00,97.85
2727.00,97.86
2726.00,97.87
2725.00,97.88
2724.00,97.89
2723.00,97.90
2722.00,97.91
2721.00,97.92
2720.00,97.94
2719.00,97.96
2718.00,97.98
2717.00,98.00
2716.00,98.01
2715.00,98.02
2714.00,98.03
2713.00,98.04
2712.00,98.06
2711.00,98.09
2710.00,98.11
2709.00,98.12
2708.00,98.13
2707.00,98.13
2706.00,98.13
2705.00,98.13
2704.00,98.13
2703.00,98.14
2702.00,98.15
2701.00,98.17
2700.00,98.19
2699.00,98.20
2698.00,98.21
2697.00,98.21
2696.00,98.20
2695.00,98.20
2694.00,98.20
2693.00,98.20
2692.00,98.21
2691.00,98.21
2690.00,98.21
2689.00,98.20
2688.00,98.20
2687.00,98.20
2686.00,98.22
2685.00,98.23
2684.00,98.24
2683.00,98.25
2682.00,98.26
2681.00,98.27
2680.00,98.28
2679.00,98.29
2678.00,98.30
2677.00,98.30
2676.00,98.30
2675.00,98.30
2674.00,98.31
2673.00,98.31
2672.00,98.33
2671.00,98.35
2670.00,98.37
2669.00,98.38
2668.00,98.39
2667.00,98.39
2666.00,98.39
2665.00,98.39
2664.00,98.38
2663.00,98.36
2662.00,98.34
2661.00,98.34
2660.00,98.35
2659.00,98.37
2658.00,98.39
2657.00,98.39
2656.00,98.39
2655.00,98.39
2654.00,98.39
2653.00,98.39
2652.00,98.39
2651.00,98.39
2650.00,98.39
2649.00,98.40
2648.00,98.39
2647.00,98.39
2646.00,98.38
2645.00,98.36
2644.00,98.34
2643.00,98.33
2642.00,98.34
2641.00,98.35
2640.00,98.38
2639.00,98.39
2638.00,98.40
2637.00,98.40
2636.00,98.39
2635.00,98.40
2634.00,98.42
2633.00,98.44
2632.00,98.47
2631.00,98.49
2630.00,98.49
2629.00,98.48
2628.00,98.47
2627.00,98.46
2626.00,98.46
2625.00,98.45
2624.00,98.45
2623.00,98.46
2622.00,98.47
2621.00,98.48
2620.00,98.49
2619.00,98.50
2618.00,98.51
2617.00,98.52
2616.00,98.53
2615.00,98.53
2614.00,98.52
2613.00,98.52
2612.00,98.53
2611.00,98.55
2610.00,98.57
2609.00,98.58
2608.00,98.57
2607.00,98.56
2606.00,98.54
2605.00,98.53
2604.00,98.52
2603.00,98.52
2602.00,98.53
2601.00,98.54
2600.00,98.55
2599.00,98.56
2598.00,98.57
2597.00,98.58
2596.00,98.61
2595.00,98.63
2594.00,98.64
2593.00,98.63
2592.00,98.62
2591.00,98.60
2590.00,98.60
2589.00,98.59
2588.00,98.60
2587.00,98.61
2586.00,98.63
2585.00,98.64
2584.00,98.64
2583.00,98.64
2582.00,98.64
2581.00,98.64
2580.00,98.64
2579.00,98.64
2578.00,98.63
2577.00,98.62
2576.00,98.63
2575.00,98.66
2574.00,98.67
2573.00,98.67
2572.00,98.66
2571.00,98.66
2570.00,98.67
2569.00,98.69
2568.00,98.70
2567.00,98.71
2566.00,98.72
2565.00,98.72
2564.00,98.72
2563.00,98.72
2562.00,98.72
2561.00,98.71
2560.00,98.71
2559.00,98.71
2558.00,98.72
2557.00,98.72
2556.00,98.71
2555.00,98.70
2554.00,98.70
2553.00,98.69
2552.00,98.68
2551.00,98.68
2550.00,98.68
2549.00,98.69
2548.00,98.70
2547.00,98.70
2546.00,98.70
2545.00,98.69
2544.00,98.69
2543.00,98.70
2542.00,98.72
2541.00,98.73
2540.00,98.75
2539.00,98.77
2538.00,98.78
2537.00,98.77
2536.00,98.75
2535.00,98.73
2534.00,98.72
2533.00,98.71
2532.00,98.72
2531.00,98.74
2530.00,98.76
2529.00,98.78
2528.00,98.79
2527.00,98.80
2526.00,98.80
2525.00,98.80
2524.00,98.79
2523.00,98.80
2522.00,98.79
2521.00,98.78
2520.00,98.76
2519.00,98.75
2518.00,98.76
2517.00,98.76
2516.00,98.77
2515.00,98.78
2514.00,98.78
2513.00,98.77
2512.00,98.77
2511.00,98.77
2510.00,98.80
2509.00,98.84
2508.00,98.87
2507.00,98.88
2506.00,98.86
2505.00,98.83
2504.00,98.81
2503.00,98.79
2502.00,98.79
2501.00,98.80
2500.00,98.81
2499.00,98.82
2498.00,98.82
2497.00,98.82
2496.00,98.83
2495.00,98.84
2494.00,98.85
2493.00,98.86
2492.00,98.88
2491.00,98.89
2490.00,98.89
2489.00,98.88
2488.00,98.84
2487.00,98.81
2486.00,98.79
2485.00,98.79
2484.00,98.79
2483.00,98.81
2482.00,98.82
2481.00,98.82
2480.00,98.83
2479.00,98.83
2478.00,98.83
2477.00,98.82
2476.00,98.81
2475.00,98.81
2474.00,98.81
2473.00,98.82
2472.00,98.84
2471.00,98.86
2470.00,98.89
2469.00,98.91
2468.00,98.91
2467.00,98.90
2466.00,98.87
2465.00,98.85
2464.00,98.85
2463.00,98.86
2462.00,98.87
2461.00,98.86
2460.00,98.84
2459.00,98.82
2458.00,98.82
2457.00,98.84
2456.00,98.85
2455.00,98.85
2454.00,98.84
2453.00,98.84
2452.00,98.85
2451.00,98.87
2450.00,98.89
2449.00,98.90
2448.00,98.91
2447.00,98.91
2446.00,98.92
2445.00,98.93
2444.00,98.94
2443.00,98.94
2442.00,98.92
2441.00,98.90
2440.00,98.89
2439.00,98.91
2438.00,98.94
2437.00,98.96
2436.00,98.97
2435.00,98.97
2434.00,98.96
2433.00,98.96
2432.00,98.96
2431.00,98.96
2430.00,98.96
2429.00,98.96
2428.00,98.96
2427.00,98.95
2426.00,98.94
2425.00,98.93
2424.00,98.93
2423.00,98.94
2422.00,98.95
2421.00,98.96
2420.00,98.97
2419.00,98.98
2418.00,98.98
2417.00,98.98
2416.00,98.97
2415.00,98.97
2414.00,98.97
2413.00,98.97
2412.00,98.98
2411.00,99.00
2410.00,99.03
2409.00,99.05
2408.00,99.06
2407.00,99.06
2406.00,99.04
2405.00,99.00
2404.00,98.97
2403.00,98.96
2402.00,98.97
2401.00,98.99
2400.00,99.00
2399.00,99.01
2398.00,99.01
2397.00,99.01
2396.00,99.01
2395.00,99.02
2394.00,99.02
2393.00,99.01
2392.00,99.02
2391.00,99.04
2390.00,99.06
2389.00,99.07
2388.00,99.06
2387.00,99.06
2386.00,99.06
2385.00,99.06
2384.00,99.06
2383.00,99.08
2382.00,99.10
2381.00,99.11
2380.00,99.11
2379.00,99.09
2378.00,99.08
2377.00,99.08
2376.00,99.09
2375.00,99.11
2374.00,99.10
2373.00,99.07
2372.00,99.04
2371.00,99.05
2370.00,99.09
2369.00,99.14
2368.00,99.17
2367.00,99.21
2366.00,99.24
2365.00,99.22
2364.00,99.17
2363.00,99.11
2362.00,99.05
2361.00,99.00
2360.00,98.99
2359.00,99.01
2358.00,99.05
2357.00,99.06
2356.00,99.04
2355.00,99.05
2354.00,99.07
2353.00,99.08
2352.00,99.08
2351.00,99.07
2350.00,99.08
2349.00,99.10
2348.00,99.13
2347.00,99.16
2346.00,99.19
2345.00,99.21
2344.00,99.21
2343.00,99.19
2342.00,99.15
2341.00,99.10
2340.00,99.05
2339.00,99.02
2338.00,98.99
2337.00,98.97
2336.00,98.97
2335.00,99.01
2334.00,99.05
2333.00,99.07
2332.00,99.04
2331.00,98.99
2330.00,98.90
2329.00,98.81
2328.00,98.75
2327.00,98.75
2326.00,98.79
2325.00,98.83
2324.00,98.87
2323.00,98.89
2322.00,98.90
2321.00,98.90
2320.00,98.88
2319.00,98.86
2318.00,98.83
2317.00,98.81
2316.00,98.80
2315.00,98.82
2314.00,98.86
2313.00,98.88
2312.00,98.87
2311.00,98.84
2310.00,98.81
2309.00,98.77
2308.00,98.76
2307.00,98.77
2306.00,98.82
2305.00,98.87
2304.00,98.90
2303.00,98.89
2302.00,98.85
2301.00,98.79
2300.00,98.75
2299.00,98.73
2298.00,98.74
2297.00,98.75
2296.00,98.76
2295.00,98.77
2294.00,98.76
2293.00,98.76
2292.00,98.75
2291.00,98.73
2290.00,98.71
2289.00,98.68
2288.00,98.66
2287.00,98.66
2286.00,98.67
2285.00,98.68
2284.00,98.70
2283.00,98.72
2282.00,98.71
2281.00,98.69
2280.00,98.66
2279.00,98.63
2278.00,98.61
2277.00,98.61
2276.00,98.63
2275.00,98.67
2274.00,98.72
2273.00,98.75
2272.00,98.76
2271.00,98.77
2270.00,98.76
2269.00,98.75
2268.00,98.73
2267.00,98.70
2266.00,98.65
2265.00,98.59
2264.00,98.55
2263.00,98.54
2262.00,98.55
2261.00,98.58
2260.00,98.60
2259.00,98.61
2258.00,98.61
2257.00,98.58
2256.00,98.57
2255.00,98.57
2254.00,98.59
2253.00,98.61
2252.00,98.61
2251.00,98.60
2250.00,98.58
2249.00,98.56
2248.00,98.55
2247.00,98.54
2246.00,98.55
2245.00,98.57
2244.00,98.59
2243.00,98.60
2242.00,98.58
2241.00,98.55
2240.00,98.51
2239.00,98.46
2238.00,98.43
2237.00,98.42
2236.00,98.44
2235.00,98.47
2234.00,98.48
2233.00,98.46
2232.00,98.43
2231.00,98.40
2230.00,98.39
2229.00,98.40
2228.00,98.42
2227.00,98.44
2226.00,98.45
2225.00,98.43
2224.00,98.41
2223.00,98.40
2222.00,98.41
2221.00,98.42
2220.00,98.44
2219.00,98.47
2218.00,98.50
2217.00,98.51
2216.00,98.50
2215.00,98.47
2214.00,98.44
2213.00,98.40
2212.00,98.36
2211.00,98.33
2210.00,98.32
2209.00,98.33
2208.00,98.34
2207.00,98.34
2206.00,98.34
2205.00,98.36
2204.00,98.40
2203.00,98.44
2202.00,98.45
2201.00,98.44
2200.00,98.42
2199.00,98.41
2198.00,98.40
2197.00,98.38
2196.00,98.36
2195.00,98.33
2194.00,98.30
2193.00,98.28
2192.00,98.28
2191.00,98.30
2190.00,98.32
2189.00,98.32
2188.00,98.33
2187.00,98.36
2186.00,98.39
2185.00,98.39
2184.00,98.38
2183.00,98.37
2182.00,98.38
2181.00,98.38
2180.00,98.37
2179.00,98.33
2178.00,98.29
2177.00,98.24
2176.00,98.22
2175.00,98.23
2174.00,98.26
2173.00,98.27
2172.00,98.25
2171.00,98.22
2170.00,98.20
2169.00,98.18
2168.00,98.16
2167.00,98.16
2166.00,98.19
2165.00,98.21
2164.00,98.20
2163.00,98.17
2162.00,98.17
2161.00,98.22
2160.00,98.30
2159.00,98.38
2158.00,98.44
2157.00,98.47
2156.00,98.49
2155.00,98.50
2154.00,98.49
2153.00,98.46
2152.00,98.43
2151.00,98.42
2150.00,98.39
2149.00,98.35
2148.00,98.30
2147.00,98.28
2146.00,98.27
2145.00,98.29
2144.00,98.33
2143.00,98.38
2142.00,98.42
2141.00,98.42
2140.00,98.41
2139.00,98.41
2138.00,98.42
2137.00,98.44
2136.00,98.47
2135.00,98.50
2134.00,98.51
2133.00,98.49
2132.00,98.47
2131.00,98.46
2130.00,98.47
2129.00,98.48
2128.00,98.50
2127.00,98.51
2126.00,98.51
2125.00,98.51
2124.00,98.51
2123.00,98.51
2122.00,98.52
2121.00,98.53
2120.00,98.52
2119.00,98.51
2118.00,98.50
2117.00,98.48
2116.00,98.46
2115.00,98.45
2114.00,98.43
2113.00,98.42
2112.00,98.42
2111.00,98.45
2110.00,98.48
2109.00,98.50
2108.00,98.51
2107.00,98.50
2106.00,98.48
2105.00,98.46
2104.00,98.46
2103.00,98.47
2102.00,98.49
2101.00,98.51
2100.00,98.52
2099.00,98.55
2098.00,98.59
2097.00,98.59
2096.00,98.56
2095.00,98.52
2094.00,98.48
2093.00,98.47
2092.00,98.47
2091.00,98.49
2090.00,98.50
2089.00,98.49
2088.00,98.48
2087.00,98.49
2086.00,98.50
2085.00,98.50
2084.00,98.48
2083.00,98.44
2082.00,98.41
2081.00,98.40
2080.00,98.42
2079.00,98.47
2078.00,98.51
2077.00,98.53
2076.00,98.52
2075.00,98.49
2074.00,98.46
2073.00,98.45
2072.00,98.45
2071.00,98.48
2070.00,98.51
2069.00,98.51
2068.00,98.49
2067.00,98.45
2066.00,98.41
2065.00,98.37
2064.00,98.35
2063.00,98.38
2062.00,98.43
2061.00,98.49
2060.00,98.54
2059.00,98.57
2058.00,98.55
2057.00,98.49
2056.00,98.43
2055.00,98.41
2054.00,98.43
2053.00,98.47
2052.00,98.50
2051.00,98.54
2050.00,98.57
2049.00,98.58
2048.00,98.55
2047.00,98.51
2046.00,98.47
2045.00,98.42
2044.00,98.38
2043.00,98.36
2042.00,98.38
2041.00,98.40
2040.00,98.41
2039.00,98.42
2038.00,98.44
2037.00,98.45
2036.00,98.47
2035.00,98.49
2034.00,98.47
2033.00,98.41
2032.00,98.33
2031.00,98.27
2030.00,98.23
2029.00,98.22
2028.00,98.25
2027.00,98.34
2026.00,98.44
2025.00,98.51
2024.00,98.55
2023.00,98.59
2022.00,98.64
2021.00,98.67
2020.00,98.68
2019.00,98.67
2018.00,98.63
2017.00,98.55
2016.00,98.47
2015.00,98.43
2014.00,98.43
2013.00,98.44
2012.00,98.44
2011.00,98.40
2010.00,98.37
2009.00,98.35
2008.00,98.37
2007.00,98.42
2006.00,98.48
2005.00,98.51
2004.00,98.53
2003.00,98.54
2002.00,98.54
2001.00,98.53
2000.00,98.53
1999.00,98.55
1998.00,98.58
1997.00,98.57
1996.00,98.54
1995.00,98.49
1994.00,98.45
1993.00,98.41
1992.00,98.40
1991.00,98.44
1990.00,98.50
1989.00,98.53
1988.00,98.52
1987.00,98.49
1986.00,98.47
1985.00,98.46
1984.00,98.44
1983.00,98.43
1982.00,98.43
1981.00,98.45
1980.00,98.47
1979.00,98.52
1978.00,98.55
1977.00,98.56
1976.00,98.57
1975.00,98.61
1974.00,98.67
1973.00,98.69
1972.00,98.68
1971.00,98.65
1970.00,98.61
1969.00,98.57
1968.00,98.55
1967.00,98.57
1966.00,98.61
1965.00,98.64
1964.00,98.66
1963.00,98.68
1962.00,98.72
1961.00,98.75
1960.00,98.78
1959.00,98.80
1958.00,98.79
1957.00,98.76
1956.00,98.73
1955.00,98.72
1954.00,98.72
1953.00,98.72
1952.00,98.72
1951.00,98.71
1950.00,98.68
1949.00,98.65
1948.00,98.65
1947.00,98.70
1946.00,98.76
1945.00,98.81
1944.00,98.84
1943.00,98.86
1942.00,98.87
1941.00,98.85
1940.00,98.81
1939.00,98.77
1938.00,98.74
1937.00,98.73
1936.00,98.75
1935.00,98.80
1934.00,98.84
1933.00,98.85
1932.00,98.81
1931.00,98.78
1930.00,98.76
1929.00,98.76
1928.00,98.78
1927.00,98.82
1926.00,98.84
1925.00,98.82
1924.00,98.79
1923.00,98.76
1922.00,98.74
1921.00,98.73
1920.00,98.73
1919.00,98.76
1918.00,98.81
1917.00,98.86
1916.00,98.87
1915.00,98.87
1914.00,98.87
1913.00,98.87
1912.00,98.85
1911.00,98.83
1910.00,98.83
1909.00,98.82
1908.00,98.81
1907.00,98.80
1906.00,98.80
1905.00,98.81
1904.00,98.82
1903.00,98.83
1902.00,98.85
1901.00,98.86
1900.00,98.86
1899.00,98.87
1898.00,98.86
1897.00,98.82
1896.00,98.79
1895.00,98.79
1894.00,98.83
1893.00,98.86
1892.00,98.86
1891.00,98.85
1890.00,98.84
1889.00,98.84
1888.00,98.85
1887.00,98.87
1886.00,98.89
1885.00,98.90
1884.00,98.90
1883.00,98.90
1882.00,98.89
1881.00,98.89
1880.00,98.89
1879.00,98.90
1878.00,98.89
1877.00,98.87
1876.00,98.83
1875.00,98.81
1874.00,98.82
1873.00,98.84
1872.00,98.86
1871.00,98.88
1870.00,98.89
1869.00,98.86
1868.00,98.83
1867.00,98.81
1866.00,98.82
1865.00,98.82
1864.00,98.83
1863.00,98.85
1862.00,98.87
1861.00,98.88
1860.00,98.89
1859.00,98.89
1858.00,98.88
1857.00,98.86
1856.00,98.86
1855.00,98.87
1854.00,98.89
1853.00,98.90
1852.00,98.89
1851.00,98.87
1850.00,98.85
1849.00,98.83
1848.00,98.84
1847.00,98.88
1846.00,98.94
1845.00,98.96
1844.00,98.96
1843.00,98.94
1842.00,98.91
1841.00,98.88
1840.00,98.88
1839.00,98.88
1838.00,98.89
1837.00,98.87
1836.00,98.83
1835.00,98.82
1834.00,98.82
1833.00,98.84
1832.00,98.86
1831.00,98.88
1830.00,98.90
1829.00,98.89
1828.00,98.87
1827.00,98.83
1826.00,98.80
1825.00,98.77
1824.00,98.73
1823.00,98.70
1822.00,98.70
1821.00,98.72
1820.00,98.75
1819.00,98.78
1818.00,98.80
1817.00,98.80
1816.00,98.79
1815.00,98.78
1814.00,98.79
1813.00,98.80
1812.00,98.81
1811.00,98.80
1810.00,98.79
1809.00,98.76
1808.00,98.73
1807.00,98.72
1806.00,98.72
1805.00,98.73
1804.00,98.74
1803.00,98.76
1802.00,98.78
1801.00,98.77
1800.00,98.74
1799.00,98.71
1798.00,98.68
1797.00,98.66
1796.00,98.65
1795.00,98.66
1794.00,98.68
1793.00,98.70
1792.00,98.69
1791.00,98.67
1790.00,98.63
1789.00,98.60
1788.00,98.57
1787.00,98.57
1786.00,98.58
1785.00,98.56
1784.00,98.53
1783.00,98.50
1782.00,98.47
1781.00,98.44
1780.00,98.40
1779.00,98.36
1778.00,98.33
1777.00,98.30
1776.00,98.28
1775.00,98.26
1774.00,98.24
1773.00,98.20
1772.00,98.16
1771.00,98.15
1770.00,98.13
1769.00,98.08
1768.00,98.01
1767.00,97.93
1766.00,97.87
1765.00,97.83
1764.00,97.80
1763.00,97.79
1762.00,97.78
1761.00,97.74
1760.00,97.68
1759.00,97.62
1758.00,97.58
1757.00,97.54
1756.00,97.48
1755.00,97.42
1754.00,97.37
1753.00,97.31
1752.00,97.25
1751.00,97.17
1750.00,97.06
1749.00,96.91
1748.00,96.74
1747.00,96.60
1746.00,96.47
1745.00,96.34
1744.00,96.22
1743.00,96.12
1742.00,96.04
1741.00,95.94
1740.00,95.83
1739.00,95.72
1738.00,95.64
1737.00,95.59
1736.00,95.55
1735.00,95.53
1734.00,95.51
1733.00,95.48
1732.00,95.45
1731.00,95.42
1730.00,95.42
1729.00,95.41
1728.00,95.38
1727.00,95.36
1726.00,95.33
1725.00,95.29
1724.00,95.23
1723.00,95.19
1722.00,95.17
1721.00,95.15
1720.00,95.10
1719.00,94.99
1718.00,94.81
1717.00,94.60
1716.00,94.41
1715.00,94.28
1714.00,94.16
1713.00,94.04
1712.00,93.92
1711.00,93.82
1710.00,93.73
1709.00,93.62
1708.00,93.46
1707.00,93.27
1706.00,93.03
1705.00,92.79
1704.00,92.58
1703.00,92.41
1702.00,92.22
1701.00,91.88
1700.00,91.38
1699.00,90.96
1698.00,90.61
1697.00,90.23
1696.00,89.80
1695.00,89.41
1694.00,89.07
1693.00,88.77
1692.00,88.44
1691.00,88.10
1690.00,87.75
1689.00,87.40
1688.00,87.10
1687.00,86.87
1686.00,86.66
1685.00,86.35
1684.00,85.93
1683.00,85.56
1682.00,85.25
1681.00,84.93
1680.00,84.61
1679.00,84.36
1678.00,84.15
1677.00,83.94
1676.00,83.66
1675.00,83.32
1674.00,83.01
1673.00,82.72
1672.00,82.45
1671.00,82.17
1670.00,81.86
1669.00,81.52
1668.00,81.18
1667.00,80.87
1666.00,80.61
1665.00,80.35
1664.00,80.04
1663.00,79.68
1662.00,79.33
1661.00,79.01
1660.00,78.69
1659.00,78.39
1658.00,78.14
1657.00,77.93
1656.00,77.74
1655.00,77.51
1654.00,77.14
1653.00,76.65
1652.00,76.28
1651.00,76.08
1650.00,75.96
1649.00,75.80
1648.00,75.56
1647.00,75.30
1646.00,75.08
1645.00,74.91
1644.00,74.77
1643.00,74.65
1642.00,74.56
1641.00,74.47
1640.00,74.38
1639.00,74.32
1638.00,74.26
1637.00,74.19
1636.00,74.10
1635.00,74.02
1634.00,73.96
1633.00,73.89
1632.00,73.85
1631.00,73.83
1630.00,73.84
1629.00,73.87
1628.00,73.90
1627.00,73.93
1626.00,73.98
1625.00,74.05
1624.00,74.12
1623.00,74.23
1622.00,74.34
1621.00,74.46
1620.00,74.57
1619.00,74.70
1618.00,74.87
1617.00,75.10
1616.00,75.38
1615.00,75.63
1614.00,75.83
1613.00,76.00
1612.00,76.18
1611.00,76.39
1610.00,76.60
1609.00,76.80
1608.00,77.00
1607.00,77.18
1606.00,77.33
1605.00,77.46
1604.00,77.54
1603.00,77.59
1602.00,77.61
1601.00,77.62
1600.00,77.62
1599.00,77.63
1598.00,77.62
1597.00,77.60
1596.00,77.57
1595.00,77.54
1594.00,77.48
1593.00,77.42
1592.00,77.36
1591.00,77.30
1590.00,77.22
1589.00,77.13
1588.00,77.02
1587.00,76.89
1586.00,76.74
1585.00,76.58
1584.00,76.41
1583.00,76.22
1582.00,76.00
1581.00,75.77
1580.00,75.55
1579.00,75.33
1578.00,75.07
1577.00,74.78
1576.00,74.47
1575.00,74.20
1574.00,73.99
1573.00,73.79
1572.00,73.59
1571.00,73.35
1570.00,73.03
1569.00,72.68
1568.00,72.37
1567.00,72.09
1566.00,71.81
1565.00,71.55
1564.00,71.34
1563.00,71.21
1562.00,71.15
1561.00,71.13
1560.00,71.00
1559.00,70.75
1558.00,70.57
1557.00,70.43
1556.00,70.26
1555.00,70.09
1554.00,69.94
1553.00,69.82
1552.00,69.73
1551.00,69.66
1550.00,69.62
1549.00,69.62
1548.00,69.64
1547.00,69.68
1546.00,69.74
1545.00,69.82
1544.00,69.91
1543.00,70.02
1542.00,70.15
1541.00,70.29
1540.00,70.46
1539.00,70.64
1538.00,70.80
1537.00,70.93
1536.00,71.06
1535.00,71.24
1534.00,71.46
1533.00,71.71
1532.00,71.90
1531.00,72.05
1530.00,72.22
1529.00,72.41
1528.00,72.61
1527.00,72.82
1526.00,73.03
1525.00,73.23
1524.00,73.40
1523.00,73.56
1522.00,73.76
1521.00,73.99
1520.00,74.17
1519.00,74.29
1518.00,74.39
1517.00,74.51
1516.00,74.65
1515.00,74.81
1514.00,74.99
1513.00,75.20
1512.00,75.44
1511.00,75.69
1510.00,75.96
1509.00,76.23
1508.00,76.56
1507.00,77.02
1506.00,77.51
1505.00,77.84
1504.00,78.06
1503.00,78.27
1502.00,78.54
1501.00,78.86
1500.00,79.20
1499.00,79.55
1498.00,79.91
1497.00,80.29
1496.00,80.68
1495.00,81.03
1494.00,81.36
1493.00,81.69
1492.00,82.02
1491.00,82.39
1490.00,82.77
1489.00,83.13
1488.00,83.42
1487.00,83.67
1486.00,83.91
1485.00,84.12
1484.00,84.28
1483.00,84.42
1482.00,84.55
1481.00,84.67
1480.00,84.76
1479.00,84.82
1478.00,84.84
1477.00,84.78
1476.00,84.64
1475.00,84.43
1474.00,84.17
1473.00,83.84
1472.00,83.47
1471.00,83.14
1470.00,82.84
1469.00,82.59
1468.00,82.37
1467.00,82.19
1466.00,82.06
1465.00,81.94
1464.00,81.85
1463.00,81.81
1462.00,81.83
1461.00,81.89
1460.00,81.96
1459.00,81.98
1458.00,81.94
1457.00,81.86
1456.00,81.77
1455.00,81.69
1454.00,81.63
1453.00,81.60
1452.00,81.59
1451.00,81.62
1450.00,81.66
1449.00,81.71
1448.00,81.73
1447.00,81.73
1446.00,81.73
1445.00,81.74
1444.00,81.76
1443.00,81.78
1442.00,81.83
1441.00,81.90
1440.00,81.98
1439.00,82.08
1438.00,82.20
1437.00,82.31
1436.00,82.36
1435.00,82.36
1434.00,82.35
1433.00,82.37
1432.00,82.38
1431.00,82.38
1430.00,82.36
1429.00,82.31
1428.00,82.23
1427.00,82.13
1426.00,82.00
1425.00,81.84
1424.00,81.64
1423.00,81.44
1422.00,81.28
1421.00,81.13
1420.00,80.94
1419.00,80.70
1418.00,80.45
1417.00,80.21
1416.00,79.97
1415.00,79.74
1414.00,79.53
1413.00,79.33
1412.00,79.10
1411.00,78.87
1410.00,78.64
1409.00,78.41
1408.00,78.17
1407.00,77.93
1406.00,77.68
1405.00,77.42
1404.00,77.17
1403.00,76.96
1402.00,76.80
1401.00,76.66
1400.00,76.52
1399.00,76.37
1398.00,76.24
1397.00,76.13
1396.00,76.04
1395.00,75.98
1394.00,75.96
1393.00,75.95
1392.00,75.95
1391.00,75.98
1390.00,76.06
1389.00,76.16
1388.00,76.27
1387.00,76.41
1386.00,76.55
1385.00,76.70
1384.00,76.87
1383.00,77.07
1382.00,77.31
1381.00,77.55
1380.00,77.80
1379.00,78.05
1378.00,78.30
1377.00,78.56
1376.00,78.81
1375.00,79.10
1374.00,79.40
1373.00,79.67
1372.00,79.91
1371.00,80.11
1370.00,80.31
1369.00,80.51
1368.00,80.70
1367.00,80.90
1366.00,81.12
1365.00,81.37
1364.00,81.65
1363.00,81.93
1362.00,82.19
1361.00,82.40
1360.00,82.57
1359.00,82.72
1358.00,82.86
1357.00,83.00
1356.00,83.13
1355.00,83.25
1354.00,83.34
1353.00,83.42
1352.00,83.48
1351.00,83.54
1350.00,83.60
1349.00,83.65
1348.00,83.70
1347.00,83.74
1346.00,83.78
1345.00,83.82
1344.00,83.86
1343.00,83.91
1342.00,83.95
1341.00,84.00
1340.00,84.05
1339.00,84.09
1338.00,84.13
1337.00,84.15
1336.00,84.17
1335.00,84.19
1334.00,84.21
1333.00,84.23
1332.00,84.25
1331.00,84.27
1330.00,84.29
1329.00,84.29
1328.00,84.28
1327.00,84.27
1326.00,84.25
1325.00,84.23
1324.00,84.19
1323.00,84.15
1322.00,84.11
1321.00,84.07
1320.00,84.04
1319.00,84.00
1318.00,83.96
1317.00,83.91
1316.00,83.87
1315.00,83.85
1314.00,83.84
1313.00,83.84
1312.00,83.84
1311.00,83.84
1310.00,83.85
1309.00,83.85
1308.00,83.85
1307.00,83.84
1306.00,83.84
1305.00,83.82
1304.00,83.79
1303.00,83.76
1302.00,83.71
1301.00,83.67
1300.00,83.63
1299.00,83.60
1298.00,83.58
1297.00,83.56
1296.00,83.55
1295.00,83.55
1294.00,83.56
1293.00,83.58
1292.00,83.60
1291.00,83.63
1290.00,83.68
1289.00,83.73
1288.00,83.79
1287.00,83.84
1286.00,83.89
1285.00,83.93
1284.00,83.96
1283.00,83.99
1282.00,84.01
1281.00,84.02
1280.00,84.02
1279.00,84.01
1278.00,84.02
1277.00,84.02
1276.00,84.01
1275.00,83.99
1274.00,83.98
1273.00,83.96
1272.00,83.95
1271.00,83.93
1270.00,83.92
1269.00,83.91
1268.00,83.90
1267.00,83.90
1266.00,83.91
1265.00,83.89
1264.00,83.86
1263.00,83.82
1262.00,83.78
1261.00,83.74
1260.00,83.69
1259.00,83.64
1258.00,83.59
1257.00,83.54
1256.00,83.49
1255.00,83.44
1254.00,83.38
1253.00,83.34
1252.00,83.31
1251.00,83.28
1250.00,83.26
1249.00,83.24
1248.00,83.20
1247.00,83.15
1246.00,83.10
1245.00,83.06
1244.00,83.01
1243.00,82.96
1242.00,82.90
1241.00,82.86
1240.00,82.83
1239.00,82.83
1238.00,82.84
1237.00,82.85
1236.00,82.87
1235.00,82.90
1234.00,82.93
1233.00,82.96
1232.00,82.99
1231.00,83.04
1230.00,83.09
1229.00,83.15
1228.00,83.21
1227.00,83.28
1226.00,83.36
1225.00,83.46
1224.00,83.56
1223.00,83.66
1222.00,83.76
1221.00,83.85
1220.00,83.94
1219.00,84.04
1218.00,84.14
1217.00,84.23
1216.00,84.32
1215.00,84.40
1214.00,84.48
1213.00,84.55
1212.00,84.59
1211.00,84.62
1210.00,84.65
1209.00,84.68
1208.00,84.73
1207.00,84.78
1206.00,84.82
1205.00,84.85
1204.00,84.88
1203.00,84.91
1202.00,84.96
1201.00,85.01
1200.00,85.06
1199.00,85.12
1198.00,85.18
1197.00,85.24
1196.00,85.27
1195.00,85.29
1194.00,85.31
1193.00,85.33
1192.00,85.37
1191.00,85.40
1190.00,85.43
1189.00,85.46
1188.00,85.47
1187.00,85.48
1186.00,85.48
1185.00,85.48
1184.00,85.46
1183.00,85.44
1182.00,85.41
1181.00,85.39
1180.00,85.37
1179.00,85.36
1178.00,85.35
1177.00,85.34
1176.00,85.32
1175.00,85.30
1174.00,85.29
1173.00,85.30
1172.00,85.33
1171.00,85.38
1170.00,85.44
1169.00,85.51
1168.00,85.57
1167.00,85.64
1166.00,85.70
1165.00,85.75
1164.00,85.79
1163.00,85.82
1162.00,85.87
1161.00,85.93
1160.00,85.99
1159.00,86.04
1158.00,86.08
1157.00,86.10
1156.00,86.12
1155.00,86.16
1154.00,86.23
1153.00,86.30
1152.00,86.37
1151.00,86.44
1150.00,86.50
1149.00,86.58
1148.00,86.68
1147.00,86.78
1146.00,86.87
1145.00,86.96
1144.00,87.04
1143.00,87.09
1142.00,87.12
1141.00,87.13
1140.00,87.15
1139.00,87.18
1138.00,87.22
1137.00,87.24
1136.00,87.22
1135.00,87.20
1134.00,87.17
1133.00,87.14
1132.00,87.11
1131.00,87.07
1130.00,87.02
1129.00,86.97
1128.00,86.91
1127.00,86.86
1126.00,86.83
1125.00,86.81
1124.00,86.79
1123.00,86.76
1122.00,86.73
1121.00,86.69
1120.00,86.65
1119.00,86.61
1118.00,86.60
1117.00,86.62
1116.00,86.65
1115.00,86.66
1114.00,86.66
1113.00,86.63
1112.00,86.61
1111.00,86.57
1110.00,86.53
1109.00,86.48
1108.00,86.43
1107.00,86.41
1106.00,86.40
1105.00,86.39
1104.00,86.37
1103.00,86.33
1102.00,86.29
1101.00,86.27
1100.00,86.24
1099.00,86.20
1098.00,86.16
1097.00,86.12
1096.00,86.09
1095.00,86.06
1094.00,86.03
1093.00,85.99
1092.00,85.95
1091.00,85.90
1090.00,85.84
1089.00,85.79
1088.00,85.75
1087.00,85.69
1086.00,85.62
1085.00,85.53
1084.00,85.46
1083.00,85.39
1082.00,85.30
1081.00,85.20
1080.00,85.10
1079.00,85.05
1078.00,85.05
1077.00,85.06
1076.00,85.07
1075.00,85.06
1074.00,85.07
1073.00,85.10
1072.00,85.12
1071.00,85.16
1070.00,85.19
1069.00,85.22
1068.00,85.24
1067.00,85.25
1066.00,85.27
1065.00,85.28
1064.00,85.28
1063.00,85.29
1062.00,85.29
1061.00,85.31
1060.00,85.34
1059.00,85.35
1058.00,85.35
1057.00,85.35
1056.00,85.37
1055.00,85.39
1054.00,85.41
1053.00,85.43
1052.00,85.44
1051.00,85.43
1050.00,85.39
1049.00,85.35
1048.00,85.32
1047.00,85.32
1046.00,85.34
1045.00,85.37
1044.00,85.41
1043.00,85.46
1042.00,85.54
1041.00,85.62
1040.00,85.68
1039.00,85.75
1038.00,85.83
1037.00,85.93
1036.00,86.01
1035.00,86.06
1034.00,86.11
1033.00,86.15
1032.00,86.21
1031.00,86.27
1030.00,86.33
1029.00,86.40
1028.00,86.47
1027.00,86.53
1026.00,86.60
1025.00,86.67
1024.00,86.74
1023.00,86.83
1022.00,86.92
1021.00,87.02
1020.00,87.13
1019.00,87.24
1018.00,87.34
1017.00,87.43
1016.00,87.51
1015.00,87.58
1014.00,87.63
1013.00,87.70
1012.00,87.78
1011.00,87.89
1010.00,87.99
1009.00,88.06
1008.00,88.13
1007.00,88.20
1006.00,88.29
1005.00,88.39
1004.00,88.48
1003.00,88.54
1002.00,88.57
1001.00,88.61
1000.00,88.65
999.00,88.69
998.00,88.72
997.00,88.75
996.00,88.79
995.00,88.85
994.00,88.91
993.00,88.95
992.00,88.98
991.00,89.01
990.00,89.05
989.00,89.09
988.00,89.14
987.00,89.19
986.00,89.24
985.00,89.28
984.00,89.32
983.00,89.35
982.00,89.39
981.00,89.43
980.00,89.47
979.00,89.51
978.00,89.55
977.00,89.58
976.00,89.62
975.00,89.65
974.00,89.67
973.00,89.69
972.00,89.70
971.00,89.71
970.00,89.72
969.00,89.74
968.00,89.76
967.00,89.77
966.00,89.78
965.00,89.80
964.00,89.81
963.00,89.80
962.00,89.79
961.00,89.80
960.00,89.81
959.00,89.84
958.00,89.87
957.00,89.91
956.00,89.94
955.00,89.98
954.00,90.01
953.00,90.03
952.00,90.02
951.00,90.00
950.00,89.98
949.00,89.98
948.00,89.99
947.00,90.01
946.00,90.01
945.00,90.01
944.00,89.99
943.00,89.97
942.00,89.95
941.00,89.92
940.00,89.90
939.00,89.89
938.00,89.88
937.00,89.86
936.00,89.84
935.00,89.81
934.00,89.79
933.00,89.77
932.00,89.74
931.00,89.70
930.00,89.65
929.00,89.62
928.00,89.60
927.00,89.60
926.00,89.61
925.00,89.63
924.00,89.65
923.00,89.67
922.00,89.66
921.00,89.64
920.00,89.63
919.00,89.64
918.00,89.69
917.00,89.74
916.00,89.79
915.00,89.82
914.00,89.84
913.00,89.86
912.00,89.88
911.00,89.89
910.00,89.90
909.00,89.91
908.00,89.91
907.00,89.88
906.00,89.83
905.00,89.78
904.00,89.73
903.00,89.70
902.00,89.69
901.00,89.69
900.00,89.69
899.00,89.66
898.00,89.62
897.00,89.56
896.00,89.52
895.00,89.48
894.00,89.45
893.00,89.43
892.00,89.42
891.00,89.40
890.00,89.37
889.00,89.31
888.00,89.25
887.00,89.17
886.00,89.10
885.00,89.04
884.00,89.00
883.00,88.97
882.00,88.92
881.00,88.86
880.00,88.79
879.00,88.75
878.00,88.73
877.00,88.71
876.00,88.68
875.00,88.66
874.00,88.64
873.00,88.63
872.00,88.62
871.00,88.60
870.00,88.57
869.00,88.53
868.00,88.49
867.00,88.47
866.00,88.46
865.00,88.45
864.00,88.44
863.00,88.44
862.00,88.43
861.00,88.41
860.00,88.37
859.00,88.31
858.00,88.26
857.00,88.20
856.00,88.16
855.00,88.11
854.00,88.06
853.00,88.00
852.00,87.93
851.00,87.88
850.00,87.82
849.00,87.77
848.00,87.73
847.00,87.70
846.00,87.66
845.00,87.60
844.00,87.50
843.00,87.38
842.00,87.28
841.00,87.17
840.00,87.08
839.00,86.99
838.00,86.92
837.00,86.84
836.00,86.75
835.00,86.65
834.00,86.56
833.00,86.49
832.00,86.46
831.00,86.45
830.00,86.42
829.00,86.36
828.00,86.28
827.00,86.19
826.00,86.13
825.00,86.07
824.00,86.03
823.00,85.99
822.00,85.97
821.00,85.95
820.00,85.92
819.00,85.87
818.00,85.81
817.00,85.75
816.00,85.69
815.00,85.64
814.00,85.58
813.00,85.51
812.00,85.43
811.00,85.34
810.00,85.24
809.00,85.13
808.00,85.01
807.00,84.90
806.00,84.80
805.00,84.71
804.00,84.62
803.00,84.55
802.00,84.48
801.00,84.41
800.00,84.31
799.00,84.21
798.00,84.11
797.00,84.01
796.00,83.90
795.00,83.79
794.00,83.70
793.00,83.61
792.00,83.52
791.00,83.44
790.00,83.36
789.00,83.28
788.00,83.22
787.00,83.16
786.00,83.12
785.00,83.09
784.00,83.05
783.00,83.00
782.00,82.95
781.00,82.89
780.00,82.82
779.00,82.74
778.00,82.66
777.00,82.61
776.00,82.57
775.00,82.54
774.00,82.50
773.00,82.45
772.00,82.38
771.00,82.30
770.00,82.20
769.00,82.12
768.00,82.06
767.00,82.02
766.00,81.98
765.00,81.92
764.00,81.83
763.00,81.70
762.00,81.57
761.00,81.45
760.00,81.37
759.00,81.35
758.00,81.36
757.00,81.35
756.00,81.27
755.00,81.16
754.00,81.06
753.00,80.99
752.00,80.94
751.00,80.87
750.00,80.79
749.00,80.67
748.00,80.53
747.00,80.40
746.00,80.31
745.00,80.25
744.00,80.18
743.00,80.10
742.00,80.00
741.00,79.89
740.00,79.81
739.00,79.77
738.00,79.77
737.00,79.77
736.00,79.73
735.00,79.66
734.00,79.57
733.00,79.43
732.00,79.23
731.00,79.03
730.00,78.88
729.00,78.78
728.00,78.73
727.00,78.67
726.00,78.59
725.00,78.46
724.00,78.27
723.00,78.07
722.00,77.91
721.00,77.79
720.00,77.72
719.00,77.68
718.00,77.66
717.00,77.64
716.00,77.63
715.00,77.60
714.00,77.58
713.00,77.54
712.00,77.47
711.00,77.40
710.00,77.32
709.00,77.24
708.00,77.15
707.00,77.05
706.00,76.94
705.00,76.83
704.00,76.71
703.00,76.60
702.00,76.50
701.00,76.40
700.00,76.31
699.00,76.22
698.00,76.15
697.00,76.08
696.00,76.03
695.00,76.00
694.00,75.99
693.00,75.93
692.00,75.83
691.00,75.71
690.00,75.63
689.00,75.59
688.00,75.57
687.00,75.53
686.00,75.45
685.00,75.35
684.00,75.28
683.00,75.25
682.00,75.24
681.00,75.17
680.00,75.04
679.00,74.92
678.00,74.85
677.00,74.80
676.00,74.72
675.00,74.61
674.00,74.52
673.00,74.46
672.00,74.39
671.00,74.29
670.00,74.17
669.00,74.03
668.00,73.84
667.00,73.72
666.00,73.72
665.00,73.71
664.00,73.64
663.00,73.54
662.00,73.45
661.00,73.34
660.00,73.22
659.00,73.13
658.00,73.10
657.00,73.11
656.00,73.07
655.00,72.99
654.00,72.91
653.00,72.81
652.00,72.67
651.00,72.52
650.00,72.39
649.00,72.30
648.00,72.27
647.00,72.27
646.00,72.27
645.00,72.23
644.00,72.15
643.00,72.08
642.00,72.05
641.00,72.03
640.00,71.97
639.00,71.89
638.00,71.81
637.00,71.70
636.00,71.61
635.00,71.61
634.00,71.73
633.00,71.85
632.00,71.88
631.00,71.83
630.00,71.77
629.00,71.72
628.00,71.69
627.00,71.67
626.00,71.63
625.00,71.46
624.00,71.14
623.00,70.81
622.00,70.65
621.00,70.62
620.00,70.64
619.00,70.65
618.00,70.65
617.00,70.58
616.00,70.47
615.00,70.44
614.00,70.52
613.00,70.61
612.00,70.66
611.00,70.70
610.00,70.73
609.00,70.64
608.00,70.37
607.00,70.03
606.00,69.76
605.00,69.54
604.00,69.33
603.00,69.15
602.00,69.02
601.00,68.96
600.00,69.06
599.00,69.37
598.00,69.74
597.00,70.00
596.00,70.13
595.00,70.31
594.00,70.56
593.00,70.66
592.00,70.47
591.00,70.10
590.00,69.79
589.00,69.58
588.00,69.44
587.00,69.45
586.00,69.55
585.00,69.60
584.00,69.56
583.00,69.57
582.00,69.60
581.00,69.44
580.00,69.12
579.00,69.03
578.00,69.29
577.00,69.38
576.00,68.94
575.00,68.30
574.00,68.04
573.00,68.19
572.00,68.51
571.00,68.86
570.00,68.94
569.00,68.43
568.00,67.46
567.00,66.83
566.00,66.96
565.00,67.34
564.00,67.28
563.00,66.84
562.00,66.54
561.00,66.50
560.00,66.50
559.00,66.51
558.00,66.76
557.00,67.36
556.00,68.18
555.00,68.96
554.00,69.40
553.00,69.35
552.00,68.95
551.00,68.46
550.00,67.99
