Created as New Dataset,15.2 Red Wool sheep scoured
cm-1,%T
4000.00,99.69
3999.00,99.68
3998.00,99.68
3997.00,99.67
3996.00,99.68
3995.00,99.70
3994.00,99.72
3993.00,99.73
3992.00,99.72
3991.00,99.69
3990.00,99.65
3989.00,99.64
3988.00,99.64
3987.00,99.65
3986.00,99.67
3985.00,99.69
3984.00,99.72
3983.00,99.74
3982.00,99.74
3981.00,99.73
3980.00,99.72
3979.00,99.71
3978.00,99.71
3977.00,99.73
3976.00,99.73
3975.00,99.73
3974.00,99.71
3973.00,99.68
3972.00,99.66
3971.00,99.66
3970.00,99.66
3969.00,99.67
3968.00,99.68
3967.00,99.68
3966.00,99.68
3965.00,99.68
3964.00,99.68
3963.00,99.68
3962.00,99.67
3961.00,99.65
3960.00,99.64
3959.00,99.62
3958.00,99.62
3957.00,99.63
3956.00,99.66
3955.00,99.69
3954.00,99.70
3953.00,99.70
3952.00,99.67
3951.00,99.65
3950.00,99.63
3949.00,99.64
3948.00,99.65
3947.00,99.66
3946.00,99.66
3945.00,99.66
3944.00,99.65
3943.00,99.65
3942.00,99.65
3941.00,99.65
3940.00,99.65
3939.00,99.65
3938.00,99.65
3937.00,99.65
3936.00,99.64
3935.00,99.64
3934.00,99.62
3933.00,99.61
3932.00,99.60
3931.00,99.60
3930.00,99.61
3929.00,99.62
3928.00,99.63
3927.00,99.64
3926.00,99.65
3925.00,99.66
3924.00,99.67
3923.00,99.67
3922.00,99.67
3921.00,99.66
3920.00,99.65
3919.00,99.64
3918.00,99.64
3917.00,99.64
3916.00,99.64
3915.00,99.65
3914.00,99.65
3913.00,99.66
3912.00,99.65
3911.00,99.65
3910.00,99.64
3909.00,99.62
3908.00,99.62
3907.00,99.62
3906.00,99.64
3905.00,99.67
3904.00,99.70
3903.00,99.70
3902.00,99.68
3901.00,99.65
3900.00,99.62
3899.00,99.60
3898.00,99.60
3897.00,99.61
3896.00,99.61
3895.00,99.62
3894.00,99.64
3893.00,99.65
3892.00,99.66
3891.00,99.66
3890.00,99.66
3889.00,99.64
3888.00,99.63
3887.00,99.61
3886.00,99.60
3885.00,99.59
3884.00,99.58
3883.00,99.58
3882.00,99.59
3881.00,99.59
3880.00,99.60
3879.00,99.61
3878.00,99.61
3877.00,99.61
3876.00,99.61
3875.00,99.59
3874.00,99.58
3873.00,99.57
3872.00,99.58
3871.00,99.60
3870.00,99.61
3869.00,99.61
3868.00,99.59
3867.00,99.57
3866.00,99.56
3865.00,99.57
3864.00,99.58
3863.00,99.60
3862.00,99.61
3861.00,99.61
3860.00,99.62
3859.00,99.62
3858.00,99.62
3857.00,99.62
3856.00,99.61
3855.00,99.59
3854.00,99.56
3853.00,99.54
3852.00,99.54
3851.00,99.54
3850.00,99.55
3849.00,99.55
3848.00,99.56
3847.00,99.57
3846.00,99.58
3845.00,99.58
3844.00,99.59
3843.00,99.59
3842.00,99.60
3841.00,99.60
3840.00,99.60
3839.00,99.59
3838.00,99.60
3837.00,99.62
3836.00,99.63
3835.00,99.63
3834.00,99.62
3833.00,99.60
3832.00,99.58
3831.00,99.56
3830.00,99.55
3829.00,99.54
3828.00,99.53
3827.00,99.52
3826.00,99.52
3825.00,99.52
3824.00,99.52
3823.00,99.54
3822.00,99.56
3821.00,99.56
3820.00,99.56
3819.00,99.56
3818.00,99.57
3817.00,99.59
3816.00,99.60
3815.00,99.60
3814.00,99.59
3813.00,99.57
3812.00,99.55
3811.00,99.52
3810.00,99.50
3809.00,99.48
3808.00,99.49
3807.00,99.51
3806.00,99.54
3805.00,99.57
3804.00,99.58
3803.00,99.60
3802.00,99.61
3801.00,99.61
3800.00,99.60
3799.00,99.59
3798.00,99.58
3797.00,99.57
3796.00,99.57
3795.00,99.57
3794.00,99.56
3793.00,99.55
3792.00,99.54
3791.00,99.54
3790.00,99.55
3789.00,99.55
3788.00,99.55
3787.00,99.55
3786.00,99.54
3785.00,99.53
3784.00,99.53
3783.00,99.54
3782.00,99.53
3781.00,99.52
3780.00,99.52
3779.00,99.53
3778.00,99.54
3777.00,99.55
3776.00,99.55
3775.00,99.55
3774.00,99.55
3773.00,99.55
3772.00,99.55
3771.00,99.54
3770.00,99.53
3769.00,99.51
3768.00,99.50
3767.00,99.48
3766.00,99.46
3765.00,99.44
3764.00,99.43
3763.00,99.43
3762.00,99.45
3761.00,99.48
3760.00,99.49
3759.00,99.49
3758.00,99.49
3757.00,99.49
3756.00,99.50
3755.00,99.50
3754.00,99.49
3753.00,99.47
3752.00,99.45
3751.00,99.44
3750.00,99.44
3749.00,99.43
3748.00,99.42
3747.00,99.40
3746.00,99.40
3745.00,99.41
3744.00,99.43
3743.00,99.43
3742.00,99.44
3741.00,99.45
3740.00,99.48
3739.00,99.51
3738.00,99.53
3737.00,99.55
3736.00,99.55
3735.00,99.55
3734.00,99.54
3733.00,99.53
3732.00,99.52
3731.00,99.51
3730.00,99.49
3729.00,99.48
3728.00,99.46
3727.00,99.45
3726.00,99.44
3725.00,99.45
3724.00,99.47
3723.00,99.49
3722.00,99.50
3721.00,99.50
3720.00,99.49
3719.00,99.46
3718.00,99.44
3717.00,99.42
3716.00,99.40
3715.00,99.39
3714.00,99.38
3713.00,99.37
3712.00,99.36
3711.00,99.35
3710.00,99.36
3709.00,99.39
3708.00,99.43
3707.00,99.46
3706.00,99.46
3705.00,99.43
3704.00,99.38
3703.00,99.33
3702.00,99.31
3701.00,99.31
3700.00,99.31
3699.00,99.32
3698.00,99.32
3697.00,99.32
3696.00,99.32
3695.00,99.32
3694.00,99.32
3693.00,99.30
3692.00,99.28
3691.00,99.25
3690.00,99.22
3689.00,99.20
3688.00,99.19
3687.00,99.20
3686.00,99.21
3685.00,99.22
3684.00,99.24
3683.00,99.26
3682.00,99.27
3681.00,99.26
3680.00,99.23
3679.00,99.19
3678.00,99.15
3677.00,99.12
3676.00,99.11
3675.00,99.11
3674.00,99.10
3673.00,99.09
3672.00,99.08
3671.00,99.08
3670.00,99.06
3669.00,99.05
3668.00,99.03
3667.00,99.02
3666.00,99.01
3665.00,98.99
3664.00,98.98
3663.00,98.96
3662.00,98.95
3661.00,98.94
3660.00,98.93
3659.00,98.89
3658.00,98.85
3657.00,98.80
3656.00,98.77
3655.00,98.76
3654.00,98.77
3653.00,98.78
3652.00,98.78
3651.00,98.78
3650.00,98.77
3649.00,98.76
3648.00,98.76
3647.00,98.75
3646.00,98.72
3645.00,98.67
3644.00,98.63
3643.00,98.60
3642.00,98.58
3641.00,98.57
3640.00,98.55
3639.00,98.53
3638.00,98.51
3637.00,98.49
3636.00,98.48
3635.00,98.46
3634.00,98.43
3633.00,98.39
3632.00,98.34
3631.00,98.29
3630.00,98.27
3629.00,98.28
3628.00,98.30
3627.00,98.30
3626.00,98.30
3625.00,98.29
3624.00,98.26
3623.00,98.23
3622.00,98.20
3621.00,98.16
3620.00,98.14
3619.00,98.13
3618.00,98.13
3617.00,98.12
3616.00,98.09
3615.00,98.05
3614.00,98.00
3613.00,97.96
3612.00,97.92
3611.00,97.88
3610.00,97.85
3609.00,97.82
3608.00,97.81
3607.00,97.81
3606.00,97.80
3605.00,97.78
3604.00,97.76
3603.00,97.75
3602.00,97.74
3601.00,97.74
3600.00,97.72
3599.00,97.69
3598.00,97.65
3597.00,97.60
3596.00,97.56
3595.00,97.54
3594.00,97.53
3593.00,97.53
3592.00,97.51
3591.00,97.47
3590.00,97.42
3589.00,97.37
3588.00,97.31
3587.00,97.27
3586.00,97.24
3585.00,97.22
3584.00,97.21
3583.00,97.19
3582.00,97.17
3581.00,97.15
3580.00,97.13
3579.00,97.11
3578.00,97.10
3577.00,97.08
3576.00,97.05
3575.00,97.02
3574.00,96.99
3573.00,96.95
3572.00,96.91
3571.00,96.87
3570.00,96.82
3569.00,96.78
3568.00,96.74
3567.00,96.73
3566.00,96.74
3565.00,96.75
3564.00,96.74
3563.00,96.70
3562.00,96.66
3561.00,96.61
3560.00,96.58
3559.00,96.55
3558.00,96.53
3557.00,96.49
3556.00,96.46
3555.00,96.42
3554.00,96.39
3553.00,96.36
3552.00,96.33
3551.00,96.29
3550.00,96.25
3549.00,96.20
3548.00,96.15
3547.00,96.11
3546.00,96.08
3545.00,96.07
3544.00,96.07
3543.00,96.06
3542.00,96.03
3541.00,96.00
3540.00,95.97
3539.00,95.94
3538.00,95.91
3537.00,95.89
3536.00,95.87
3535.00,95.86
3534.00,95.85
3533.00,95.83
3532.00,95.79
3531.00,95.76
3530.00,95.73
3529.00,95.72
3528.00,95.71
3527.00,95.69
3526.00,95.67
3525.00,95.63
3524.00,95.61
3523.00,95.59
3522.00,95.56
3521.00,95.53
3520.00,95.49
3519.00,95.45
3518.00,95.41
3517.00,95.38
3516.00,95.35
3515.00,95.34
3514.00,95.33
3513.00,95.33
3512.00,95.33
3511.00,95.30
3510.00,95.25
3509.00,95.19
3508.00,95.14
3507.00,95.11
3506.00,95.09
3505.00,95.06
3504.00,95.02
3503.00,94.99
3502.00,94.97
3501.00,94.96
3500.00,94.95
3499.00,94.94
3498.00,94.92
3497.00,94.89
3496.00,94.87
3495.00,94.84
3494.00,94.82
3493.00,94.80
3492.00,94.78
3491.00,94.76
3490.00,94.74
3489.00,94.72
3488.00,94.70
3487.00,94.68
3486.00,94.66
3485.00,94.63
3484.00,94.60
3483.00,94.57
3482.00,94.55
3481.00,94.53
3480.00,94.52
3479.00,94.51
3478.00,94.51
3477.00,94.52
3476.00,94.51
3475.00,94.50
3474.00,94.46
3473.00,94.43
3472.00,94.39
3471.00,94.35
3470.00,94.31
3469.00,94.27
3468.00,94.24
3467.00,94.22
3466.00,94.22
3465.00,94.23
3464.00,94.24
3463.00,94.25
3462.00,94.24
3461.00,94.22
3460.00,94.18
3459.00,94.15
3458.00,94.12
3457.00,94.10
3456.00,94.07
3455.00,94.03
3454.00,93.99
3453.00,93.96
3452.00,93.95
3451.00,93.96
3450.00,93.96
3449.00,93.95
3448.00,93.92
3447.00,93.88
3446.00,93.85
3445.00,93.82
3444.00,93.80
3443.00,93.79
3442.00,93.78
3441.00,93.77
3440.00,93.75
3439.00,93.73
3438.00,93.69
3437.00,93.66
3436.00,93.65
3435.00,93.65
3434.00,93.65
3433.00,93.65
3432.00,93.63
3431.00,93.61
3430.00,93.59
3429.00,93.57
3428.00,93.54
3427.00,93.50
3426.00,93.46
3425.00,93.42
3424.00,93.39
3423.00,93.36
3422.00,93.33
3421.00,93.31
3420.00,93.29
3419.00,93.28
3418.00,93.27
3417.00,93.24
3416.00,93.21
3415.00,93.18
3414.00,93.16
3413.00,93.14
3412.00,93.12
3411.00,93.09
3410.00,93.06
3409.00,93.03
3408.00,93.00
3407.00,92.99
3406.00,92.98
3405.00,92.98
3404.00,92.97
3403.00,92.96
3402.00,92.94
3401.00,92.91
3400.00,92.87
3399.00,92.84
3398.00,92.80
3397.00,92.78
3396.00,92.75
3395.00,92.72
3394.00,92.69
3393.00,92.67
3392.00,92.66
3391.00,92.66
3390.00,92.67
3389.00,92.68
3388.00,92.68
3387.00,92.67
3386.00,92.64
3385.00,92.60
3384.00,92.55
3383.00,92.51
3382.00,92.48
3381.00,92.46
3380.00,92.46
3379.00,92.46
3378.00,92.45
3377.00,92.43
3376.00,92.39
3375.00,92.35
3374.00,92.31
3373.00,92.28
3372.00,92.25
3371.00,92.23
3370.00,92.22
3369.00,92.20
3368.00,92.18
3367.00,92.17
3366.00,92.15
3365.00,92.14
3364.00,92.13
3363.00,92.11
3362.00,92.07
3361.00,92.03
3360.00,92.00
3359.00,91.98
3358.00,91.98
3357.00,91.97
3356.00,91.95
3355.00,91.91
3354.00,91.87
3353.00,91.83
3352.00,91.78
3351.00,91.75
3350.00,91.71
3349.00,91.68
3348.00,91.65
3347.00,91.62
3346.00,91.61
3345.00,91.60
3344.00,91.59
3343.00,91.57
3342.00,91.54
3341.00,91.51
3340.00,91.48
3339.00,91.45
3338.00,91.42
3337.00,91.40
3336.00,91.37
3335.00,91.33
3334.00,91.30
3333.00,91.27
3332.00,91.24
3331.00,91.20
3330.00,91.16
3329.00,91.12
3328.00,91.09
3327.00,91.05
3326.00,91.02
3325.00,90.99
3324.00,90.96
3323.00,90.93
3322.00,90.91
3321.00,90.89
3320.00,90.88
3319.00,90.85
3318.00,90.81
3317.00,90.76
3316.00,90.70
3315.00,90.64
3314.00,90.60
3313.00,90.58
3312.00,90.56
3311.00,90.54
3310.00,90.51
3309.00,90.48
3308.00,90.45
3307.00,90.43
3306.00,90.41
3305.00,90.37
3304.00,90.30
3303.00,90.23
3302.00,90.17
3301.00,90.12
3300.00,90.10
3299.00,90.08
3298.00,90.06
3297.00,90.04
3296.00,90.03
3295.00,90.01
3294.00,90.00
3293.00,89.98
3292.00,89.96
3291.00,89.93
3290.00,89.89
3289.00,89.85
3288.00,89.80
3287.00,89.77
3286.00,89.75
3285.00,89.76
3284.00,89.76
3283.00,89.76
3282.00,89.76
3281.00,89.75
3280.00,89.75
3279.00,89.75
3278.00,89.74
3277.00,89.74
3276.00,89.73
3275.00,89.73
3274.00,89.73
3273.00,89.72
3272.00,89.72
3271.00,89.74
3270.00,89.76
3269.00,89.79
3268.00,89.82
3267.00,89.84
3266.00,89.85
3265.00,89.87
3264.00,89.89
3263.00,89.92
3262.00,89.95
3261.00,89.98
3260.00,90.00
3259.00,90.03
3258.00,90.05
3257.00,90.08
3256.00,90.11
3255.00,90.14
3254.00,90.18
3253.00,90.22
3252.00,90.26
3251.00,90.31
3250.00,90.35
3249.00,90.38
3248.00,90.40
3247.00,90.42
3246.00,90.46
3245.00,90.49
3244.00,90.53
3243.00,90.57
3242.00,90.59
3241.00,90.61
3240.00,90.63
3239.00,90.66
3238.00,90.70
3237.00,90.75
3236.00,90.79
3235.00,90.84
3234.00,90.88
3233.00,90.91
3232.00,90.93
3231.00,90.95
3230.00,90.96
3229.00,90.97
3228.00,90.99
3227.00,91.01
3226.00,91.04
3225.00,91.05
3224.00,91.06
3223.00,91.07
3222.00,91.08
3221.00,91.11
3220.00,91.15
3219.00,91.19
3218.00,91.22
3217.00,91.24
3216.00,91.25
3215.00,91.26
3214.00,91.29
3213.00,91.32
3212.00,91.37
3211.00,91.40
3210.00,91.42
3209.00,91.44
3208.00,91.46
3207.00,91.48
3206.00,91.51
3205.00,91.54
3204.00,91.56
3203.00,91.57
3202.00,91.58
3201.00,91.58
3200.00,91.59
3199.00,91.62
3198.00,91.65
3197.00,91.69
3196.00,91.74
3195.00,91.78
3194.00,91.81
3193.00,91.83
3192.00,91.85
3191.00,91.88
3190.00,91.92
3189.00,91.95
3188.00,91.99
3187.00,92.02
3186.00,92.06
3185.00,92.10
3184.00,92.14
3183.00,92.18
3182.00,92.23
3181.00,92.26
3180.00,92.29
3179.00,92.32
3178.00,92.36
3177.00,92.40
3176.00,92.44
3175.00,92.48
3174.00,92.52
3173.00,92.54
3172.00,92.56
3171.00,92.58
3170.00,92.62
3169.00,92.67
3168.00,92.72
3167.00,92.76
3166.00,92.80
3165.00,92.85
3164.00,92.90
3163.00,92.94
3162.00,92.98
3161.00,93.03
3160.00,93.08
3159.00,93.12
3158.00,93.15
3157.00,93.16
3156.00,93.17
3155.00,93.21
3154.00,93.26
3153.00,93.32
3152.00,93.37
3151.00,93.41
3150.00,93.44
3149.00,93.46
3148.00,93.47
3147.00,93.48
3146.00,93.49
3145.00,93.51
3144.00,93.54
3143.00,93.57
3142.00,93.60
3141.00,93.62
3140.00,93.64
3139.00,93.65
3138.00,93.67
3137.00,93.70
3136.00,93.74
3135.00,93.78
3134.00,93.82
3133.00,93.85
3132.00,93.87
3131.00,93.89
3130.00,93.89
3129.00,93.90
3128.00,93.91
3127.00,93.92
3126.00,93.94
3125.00,93.97
3124.00,94.00
3123.00,94.04
3122.00,94.06
3121.00,94.07
3120.00,94.08
3119.00,94.09
3118.00,94.10
3117.00,94.12
3116.00,94.13
3115.00,94.13
3114.00,94.12
3113.00,94.11
3112.00,94.12
3111.00,94.14
3110.00,94.16
3109.00,94.16
3108.00,94.15
3107.00,94.14
3106.00,94.15
3105.00,94.16
3104.00,94.17
3103.00,94.17
3102.00,94.16
3101.00,94.15
3100.00,94.14
3099.00,94.14
3098.00,94.14
3097.00,94.14
3096.00,94.13
3095.00,94.13
3094.00,94.14
3093.00,94.15
3092.00,94.15
3091.00,94.14
3090.00,94.12
3089.00,94.10
3088.00,94.08
3087.00,94.07
3086.00,94.07
3085.00,94.06
3084.00,94.06
3083.00,94.07
3082.00,94.07
3081.00,94.06
3080.00,94.04
3079.00,94.02
3078.00,94.01
3077.00,94.01
3076.00,94.01
3075.00,94.02
3074.00,94.02
3073.00,94.03
3072.00,94.03
3071.00,94.04
3070.00,94.03
3069.00,94.02
3068.00,94.01
3067.00,94.01
3066.00,94.01
3065.00,94.02
3064.00,94.03
3063.00,94.03
3062.00,94.04
3061.00,94.05
3060.00,94.07
3059.00,94.09
3058.00,94.12
3057.00,94.15
3056.00,94.17
3055.00,94.19
3054.00,94.21
3053.00,94.23
3052.00,94.26
3051.00,94.28
3050.00,94.29
3049.00,94.29
3048.00,94.30
3047.00,94.32
3046.00,94.36
3045.00,94.40
3044.00,94.44
3043.00,94.47
3042.00,94.49
3041.00,94.50
3040.00,94.50
3039.00,94.51
3038.00,94.52
3037.00,94.54
3036.00,94.57
3035.00,94.61
3034.00,94.65
3033.00,94.69
3032.00,94.71
3031.00,94.73
3030.00,94.75
3029.00,94.76
3028.00,94.78
3027.00,94.80
3026.00,94.84
3025.00,94.87
3024.00,94.90
3023.00,94.91
3022.00,94.92
3021.00,94.92
3020.00,94.94
3019.00,94.97
3018.00,95.00
3017.00,95.02
3016.00,95.04
3015.00,95.06
3014.00,95.09
3013.00,95.11
3012.00,95.12
3011.00,95.13
3010.00,95.13
3009.00,95.13
3008.00,95.14
3007.00,95.14
3006.00,95.13
3005.00,95.12
3004.00,95.12
3003.00,95.13
3002.00,95.14
3001.00,95.15
3000.00,95.15
2999.00,95.15
2998.00,95.15
2997.00,95.13
2996.00,95.10
2995.00,95.07
2994.00,95.02
2993.00,94.98
2992.00,94.92
2991.00,94.86
2990.00,94.80
2989.00,94.75
2988.00,94.71
2987.00,94.67
2986.00,94.63
2985.00,94.58
2984.00,94.53
2983.00,94.47
2982.00,94.41
2981.00,94.35
2980.00,94.29
2979.00,94.22
2978.00,94.15
2977.00,94.06
2976.00,93.97
2975.00,93.87
2974.00,93.77
2973.00,93.65
2972.00,93.54
2971.00,93.44
2970.00,93.34
2969.00,93.24
2968.00,93.14
2967.00,93.03
2966.00,92.92
2965.00,92.82
2964.00,92.73
2963.00,92.66
2962.00,92.60
2961.00,92.55
2960.00,92.51
2959.00,92.46
2958.00,92.43
2957.00,92.41
2956.00,92.41
2955.00,92.42
2954.00,92.44
2953.00,92.45
2952.00,92.46
2951.00,92.47
2950.00,92.47
2949.00,92.47
2948.00,92.46
2947.00,92.45
2946.00,92.43
2945.00,92.39
2944.00,92.32
2943.00,92.23
2942.00,92.11
2941.00,91.97
2940.00,91.84
2939.00,91.71
2938.00,91.58
2937.00,91.45
2936.00,91.30
2935.00,91.14
2934.00,90.97
2933.00,90.80
2932.00,90.62
2931.00,90.44
2930.00,90.26
2929.00,90.09
2928.00,89.92
2927.00,89.75
2926.00,89.59
2925.00,89.43
2924.00,89.28
2923.00,89.14
2922.00,89.01
2921.00,88.88
2920.00,88.77
2919.00,88.70
2918.00,88.72
2917.00,88.82
2916.00,89.02
2915.00,89.31
2914.00,89.66
2913.00,90.06
2912.00,90.45
2911.00,90.82
2910.00,91.14
2909.00,91.42
2908.00,91.66
2907.00,91.87
2906.00,92.05
2905.00,92.19
2904.00,92.31
2903.00,92.41
2902.00,92.51
2901.00,92.61
2900.00,92.70
2899.00,92.79
2898.00,92.87
2897.00,92.95
2896.00,93.02
2895.00,93.10
2894.00,93.18
2893.00,93.27
2892.00,93.35
2891.00,93.41
2890.00,93.46
2889.00,93.50
2888.00,93.55
2887.00,93.61
2886.00,93.67
2885.00,93.73
2884.00,93.77
2883.00,93.80
2882.00,93.82
2881.00,93.82
2880.00,93.81
2879.00,93.79
2878.00,93.77
2877.00,93.75
2876.00,93.73
2875.00,93.71
2874.00,93.70
2873.00,93.70
2872.00,93.70
2871.00,93.71
2870.00,93.74
2869.00,93.78
2868.00,93.81
2867.00,93.83
2866.00,93.83
2865.00,93.82
2864.00,93.81
2863.00,93.78
2862.00,93.73
2861.00,93.63
2860.00,93.50
2859.00,93.34
2858.00,93.16
2857.00,92.97
2856.00,92.77
2855.00,92.55
2854.00,92.32
2853.00,92.07
2852.00,91.84
2851.00,91.68
2850.00,91.63
2849.00,91.76
2848.00,92.04
2847.00,92.45
2846.00,92.92
2845.00,93.38
2844.00,93.79
2843.00,94.13
2842.00,94.41
2841.00,94.65
2840.00,94.85
2839.00,95.02
2838.00,95.17
2837.00,95.29
2836.00,95.39
2835.00,95.49
2834.00,95.57
2833.00,95.63
2832.00,95.68
2831.00,95.72
2830.00,95.77
2829.00,95.82
2828.00,95.86
2827.00,95.90
2826.00,95.93
2825.00,95.96
2824.00,95.99
2823.00,96.01
2822.00,96.02
2821.00,96.05
2820.00,96.08
2819.00,96.11
2818.00,96.15
2817.00,96.18
2816.00,96.20
2815.00,96.22
2814.00,96.24
2813.00,96.26
2812.00,96.28
2811.00,96.30
2810.00,96.32
2809.00,96.33
2808.00,96.34
2807.00,96.36
2806.00,96.39
2805.00,96.41
2804.00,96.43
2803.00,96.44
2802.00,96.44
2801.00,96.44
2800.00,96.45
2799.00,96.47
2798.00,96.48
2797.00,96.50
2796.00,96.51
2795.00,96.52
2794.00,96.53
2793.00,96.55
2792.00,96.57
2791.00,96.59
2790.00,96.62
2789.00,96.63
2788.00,96.64
2787.00,96.65
2786.00,96.66
2785.00,96.68
2784.00,96.70
2783.00,96.71
2782.00,96.73
2781.00,96.74
2780.00,96.76
2779.00,96.76
2778.00,96.76
2777.00,96.76
2776.00,96.77
2775.00,96.78
2774.00,96.81
2773.00,96.84
2772.00,96.86
2771.00,96.88
2770.00,96.88
2769.00,96.87
2768.00,96.87
2767.00,96.87
2766.00,96.88
2765.00,96.89
2764.00,96.91
2763.00,96.92
2762.00,96.93
2761.00,96.93
2760.00,96.94
2759.00,96.95
2758.00,96.96
2757.00,96.97
2756.00,96.98
2755.00,96.99
2754.00,97.00
2753.00,97.00
2752.00,97.00
2751.00,96.99
2750.00,96.98
2749.00,96.99
2748.00,97.00
2747.00,97.00
2746.00,97.01
2745.00,97.01
2744.00,97.01
2743.00,97.01
2742.00,97.01
2741.00,97.02
2740.00,97.03
2739.00,97.05
2738.00,97.06
2737.00,97.08
2736.00,97.09
2735.00,97.11
2734.00,97.11
2733.00,97.12
2732.00,97.13
2731.00,97.14
2730.00,97.16
2729.00,97.15
2728.00,97.14
2727.00,97.14
2726.00,97.14
2725.00,97.15
2724.00,97.17
2723.00,97.19
2722.00,97.21
2721.00,97.22
2720.00,97.23
2719.00,97.24
2718.00,97.24
2717.00,97.25
2716.00,97.28
2715.00,97.30
2714.00,97.32
2713.00,97.32
2712.00,97.32
2711.00,97.32
2710.00,97.33
2709.00,97.34
2708.00,97.35
2707.00,97.36
2706.00,97.36
2705.00,97.36
2704.00,97.35
2703.00,97.34
2702.00,97.33
2701.00,97.33
2700.00,97.35
2699.00,97.36
2698.00,97.38
2697.00,97.38
2696.00,97.37
2695.00,97.36
2694.00,97.36
2693.00,97.35
2692.00,97.34
2691.00,97.34
2690.00,97.35
2689.00,97.35
2688.00,97.36
2687.00,97.36
2686.00,97.37
2685.00,97.38
2684.00,97.39
2683.00,97.40
2682.00,97.41
2681.00,97.41
2680.00,97.42
2679.00,97.43
2678.00,97.43
2677.00,97.43
2676.00,97.42
2675.00,97.41
2674.00,97.40
2673.00,97.39
2672.00,97.39
2671.00,97.40
2670.00,97.42
2669.00,97.45
2668.00,97.46
2667.00,97.47
2666.00,97.47
2665.00,97.45
2664.00,97.44
2663.00,97.43
2662.00,97.43
2661.00,97.44
2660.00,97.45
2659.00,97.46
2658.00,97.46
2657.00,97.44
2656.00,97.43
2655.00,97.43
2654.00,97.43
2653.00,97.43
2652.00,97.43
2651.00,97.43
2650.00,97.42
2649.00,97.41
2648.00,97.39
2647.00,97.38
2646.00,97.38
2645.00,97.39
2644.00,97.40
2643.00,97.41
2642.00,97.40
2641.00,97.38
2640.00,97.37
2639.00,97.37
2638.00,97.36
2637.00,97.36
2636.00,97.36
2635.00,97.36
2634.00,97.36
2633.00,97.36
2632.00,97.35
2631.00,97.34
2630.00,97.32
2629.00,97.31
2628.00,97.30
2627.00,97.30
2626.00,97.30
2625.00,97.29
2624.00,97.28
2623.00,97.28
2622.00,97.29
2621.00,97.31
2620.00,97.34
2619.00,97.36
2618.00,97.38
2617.00,97.38
2616.00,97.37
2615.00,97.36
2614.00,97.35
2613.00,97.34
2612.00,97.34
2611.00,97.35
2610.00,97.37
2609.00,97.37
2608.00,97.38
2607.00,97.37
2606.00,97.36
2605.00,97.34
2604.00,97.33
2603.00,97.32
2602.00,97.32
2601.00,97.32
2600.00,97.34
2599.00,97.35
2598.00,97.37
2597.00,97.37
2596.00,97.37
2595.00,97.36
2594.00,97.35
2593.00,97.32
2592.00,97.30
2591.00,97.28
2590.00,97.27
2589.00,97.27
2588.00,97.28
2587.00,97.30
2586.00,97.32
2585.00,97.33
2584.00,97.33
2583.00,97.33
2582.00,97.32
2581.00,97.31
2580.00,97.30
2579.00,97.30
2578.00,97.31
2577.00,97.33
2576.00,97.34
2575.00,97.34
2574.00,97.34
2573.00,97.34
2572.00,97.35
2571.00,97.36
2570.00,97.36
2569.00,97.36
2568.00,97.35
2567.00,97.34
2566.00,97.35
2565.00,97.37
2564.00,97.39
2563.00,97.39
2562.00,97.40
2561.00,97.40
2560.00,97.41
2559.00,97.41
2558.00,97.41
2557.00,97.41
2556.00,97.41
2555.00,97.40
2554.00,97.40
2553.00,97.40
2552.00,97.41
2551.00,97.42
2550.00,97.42
2549.00,97.42
2548.00,97.43
2547.00,97.44
2546.00,97.44
2545.00,97.43
2544.00,97.40
2543.00,97.36
2542.00,97.34
2541.00,97.34
2540.00,97.37
2539.00,97.40
2538.00,97.42
2537.00,97.43
2536.00,97.42
2535.00,97.40
2534.00,97.40
2533.00,97.40
2532.00,97.40
2531.00,97.39
2530.00,97.37
2529.00,97.36
2528.00,97.36
2527.00,97.39
2526.00,97.42
2525.00,97.45
2524.00,97.47
2523.00,97.47
2522.00,97.45
2521.00,97.42
2520.00,97.41
2519.00,97.40
2518.00,97.41
2517.00,97.42
2516.00,97.43
2515.00,97.44
2514.00,97.45
2513.00,97.45
2512.00,97.45
2511.00,97.45
2510.00,97.47
2509.00,97.49
2508.00,97.51
2507.00,97.50
2506.00,97.48
2505.00,97.47
2504.00,97.45
2503.00,97.45
2502.00,97.45
2501.00,97.46
2500.00,97.47
2499.00,97.49
2498.00,97.50
2497.00,97.50
2496.00,97.49
2495.00,97.46
2494.00,97.43
2493.00,97.41
2492.00,97.40
2491.00,97.42
2490.00,97.45
2489.00,97.48
2488.00,97.50
2487.00,97.50
2486.00,97.50
2485.00,97.49
2484.00,97.48
2483.00,97.48
2482.00,97.49
2481.00,97.51
2480.00,97.54
2479.00,97.55
2478.00,97.55
2477.00,97.54
2476.00,97.52
2475.00,97.52
2474.00,97.54
2473.00,97.55
2472.00,97.57
2471.00,97.56
2470.00,97.54
2469.00,97.51
2468.00,97.48
2467.00,97.48
2466.00,97.50
2465.00,97.51
2464.00,97.51
2463.00,97.50
2462.00,97.49
2461.00,97.50
2460.00,97.52
2459.00,97.56
2458.00,97.59
2457.00,97.61
2456.00,97.62
2455.00,97.61
2454.00,97.60
2453.00,97.57
2452.00,97.56
2451.00,97.55
2450.00,97.56
2449.00,97.56
2448.00,97.55
2447.00,97.55
2446.00,97.55
2445.00,97.54
2444.00,97.54
2443.00,97.54
2442.00,97.56
2441.00,97.59
2440.00,97.62
2439.00,97.63
2438.00,97.62
2437.00,97.61
2436.00,97.61
2435.00,97.62
2434.00,97.62
2433.00,97.61
2432.00,97.59
2431.00,97.59
2430.00,97.60
2429.00,97.61
2428.00,97.61
2427.00,97.61
2426.00,97.62
2425.00,97.62
2424.00,97.63
2423.00,97.63
2422.00,97.62
2421.00,97.62
2420.00,97.62
2419.00,97.61
2418.00,97.62
2417.00,97.63
2416.00,97.65
2415.00,97.67
2414.00,97.67
2413.00,97.66
2412.00,97.65
2411.00,97.64
2410.00,97.64
2409.00,97.66
2408.00,97.68
2407.00,97.70
2406.00,97.72
2405.00,97.71
2404.00,97.70
2403.00,97.70
2402.00,97.72
2401.00,97.74
2400.00,97.77
2399.00,97.79
2398.00,97.80
2397.00,97.79
2396.00,97.77
2395.00,97.75
2394.00,97.74
2393.00,97.75
2392.00,97.77
2391.00,97.78
2390.00,97.79
2389.00,97.78
2388.00,97.78
2387.00,97.80
2386.00,97.82
2385.00,97.84
2384.00,97.86
2383.00,97.88
2382.00,97.89
2381.00,97.89
2380.00,97.88
2379.00,97.88
2378.00,97.89
2377.00,97.91
2376.00,97.91
2375.00,97.91
2374.00,97.91
2373.00,97.92
2372.00,97.93
2371.00,97.95
2370.00,97.97
2369.00,97.99
2368.00,97.99
2367.00,97.97
2366.00,97.95
2365.00,97.97
2364.00,98.02
2363.00,98.03
2362.00,97.97
2361.00,97.88
2360.00,97.84
2359.00,97.89
2358.00,97.97
2357.00,98.05
2356.00,98.08
2355.00,98.06
2354.00,97.99
2353.00,97.95
2352.00,97.95
2351.00,97.99
2350.00,98.00
2349.00,98.00
2348.00,97.99
2347.00,98.00
2346.00,98.03
2345.00,98.06
2344.00,98.07
2343.00,98.05
2342.00,98.00
2341.00,97.94
2340.00,97.89
2339.00,97.88
2338.00,97.89
2337.00,97.92
2336.00,97.96
2335.00,97.98
2334.00,97.98
2333.00,97.98
2332.00,98.00
2331.00,98.04
2330.00,98.06
2329.00,98.05
2328.00,98.01
2327.00,97.96
2326.00,97.90
2325.00,97.85
2324.00,97.80
2323.00,97.76
2322.00,97.74
2321.00,97.73
2320.00,97.73
2319.00,97.75
2318.00,97.75
2317.00,97.76
2316.00,97.76
2315.00,97.78
2314.00,97.80
2313.00,97.81
2312.00,97.81
2311.00,97.81
2310.00,97.80
2309.00,97.79
2308.00,97.77
2307.00,97.75
2306.00,97.73
2305.00,97.72
2304.00,97.71
2303.00,97.71
2302.00,97.71
2301.00,97.72
2300.00,97.70
2299.00,97.67
2298.00,97.63
2297.00,97.60
2296.00,97.58
2295.00,97.57
2294.00,97.57
2293.00,97.55
2292.00,97.53
2291.00,97.51
2290.00,97.49
2289.00,97.48
2288.00,97.46
2287.00,97.43
2286.00,97.40
2285.00,97.37
2284.00,97.35
2283.00,97.36
2282.00,97.39
2281.00,97.42
2280.00,97.43
2279.00,97.44
2278.00,97.43
2277.00,97.40
2276.00,97.37
2275.00,97.34
2274.00,97.34
2273.00,97.34
2272.00,97.34
2271.00,97.33
2270.00,97.31
2269.00,97.26
2268.00,97.22
2267.00,97.19
2266.00,97.20
2265.00,97.23
2264.00,97.26
2263.00,97.29
2262.00,97.28
2261.00,97.25
2260.00,97.20
2259.00,97.16
2258.00,97.12
2257.00,97.10
2256.00,97.09
2255.00,97.11
2254.00,97.14
2253.00,97.17
2252.00,97.18
2251.00,97.16
2250.00,97.13
2249.00,97.10
2248.00,97.09
2247.00,97.09
2246.00,97.09
2245.00,97.08
2244.00,97.07
2243.00,97.05
2242.00,97.05
2241.00,97.05
2240.00,97.04
2239.00,97.03
2238.00,97.00
2237.00,96.99
2236.00,97.01
2235.00,97.05
2234.00,97.08
2233.00,97.08
2232.00,97.04
2231.00,97.00
2230.00,96.97
2229.00,96.95
2228.00,96.96
2227.00,96.98
2226.00,96.99
2225.00,96.97
2224.00,96.93
2223.00,96.88
2222.00,96.85
2221.00,96.85
2220.00,96.87
2219.00,96.90
2218.00,96.91
2217.00,96.90
2216.00,96.88
2215.00,96.90
2214.00,96.92
2213.00,96.93
2212.00,96.88
2211.00,96.80
2210.00,96.71
2209.00,96.64
2208.00,96.62
2207.00,96.62
2206.00,96.64
2205.00,96.65
2204.00,96.66
2203.00,96.67
2202.00,96.67
2201.00,96.64
2200.00,96.61
2199.00,96.59
2198.00,96.61
2197.00,96.66
2196.00,96.70
2195.00,96.70
2194.00,96.65
2193.00,96.59
2192.00,96.56
2191.00,96.57
2190.00,96.58
2189.00,96.58
2188.00,96.56
2187.00,96.53
2186.00,96.51
2185.00,96.51
2184.00,96.53
2183.00,96.57
2182.00,96.60
2181.00,96.60
2180.00,96.58
2179.00,96.56
2178.00,96.56
2177.00,96.58
2176.00,96.61
2175.00,96.63
2174.00,96.62
2173.00,96.60
2172.00,96.54
2171.00,96.48
2170.00,96.41
2169.00,96.34
2168.00,96.30
2167.00,96.28
2166.00,96.27
2165.00,96.25
2164.00,96.21
2163.00,96.15
2162.00,96.11
2161.00,96.12
2160.00,96.20
2159.00,96.31
2158.00,96.41
2157.00,96.48
2156.00,96.55
2155.00,96.64
2154.00,96.69
2153.00,96.70
2152.00,96.67
2151.00,96.65
2150.00,96.66
2149.00,96.70
2148.00,96.77
2147.00,96.83
2146.00,96.86
2145.00,96.85
2144.00,96.83
2143.00,96.86
2142.00,96.91
2141.00,96.95
2140.00,96.97
2139.00,96.96
2138.00,96.95
2137.00,96.96
2136.00,97.00
2135.00,97.07
2134.00,97.17
2133.00,97.26
2132.00,97.32
2131.00,97.33
2130.00,97.30
2129.00,97.25
2128.00,97.22
2127.00,97.21
2126.00,97.22
2125.00,97.21
2124.00,97.20
2123.00,97.18
2122.00,97.17
2121.00,97.16
2120.00,97.15
2119.00,97.16
2118.00,97.18
2117.00,97.21
2116.00,97.23
2115.00,97.23
2114.00,97.20
2113.00,97.16
2112.00,97.12
2111.00,97.10
2110.00,97.09
2109.00,97.10
2108.00,97.11
2107.00,97.12
2106.00,97.13
2105.00,97.13
2104.00,97.12
2103.00,97.12
2102.00,97.11
2101.00,97.10
2100.00,97.11
2099.00,97.12
2098.00,97.15
2097.00,97.19
2096.00,97.23
2095.00,97.26
2094.00,97.27
2093.00,97.24
2092.00,97.19
2091.00,97.16
2090.00,97.15
2089.00,97.16
2088.00,97.16
2087.00,97.13
2086.00,97.08
2085.00,97.04
2084.00,97.03
2083.00,97.05
2082.00,97.08
2081.00,97.09
2080.00,97.09
2079.00,97.06
2078.00,97.03
2077.00,96.99
2076.00,96.97
2075.00,96.97
2074.00,96.99
2073.00,97.02
2072.00,97.04
2071.00,97.03
2070.00,97.00
2069.00,96.97
2068.00,96.97
2067.00,97.00
2066.00,97.03
2065.00,97.03
2064.00,97.00
2063.00,96.98
2062.00,96.97
2061.00,96.99
2060.00,97.01
2059.00,97.04
2058.00,97.06
2057.00,97.07
2056.00,97.05
2055.00,97.03
2054.00,96.99
2053.00,96.95
2052.00,96.91
2051.00,96.87
2050.00,96.83
2049.00,96.79
2048.00,96.76
2047.00,96.76
2046.00,96.76
2045.00,96.75
2044.00,96.72
2043.00,96.69
2042.00,96.66
2041.00,96.62
2040.00,96.58
2039.00,96.56
2038.00,96.54
2037.00,96.51
2036.00,96.48
2035.00,96.48
2034.00,96.50
2033.00,96.53
2032.00,96.58
2031.00,96.66
2030.00,96.74
2029.00,96.78
2028.00,96.79
2027.00,96.80
2026.00,96.80
2025.00,96.79
2024.00,96.73
2023.00,96.67
2022.00,96.64
2021.00,96.65
2020.00,96.69
2019.00,96.74
2018.00,96.79
2017.00,96.83
2016.00,96.86
2015.00,96.86
2014.00,96.80
2013.00,96.70
2012.00,96.60
2011.00,96.55
2010.00,96.56
2009.00,96.61
2008.00,96.67
2007.00,96.73
2006.00,96.78
2005.00,96.81
2004.00,96.83
2003.00,96.86
2002.00,96.90
2001.00,96.92
2000.00,96.92
1999.00,96.90
1998.00,96.88
1997.00,96.85
1996.00,96.85
1995.00,96.88
1994.00,96.93
1993.00,96.97
1992.00,96.98
1991.00,96.97
1990.00,96.93
1989.00,96.88
1988.00,96.84
1987.00,96.83
1986.00,96.83
1985.00,96.83
1984.00,96.82
1983.00,96.82
1982.00,96.81
1981.00,96.76
1980.00,96.71
1979.00,96.68
1978.00,96.69
1977.00,96.70
1976.00,96.72
1975.00,96.76
1974.00,96.84
1973.00,96.91
1972.00,96.96
1971.00,96.97
1970.00,96.98
1969.00,96.96
1968.00,96.94
1967.00,96.91
1966.00,96.90
1965.00,96.92
1964.00,96.96
1963.00,97.02
1962.00,97.08
1961.00,97.12
1960.00,97.14
1959.00,97.16
1958.00,97.20
1957.00,97.25
1956.00,97.32
1955.00,97.38
1954.00,97.39
1953.00,97.37
1952.00,97.32
1951.00,97.29
1950.00,97.28
1949.00,97.27
1948.00,97.27
1947.00,97.27
1946.00,97.27
1945.00,97.25
1944.00,97.24
1943.00,97.25
1942.00,97.31
1941.00,97.37
1940.00,97.44
1939.00,97.48
1938.00,97.49
1937.00,97.47
1936.00,97.44
1935.00,97.42
1934.00,97.41
1933.00,97.41
1932.00,97.41
1931.00,97.43
1930.00,97.48
1929.00,97.54
1928.00,97.57
1927.00,97.58
1926.00,97.58
1925.00,97.58
1924.00,97.59
1923.00,97.61
1922.00,97.61
1921.00,97.61
1920.00,97.60
1919.00,97.59
1918.00,97.58
1917.00,97.57
1916.00,97.58
1915.00,97.60
1914.00,97.61
1913.00,97.61
1912.00,97.61
1911.00,97.64
1910.00,97.67
1909.00,97.68
1908.00,97.67
1907.00,97.67
1906.00,97.66
1905.00,97.65
1904.00,97.64
1903.00,97.63
1902.00,97.63
1901.00,97.64
1900.00,97.66
1899.00,97.69
1898.00,97.72
1897.00,97.73
1896.00,97.74
1895.00,97.73
1894.00,97.73
1893.00,97.74
1892.00,97.75
1891.00,97.77
1890.00,97.79
1889.00,97.80
1888.00,97.81
1887.00,97.81
1886.00,97.79
1885.00,97.75
1884.00,97.72
1883.00,97.71
1882.00,97.71
1881.00,97.72
1880.00,97.74
1879.00,97.77
1878.00,97.79
1877.00,97.80
1876.00,97.82
1875.00,97.84
1874.00,97.85
1873.00,97.86
1872.00,97.86
1871.00,97.88
1870.00,97.91
1869.00,97.93
1868.00,97.92
1867.00,97.90
1866.00,97.88
1865.00,97.87
1864.00,97.87
1863.00,97.89
1862.00,97.90
1861.00,97.90
1860.00,97.89
1859.00,97.87
1858.00,97.87
1857.00,97.87
1856.00,97.88
1855.00,97.89
1854.00,97.91
1853.00,97.92
1852.00,97.92
1851.00,97.93
1850.00,97.94
1849.00,97.95
1848.00,97.97
1847.00,98.00
1846.00,98.04
1845.00,98.06
1844.00,98.04
1843.00,98.00
1842.00,97.98
1841.00,97.97
1840.00,97.97
1839.00,97.97
1838.00,97.98
1837.00,97.99
1836.00,98.01
1835.00,98.02
1834.00,98.03
1833.00,98.02
1832.00,98.02
1831.00,98.04
1830.00,98.05
1829.00,98.04
1828.00,98.02
1827.00,98.02
1826.00,98.04
1825.00,98.04
1824.00,98.03
1823.00,98.02
1822.00,98.03
1821.00,98.03
1820.00,98.03
1819.00,98.03
1818.00,98.05
1817.00,98.05
1816.00,98.05
1815.00,98.04
1814.00,98.03
1813.00,98.02
1812.00,98.02
1811.00,98.03
1810.00,98.04
1809.00,98.04
1808.00,98.03
1807.00,98.02
1806.00,98.01
1805.00,98.00
1804.00,97.99
1803.00,98.01
1802.00,98.04
1801.00,98.05
1800.00,98.05
1799.00,98.03
1798.00,98.02
1797.00,98.00
1796.00,97.99
1795.00,98.00
1794.00,98.04
1793.00,98.06
1792.00,98.05
1791.00,98.04
1790.00,98.04
1789.00,98.04
1788.00,98.02
1787.00,98.00
1786.00,97.99
1785.00,97.99
1784.00,97.98
1783.00,97.97
1782.00,97.97
1781.00,97.96
1780.00,97.93
1779.00,97.88
1778.00,97.87
1777.00,97.86
1776.00,97.84
1775.00,97.83
1774.00,97.83
1773.00,97.82
1772.00,97.79
1771.00,97.76
1770.00,97.73
1769.00,97.72
1768.00,97.79
1767.00,97.74
1766.00,97.70
1765.00,97.66
1764.00,97.64
1763.00,97.64
1762.00,97.63
1761.00,97.60
1760.00,97.56
1759.00,97.53
1758.00,97.50
1757.00,97.45
1756.00,97.39
1755.00,97.33
1754.00,97.28
1753.00,97.21
1752.00,97.11
1751.00,97.02
1750.00,96.94
1749.00,96.87
1748.00,96.79
1747.00,96.70
1746.00,96.61
1745.00,96.51
1744.00,96.40
1743.00,96.28
1742.00,96.19
1741.00,96.11
1740.00,96.02
1739.00,95.93
1738.00,95.87
1737.00,95.85
1736.00,95.84
1735.00,95.82
1734.00,95.81
1733.00,95.77
1732.00,95.77
1731.00,95.81
1730.00,95.87
1729.00,95.90
1728.00,95.89
1727.00,95.89
1726.00,95.90
1725.00,95.90
1724.00,95.88
1723.00,95.87
1722.00,95.88
1721.00,95.89
1720.00,95.89
1719.00,95.87
1718.00,95.80
1717.00,95.69
1716.00,95.60
1715.00,95.57
1714.00,95.56
1713.00,95.51
1712.00,95.41
1711.00,95.31
1710.00,95.20
1709.00,95.08
1708.00,94.96
1707.00,94.83
1706.00,94.70
1705.00,94.53
1704.00,94.37
1703.00,94.26
1702.00,94.14
1701.00,93.89
1700.00,93.51
1699.00,93.16
1698.00,92.88
1697.00,92.58
1696.00,92.15
1695.00,91.71
1694.00,91.41
1693.00,91.22
1692.00,91.00
1691.00,90.72
1690.00,90.41
1689.00,90.11
1688.00,89.84
1687.00,89.58
1686.00,89.26
1685.00,88.85
1684.00,88.43
1683.00,88.15
1682.00,88.00
1681.00,87.84
1680.00,87.57
1679.00,87.27
1678.00,87.00
1677.00,86.74
1676.00,86.46
1675.00,86.19
1674.00,85.97
1673.00,85.76
1672.00,85.52
1671.00,85.26
1670.00,84.97
1669.00,84.68
1668.00,84.41
1667.00,84.17
1666.00,83.95
1665.00,83.70
1664.00,83.41
1663.00,83.10
1662.00,82.79
1661.00,82.50
1660.00,82.22
1659.00,81.94
1658.00,81.65
1657.00,81.37
1656.00,81.09
1655.00,80.78
1654.00,80.39
1653.00,79.93
1652.00,79.55
1651.00,79.34
1650.00,79.24
1649.00,79.13
1648.00,78.95
1647.00,78.74
1646.00,78.57
1645.00,78.46
1644.00,78.37
1643.00,78.28
1642.00,78.20
1641.00,78.12
1640.00,78.02
1639.00,77.92
1638.00,77.84
1637.00,77.78
1636.00,77.75
1635.00,77.76
1634.00,77.76
1633.00,77.74
1632.00,77.69
1631.00,77.64
1630.00,77.60
1629.00,77.61
1628.00,77.64
1627.00,77.69
1626.00,77.74
1625.00,77.82
1624.00,77.94
1623.00,78.12
1622.00,78.35
1621.00,78.56
1620.00,78.75
1619.00,78.92
1618.00,79.13
1617.00,79.40
1616.00,79.72
1615.00,80.05
1614.00,80.39
1613.00,80.73
1612.00,81.06
1611.00,81.39
1610.00,81.74
1609.00,82.10
1608.00,82.46
1607.00,82.80
1606.00,83.12
1605.00,83.44
1604.00,83.76
1603.00,84.08
1602.00,84.39
1601.00,84.68
1600.00,84.95
1599.00,85.21
1598.00,85.45
1597.00,85.68
1596.00,85.90
1595.00,86.10
1594.00,86.27
1593.00,86.43
1592.00,86.59
1591.00,86.76
1590.00,86.91
1589.00,87.04
1588.00,87.16
1587.00,87.26
1586.00,87.33
1585.00,87.37
1584.00,87.40
1583.00,87.42
1582.00,87.42
1581.00,87.40
1580.00,87.39
1579.00,87.36
1578.00,87.29
1577.00,87.16
1576.00,87.02
1575.00,86.91
1574.00,86.85
1573.00,86.84
1572.00,86.80
1571.00,86.71
1570.00,86.56
1569.00,86.40
1568.00,86.27
1567.00,86.14
1566.00,85.97
1565.00,85.76
1564.00,85.55
1563.00,85.37
1562.00,85.19
1561.00,84.97
1560.00,84.68
1559.00,84.34
1558.00,84.02
1557.00,83.82
1556.00,83.64
1555.00,83.38
1554.00,83.09
1553.00,82.80
1552.00,82.57
1551.00,82.34
1550.00,82.08
1549.00,81.83
1548.00,81.60
1547.00,81.40
1546.00,81.21
1545.00,81.03
1544.00,80.87
1543.00,80.71
1542.00,80.52
1541.00,80.30
1540.00,80.09
1539.00,79.93
1538.00,79.84
1537.00,79.80
1536.00,79.78
1535.00,79.75
1534.00,79.70
1533.00,79.66
1532.00,79.63
1531.00,79.60
1530.00,79.55
1529.00,79.51
1528.00,79.49
1527.00,79.51
1526.00,79.54
1525.00,79.55
1524.00,79.55
1523.00,79.54
1522.00,79.52
1521.00,79.50
1520.00,79.48
1519.00,79.45
1518.00,79.42
1517.00,79.38
1516.00,79.37
1515.00,79.40
1514.00,79.46
1513.00,79.55
1512.00,79.66
1511.00,79.79
1510.00,79.93
1509.00,80.08
1508.00,80.31
1507.00,80.64
1506.00,80.96
1505.00,81.19
1504.00,81.36
1503.00,81.52
1502.00,81.70
1501.00,81.91
1500.00,82.15
1499.00,82.41
1498.00,82.71
1497.00,83.04
1496.00,83.38
1495.00,83.69
1494.00,83.97
1493.00,84.25
1492.00,84.54
1491.00,84.87
1490.00,85.24
1489.00,85.59
1488.00,85.89
1487.00,86.13
1486.00,86.34
1485.00,86.51
1484.00,86.65
1483.00,86.77
1482.00,86.89
1481.00,86.99
1480.00,87.06
1479.00,87.10
1478.00,87.13
1477.00,87.13
1476.00,87.07
1475.00,86.95
1474.00,86.76
1473.00,86.51
1472.00,86.24
1471.00,86.02
1470.00,85.83
1469.00,85.66
1468.00,85.50
1467.00,85.38
1466.00,85.31
1465.00,85.27
1464.00,85.25
1463.00,85.24
1462.00,85.24
1461.00,85.23
1460.00,85.21
1459.00,85.18
1458.00,85.13
1457.00,85.07
1456.00,85.02
1455.00,84.99
1454.00,84.97
1453.00,84.95
1452.00,84.94
1451.00,84.95
1450.00,84.97
1449.00,85.00
1448.00,85.05
1447.00,85.08
1446.00,85.11
1445.00,85.14
1444.00,85.17
1443.00,85.22
1442.00,85.28
1441.00,85.34
1440.00,85.41
1439.00,85.49
1438.00,85.63
1437.00,85.82
1436.00,86.04
1435.00,86.21
1434.00,86.31
1433.00,86.38
1432.00,86.46
1431.00,86.57
1430.00,86.69
1429.00,86.81
1428.00,86.88
1427.00,86.93
1426.00,86.96
1425.00,86.98
1424.00,87.00
1423.00,87.01
1422.00,87.01
1421.00,86.99
1420.00,86.98
1419.00,86.97
1418.00,86.97
1417.00,86.96
1416.00,86.92
1415.00,86.85
1414.00,86.79
1413.00,86.75
1412.00,86.72
1411.00,86.68
1410.00,86.63
1409.00,86.60
1408.00,86.56
1407.00,86.54
1406.00,86.52
1405.00,86.50
1404.00,86.48
1403.00,86.44
1402.00,86.39
1401.00,86.36
1400.00,86.34
1399.00,86.32
1398.00,86.30
1397.00,86.28
1396.00,86.26
1395.00,86.23
1394.00,86.21
1393.00,86.19
1392.00,86.15
1391.00,86.10
1390.00,86.05
1389.00,86.01
1388.00,86.00
1387.00,86.00
1386.00,86.01
1385.00,86.00
1384.00,86.00
1383.00,86.01
1382.00,86.04
1381.00,86.09
1380.00,86.16
1379.00,86.24
1378.00,86.32
1377.00,86.40
1376.00,86.48
1375.00,86.57
1374.00,86.66
1373.00,86.75
1372.00,86.83
1371.00,86.89
1370.00,86.93
1369.00,86.97
1368.00,87.01
1367.00,87.06
1366.00,87.12
1365.00,87.22
1364.00,87.35
1363.00,87.51
1362.00,87.64
1361.00,87.73
1360.00,87.78
1359.00,87.80
1358.00,87.83
1357.00,87.86
1356.00,87.90
1355.00,87.93
1354.00,87.96
1353.00,87.98
1352.00,87.99
1351.00,88.01
1350.00,88.02
1349.00,88.04
1348.00,88.05
1347.00,88.05
1346.00,88.05
1345.00,88.04
1344.00,88.02
1343.00,88.00
1342.00,88.00
1341.00,88.02
1340.00,88.05
1339.00,88.08
1338.00,88.10
1337.00,88.10
1336.00,88.09
1335.00,88.07
1334.00,88.05
1333.00,88.04
1332.00,88.05
1331.00,88.06
1330.00,88.06
1329.00,88.06
1328.00,88.04
1327.00,88.03
1326.00,88.02
1325.00,88.02
1324.00,88.00
1323.00,87.98
1322.00,87.93
1321.00,87.89
1320.00,87.84
1319.00,87.80
1318.00,87.77
1317.00,87.75
1316.00,87.72
1315.00,87.69
1314.00,87.66
1313.00,87.63
1312.00,87.61
1311.00,87.59
1310.00,87.57
1309.00,87.55
1308.00,87.54
1307.00,87.53
1306.00,87.54
1305.00,87.54
1304.00,87.53
1303.00,87.51
1302.00,87.49
1301.00,87.48
1300.00,87.47
1299.00,87.47
1298.00,87.46
1297.00,87.46
1296.00,87.46
1295.00,87.46
1294.00,87.46
1293.00,87.45
1292.00,87.44
1291.00,87.43
1290.00,87.42
1289.00,87.42
1288.00,87.41
1287.00,87.39
1286.00,87.37
1285.00,87.34
1284.00,87.32
1283.00,87.30
1282.00,87.29
1281.00,87.27
1280.00,87.23
1279.00,87.19
1278.00,87.15
1277.00,87.12
1276.00,87.10
1275.00,87.08
1274.00,87.05
1273.00,87.01
1272.00,86.97
1271.00,86.93
1270.00,86.89
1269.00,86.85
1268.00,86.81
1267.00,86.77
1266.00,86.73
1265.00,86.69
1264.00,86.63
1263.00,86.57
1262.00,86.52
1261.00,86.47
1260.00,86.43
1259.00,86.38
1258.00,86.33
1257.00,86.28
1256.00,86.23
1255.00,86.16
1254.00,86.06
1253.00,85.96
1252.00,85.87
1251.00,85.80
1250.00,85.74
1249.00,85.68
1248.00,85.63
1247.00,85.58
1246.00,85.52
1245.00,85.47
1244.00,85.41
1243.00,85.35
1242.00,85.28
1241.00,85.22
1240.00,85.17
1239.00,85.12
1238.00,85.09
1237.00,85.06
1236.00,85.05
1235.00,85.06
1234.00,85.08
1233.00,85.10
1232.00,85.11
1231.00,85.13
1230.00,85.16
1229.00,85.21
1228.00,85.25
1227.00,85.30
1226.00,85.34
1225.00,85.39
1224.00,85.43
1223.00,85.47
1222.00,85.51
1221.00,85.58
1220.00,85.67
1219.00,85.78
1218.00,85.90
1217.00,85.99
1216.00,86.07
1215.00,86.11
1214.00,86.15
1213.00,86.18
1212.00,86.23
1211.00,86.28
1210.00,86.33
1209.00,86.37
1208.00,86.39
1207.00,86.41
1206.00,86.42
1205.00,86.44
1204.00,86.46
1203.00,86.49
1202.00,86.53
1201.00,86.56
1200.00,86.59
1199.00,86.63
1198.00,86.68
1197.00,86.72
1196.00,86.76
1195.00,86.78
1194.00,86.80
1193.00,86.80
1192.00,86.81
1191.00,86.81
1190.00,86.81
1189.00,86.82
1188.00,86.83
1187.00,86.85
1186.00,86.87
1185.00,86.87
1184.00,86.86
1183.00,86.83
1182.00,86.80
1181.00,86.77
1180.00,86.75
1179.00,86.72
1178.00,86.68
1177.00,86.62
1176.00,86.55
1175.00,86.50
1174.00,86.48
1173.00,86.48
1172.00,86.50
1171.00,86.53
1170.00,86.56
1169.00,86.58
1168.00,86.61
1167.00,86.65
1166.00,86.72
1165.00,86.79
1164.00,86.84
1163.00,86.88
1162.00,86.94
1161.00,87.00
1160.00,87.06
1159.00,87.12
1158.00,87.18
1157.00,87.24
1156.00,87.31
1155.00,87.37
1154.00,87.44
1153.00,87.50
1152.00,87.56
1151.00,87.61
1150.00,87.66
1149.00,87.73
1148.00,87.82
1147.00,87.93
1146.00,88.02
1145.00,88.11
1144.00,88.18
1143.00,88.25
1142.00,88.32
1141.00,88.37
1140.00,88.39
1139.00,88.40
1138.00,88.41
1137.00,88.43
1136.00,88.44
1135.00,88.42
1134.00,88.38
1133.00,88.33
1132.00,88.28
1131.00,88.24
1130.00,88.21
1129.00,88.17
1128.00,88.15
1127.00,88.14
1126.00,88.15
1125.00,88.14
1124.00,88.11
1123.00,88.06
1122.00,88.03
1121.00,88.02
1120.00,88.03
1119.00,88.05
1118.00,88.05
1117.00,88.03
1116.00,88.01
1115.00,87.98
1114.00,87.95
1113.00,87.93
1112.00,87.91
1111.00,87.91
1110.00,87.92
1109.00,87.93
1108.00,87.93
1107.00,87.91
1106.00,87.89
1105.00,87.86
1104.00,87.84
1103.00,87.83
1102.00,87.83
1101.00,87.83
1100.00,87.82
1099.00,87.80
1098.00,87.78
1097.00,87.77
1096.00,87.76
1095.00,87.76
1094.00,87.74
1093.00,87.72
1092.00,87.68
1091.00,87.63
1090.00,87.59
1089.00,87.52
1088.00,87.45
1087.00,87.36
1086.00,87.28
1085.00,87.20
1084.00,87.13
1083.00,87.08
1082.00,87.05
1081.00,87.02
1080.00,86.99
1079.00,86.96
1078.00,86.93
1077.00,86.89
1076.00,86.83
1075.00,86.78
1074.00,86.76
1073.00,86.78
1072.00,86.82
1071.00,86.85
1070.00,86.88
1069.00,86.91
1068.00,86.94
1067.00,86.96
1066.00,86.97
1065.00,86.98
1064.00,86.98
1063.00,86.97
1062.00,86.96
1061.00,86.96
1060.00,86.96
1059.00,86.96
1058.00,86.95
1057.00,86.95
1056.00,86.97
1055.00,87.01
1054.00,87.04
1053.00,87.05
1052.00,87.04
1051.00,87.02
1050.00,87.01
1049.00,87.00
1048.00,86.97
1047.00,86.93
1046.00,86.92
1045.00,86.92
1044.00,86.94
1043.00,86.97
1042.00,86.99
1041.00,87.02
1040.00,87.06
1039.00,87.09
1038.00,87.12
1037.00,87.14
1036.00,87.18
1035.00,87.25
1034.00,87.35
1033.00,87.46
1032.00,87.57
1031.00,87.67
1030.00,87.74
1029.00,87.79
1028.00,87.82
1027.00,87.86
1026.00,87.91
1025.00,87.98
1024.00,88.06
1023.00,88.13
1022.00,88.19
1021.00,88.24
1020.00,88.30
1019.00,88.35
1018.00,88.41
1017.00,88.46
1016.00,88.51
1015.00,88.58
1014.00,88.64
1013.00,88.67
1012.00,88.69
1011.00,88.71
1010.00,88.74
1009.00,88.78
1008.00,88.83
1007.00,88.89
1006.00,88.96
1005.00,89.05
1004.00,89.13
1003.00,89.19
1002.00,89.23
1001.00,89.28
1000.00,89.33
999.00,89.37
998.00,89.39
997.00,89.39
996.00,89.39
995.00,89.40
994.00,89.42
993.00,89.46
992.00,89.52
991.00,89.58
990.00,89.62
989.00,89.63
988.00,89.63
987.00,89.64
986.00,89.66
985.00,89.69
984.00,89.73
983.00,89.77
982.00,89.80
981.00,89.82
980.00,89.84
979.00,89.84
978.00,89.85
977.00,89.86
976.00,89.89
975.00,89.94
974.00,89.98
973.00,90.01
972.00,90.05
971.00,90.09
970.00,90.14
969.00,90.19
968.00,90.24
967.00,90.28
966.00,90.31
965.00,90.34
964.00,90.35
963.00,90.36
962.00,90.38
961.00,90.41
960.00,90.45
959.00,90.46
958.00,90.46
957.00,90.46
956.00,90.47
955.00,90.51
954.00,90.54
953.00,90.58
952.00,90.60
951.00,90.62
950.00,90.63
949.00,90.64
948.00,90.64
947.00,90.65
946.00,90.66
945.00,90.68
944.00,90.69
943.00,90.70
942.00,90.69
941.00,90.67
940.00,90.64
939.00,90.61
938.00,90.58
937.00,90.56
936.00,90.52
935.00,90.48
934.00,90.46
933.00,90.46
932.00,90.49
931.00,90.53
930.00,90.55
929.00,90.56
928.00,90.56
927.00,90.55
926.00,90.54
925.00,90.53
924.00,90.52
923.00,90.53
922.00,90.53
921.00,90.53
920.00,90.53
919.00,90.55
918.00,90.59
917.00,90.64
916.00,90.68
915.00,90.73
914.00,90.77
913.00,90.82
912.00,90.85
911.00,90.87
910.00,90.89
909.00,90.91
908.00,90.92
907.00,90.93
906.00,90.95
905.00,90.97
904.00,90.99
903.00,91.00
902.00,91.00
901.00,90.99
900.00,90.97
899.00,90.95
898.00,90.93
897.00,90.94
896.00,90.96
895.00,90.99
894.00,91.00
893.00,91.02
892.00,91.02
891.00,91.01
890.00,90.98
889.00,90.96
888.00,90.95
887.00,90.97
886.00,90.98
885.00,90.97
884.00,90.97
883.00,90.98
882.00,90.98
881.00,90.98
880.00,90.97
879.00,90.96
878.00,90.93
877.00,90.92
876.00,90.89
875.00,90.87
874.00,90.86
873.00,90.88
872.00,90.91
871.00,90.93
870.00,90.92
869.00,90.89
868.00,90.86
867.00,90.87
866.00,90.90
865.00,90.92
864.00,90.92
863.00,90.91
862.00,90.91
861.00,90.91
860.00,90.90
859.00,90.89
858.00,90.86
857.00,90.84
856.00,90.82
855.00,90.79
854.00,90.74
853.00,90.66
852.00,90.58
851.00,90.51
850.00,90.47
849.00,90.45
848.00,90.46
847.00,90.49
846.00,90.50
845.00,90.49
844.00,90.46
843.00,90.41
842.00,90.35
841.00,90.29
840.00,90.24
839.00,90.21
838.00,90.17
837.00,90.13
836.00,90.07
835.00,90.01
834.00,89.95
833.00,89.90
832.00,89.87
831.00,89.87
830.00,89.88
829.00,89.87
828.00,89.83
827.00,89.76
826.00,89.70
825.00,89.67
824.00,89.65
823.00,89.64
822.00,89.64
821.00,89.64
820.00,89.64
819.00,89.65
818.00,89.66
817.00,89.66
816.00,89.64
815.00,89.59
814.00,89.52
813.00,89.44
812.00,89.35
811.00,89.26
810.00,89.19
809.00,89.14
808.00,89.09
807.00,89.02
806.00,88.92
805.00,88.81
804.00,88.71
803.00,88.60
802.00,88.50
801.00,88.42
800.00,88.35
799.00,88.31
798.00,88.27
797.00,88.24
796.00,88.20
795.00,88.16
794.00,88.11
793.00,88.06
792.00,88.01
791.00,87.98
790.00,87.97
789.00,87.97
788.00,87.95
787.00,87.91
786.00,87.85
785.00,87.79
784.00,87.72
783.00,87.64
782.00,87.54
781.00,87.45
780.00,87.39
779.00,87.35
778.00,87.30
777.00,87.23
776.00,87.17
775.00,87.12
774.00,87.09
773.00,87.06
772.00,87.03
771.00,87.02
770.00,87.02
769.00,87.02
768.00,87.01
767.00,86.97
766.00,86.93
765.00,86.89
764.00,86.86
763.00,86.85
762.00,86.85
761.00,86.83
760.00,86.80
759.00,86.74
758.00,86.69
757.00,86.64
756.00,86.58
755.00,86.52
754.00,86.47
753.00,86.43
752.00,86.38
751.00,86.30
750.00,86.20
749.00,86.09
748.00,86.00
747.00,85.94
746.00,85.90
745.00,85.86
744.00,85.81
743.00,85.76
742.00,85.71
741.00,85.66
740.00,85.59
739.00,85.54
738.00,85.52
737.00,85.50
736.00,85.46
735.00,85.39
734.00,85.32
733.00,85.26
732.00,85.21
731.00,85.16
730.00,85.10
729.00,85.03
728.00,84.94
727.00,84.86
726.00,84.79
725.00,84.71
724.00,84.61
723.00,84.49
722.00,84.38
721.00,84.28
720.00,84.20
719.00,84.15
718.00,84.11
717.00,84.09
716.00,84.09
715.00,84.10
714.00,84.11
713.00,84.09
712.00,84.02
711.00,83.93
710.00,83.84
709.00,83.76
708.00,83.68
707.00,83.59
706.00,83.49
705.00,83.36
704.00,83.23
703.00,83.09
702.00,82.94
701.00,82.81
700.00,82.70
699.00,82.63
698.00,82.61
697.00,82.58
696.00,82.51
695.00,82.42
694.00,82.33
693.00,82.28
692.00,82.26
691.00,82.26
690.00,82.26
689.00,82.25
688.00,82.21
687.00,82.17
686.00,82.14
685.00,82.12
684.00,82.10
683.00,82.08
682.00,82.06
681.00,82.01
680.00,81.93
679.00,81.86
678.00,81.81
677.00,81.77
676.00,81.71
675.00,81.66
674.00,81.60
673.00,81.55
672.00,81.50
671.00,81.43
670.00,81.35
669.00,81.24
668.00,81.05
667.00,80.85
666.00,80.80
665.00,80.89
664.00,80.98
663.00,81.00
662.00,80.94
661.00,80.84
660.00,80.76
659.00,80.73
658.00,80.70
657.00,80.62
656.00,80.49
655.00,80.39
654.00,80.37
653.00,80.38
652.00,80.33
651.00,80.20
650.00,80.04
649.00,79.92
648.00,79.91
647.00,79.96
646.00,79.96
645.00,79.87
644.00,79.72
643.00,79.61
642.00,79.60
641.00,79.63
640.00,79.65
639.00,79.64
638.00,79.61
637.00,79.56
636.00,79.52
635.00,79.47
634.00,79.36
633.00,79.20
632.00,79.09
631.00,79.13
630.00,79.31
629.00,79.43
628.00,79.40
627.00,79.26
626.00,79.13
625.00,79.01
624.00,78.84
623.00,78.64
622.00,78.49
621.00,78.42
620.00,78.44
619.00,78.52
618.00,78.54
617.00,78.40
616.00,78.13
615.00,77.96
614.00,78.06
613.00,78.32
612.00,78.49
611.00,78.42
610.00,78.20
609.00,78.01
608.00,77.95
607.00,77.99
606.00,78.03
605.00,77.97
604.00,77.70
603.00,77.11
602.00,76.29
601.00,75.55
600.00,75.33
599.00,75.79
598.00,76.63
597.00,77.34
596.00,77.72
595.00,77.84
594.00,77.80
593.00,77.62
592.00,77.37
591.00,77.23
590.00,77.22
589.00,77.17
588.00,77.00
587.00,76.83
586.00,76.71
585.00,76.55
584.00,76.32
583.00,76.12
582.00,76.08
581.00,76.12
580.00,76.05
579.00,75.82
578.00,75.48
577.00,75.19
576.00,75.12
575.00,75.26
574.00,75.32
573.00,75.13
572.00,75.06
571.00,75.48
570.00,76.08
569.00,76.18
568.00,75.73
567.00,75.44
566.00,75.71
565.00,76.15
564.00,76.34
563.00,76.37
562.00,76.47
561.00,76.60
560.00,76.60
559.00,76.50
558.00,76.36
557.00,76.17
556.00,76.02
555.00,76.09
554.00,76.29
553.00,76.19
552.00,75.61
551.00,74.96
550.00,74.62
