Created as New Dataset,Bio-Couture Worsted 48/2 White
cm-1,%T
4000.00,100.73
3999.00,100.72
3998.00,100.72
3997.00,100.72
3996.00,100.73
3995.00,100.73
3994.00,100.73
3993.00,100.73
3992.00,100.72
3991.00,100.71
3990.00,100.70
3989.00,100.69
3988.00,100.68
3987.00,100.68
3986.00,100.68
3985.00,100.68
3984.00,100.69
3983.00,100.69
3982.00,100.69
3981.00,100.69
3980.00,100.69
3979.00,100.69
3978.00,100.68
3977.00,100.67
3976.00,100.67
3975.00,100.67
3974.00,100.67
3973.00,100.67
3972.00,100.67
3971.00,100.68
3970.00,100.68
3969.00,100.69
3968.00,100.69
3967.00,100.69
3966.00,100.69
3965.00,100.70
3964.00,100.70
3963.00,100.71
3962.00,100.71
3961.00,100.71
3960.00,100.70
3959.00,100.70
3958.00,100.70
3957.00,100.70
3956.00,100.70
3955.00,100.70
3954.00,100.69
3953.00,100.67
3952.00,100.66
3951.00,100.65
3950.00,100.65
3949.00,100.64
3948.00,100.64
3947.00,100.65
3946.00,100.65
3945.00,100.65
3944.00,100.66
3943.00,100.66
3942.00,100.67
3941.00,100.67
3940.00,100.67
3939.00,100.67
3938.00,100.66
3937.00,100.67
3936.00,100.67
3935.00,100.68
3934.00,100.69
3933.00,100.67
3932.00,100.65
3931.00,100.62
3930.00,100.61
3929.00,100.61
3928.00,100.62
3927.00,100.61
3926.00,100.60
3925.00,100.58
3924.00,100.57
3923.00,100.56
3922.00,100.56
3921.00,100.57
3920.00,100.57
3919.00,100.56
3918.00,100.56
3917.00,100.57
3916.00,100.59
3915.00,100.61
3914.00,100.63
3913.00,100.65
3912.00,100.65
3911.00,100.65
3910.00,100.64
3909.00,100.64
3908.00,100.64
3907.00,100.63
3906.00,100.62
3905.00,100.60
3904.00,100.59
3903.00,100.59
3902.00,100.59
3901.00,100.59
3900.00,100.59
3899.00,100.59
3898.00,100.59
3897.00,100.59
3896.00,100.59
3895.00,100.59
3894.00,100.60
3893.00,100.61
3892.00,100.62
3891.00,100.61
3890.00,100.61
3889.00,100.60
3888.00,100.61
3887.00,100.61
3886.00,100.59
3885.00,100.55
3884.00,100.51
3883.00,100.49
3882.00,100.50
3881.00,100.53
3880.00,100.56
3879.00,100.56
3878.00,100.55
3877.00,100.53
3876.00,100.52
3875.00,100.51
3874.00,100.49
3873.00,100.46
3872.00,100.45
3871.00,100.44
3870.00,100.46
3869.00,100.47
3868.00,100.49
3867.00,100.50
3866.00,100.52
3865.00,100.53
3864.00,100.54
3863.00,100.54
3862.00,100.55
3861.00,100.55
3860.00,100.55
3859.00,100.54
3858.00,100.53
3857.00,100.51
3856.00,100.48
3855.00,100.45
3854.00,100.43
3853.00,100.43
3852.00,100.45
3851.00,100.49
3850.00,100.53
3849.00,100.57
3848.00,100.60
3847.00,100.61
3846.00,100.60
3845.00,100.57
3844.00,100.51
3843.00,100.46
3842.00,100.42
3841.00,100.41
3840.00,100.41
3839.00,100.43
3838.00,100.46
3837.00,100.49
3836.00,100.53
3835.00,100.55
3834.00,100.55
3833.00,100.55
3832.00,100.54
3831.00,100.53
3830.00,100.54
3829.00,100.56
3828.00,100.56
3827.00,100.54
3826.00,100.50
3825.00,100.44
3824.00,100.40
3823.00,100.39
3822.00,100.39
3821.00,100.40
3820.00,100.38
3819.00,100.37
3818.00,100.39
3817.00,100.41
3816.00,100.44
3815.00,100.46
3814.00,100.49
3813.00,100.52
3812.00,100.53
3811.00,100.54
3810.00,100.53
3809.00,100.53
3808.00,100.52
3807.00,100.50
3806.00,100.46
3805.00,100.41
3804.00,100.38
3803.00,100.39
3802.00,100.42
3801.00,100.46
3800.00,100.48
3799.00,100.51
3798.00,100.53
3797.00,100.54
3796.00,100.56
3795.00,100.58
3794.00,100.59
3793.00,100.60
3792.00,100.59
3791.00,100.59
3790.00,100.58
3789.00,100.57
3788.00,100.55
3787.00,100.54
3786.00,100.52
3785.00,100.50
3784.00,100.50
3783.00,100.52
3782.00,100.55
3781.00,100.57
3780.00,100.58
3779.00,100.57
3778.00,100.55
3777.00,100.53
3776.00,100.51
3775.00,100.49
3774.00,100.46
3773.00,100.44
3772.00,100.44
3771.00,100.46
3770.00,100.46
3769.00,100.44
3768.00,100.42
3767.00,100.40
3766.00,100.40
3765.00,100.41
3764.00,100.44
3763.00,100.47
3762.00,100.49
3761.00,100.50
3760.00,100.48
3759.00,100.44
3758.00,100.38
3757.00,100.33
3756.00,100.29
3755.00,100.27
3754.00,100.27
3753.00,100.30
3752.00,100.34
3751.00,100.36
3750.00,100.35
3749.00,100.33
3748.00,100.31
3747.00,100.32
3746.00,100.33
3745.00,100.32
3744.00,100.29
3743.00,100.27
3742.00,100.29
3741.00,100.32
3740.00,100.35
3739.00,100.35
3738.00,100.32
3737.00,100.28
3736.00,100.26
3735.00,100.26
3734.00,100.28
3733.00,100.31
3732.00,100.34
3731.00,100.35
3730.00,100.35
3729.00,100.34
3728.00,100.32
3727.00,100.31
3726.00,100.30
3725.00,100.28
3724.00,100.25
3723.00,100.24
3722.00,100.24
3721.00,100.25
3720.00,100.27
3719.00,100.29
3718.00,100.30
3717.00,100.29
3716.00,100.27
3715.00,100.25
3714.00,100.24
3713.00,100.25
3712.00,100.28
3711.00,100.30
3710.00,100.31
3709.00,100.32
3708.00,100.32
3707.00,100.33
3706.00,100.34
3705.00,100.35
3704.00,100.36
3703.00,100.37
3702.00,100.38
3701.00,100.39
3700.00,100.39
3699.00,100.40
3698.00,100.40
3697.00,100.40
3696.00,100.38
3695.00,100.36
3694.00,100.33
3693.00,100.29
3692.00,100.25
3691.00,100.23
3690.00,100.23
3689.00,100.24
3688.00,100.24
3687.00,100.25
3686.00,100.26
3685.00,100.29
3684.00,100.31
3683.00,100.33
3682.00,100.34
3681.00,100.34
3680.00,100.32
3679.00,100.28
3678.00,100.23
3677.00,100.19
3676.00,100.15
3675.00,100.12
3674.00,100.09
3673.00,100.08
3672.00,100.10
3671.00,100.13
3670.00,100.15
3669.00,100.14
3668.00,100.14
3667.00,100.15
3666.00,100.18
3665.00,100.20
3664.00,100.20
3663.00,100.19
3662.00,100.18
3661.00,100.16
3660.00,100.15
3659.00,100.13
3658.00,100.11
3657.00,100.09
3656.00,100.08
3655.00,100.06
3654.00,100.05
3653.00,100.02
3652.00,99.98
3651.00,99.95
3650.00,99.93
3649.00,99.91
3648.00,99.89
3647.00,99.87
3646.00,99.86
3645.00,99.86
3644.00,99.88
3643.00,99.91
3642.00,99.94
3641.00,99.96
3640.00,99.97
3639.00,99.96
3638.00,99.95
3637.00,99.93
3636.00,99.90
3635.00,99.87
3634.00,99.85
3633.00,99.83
3632.00,99.83
3631.00,99.84
3630.00,99.84
3629.00,99.81
3628.00,99.77
3627.00,99.75
3626.00,99.76
3625.00,99.76
3624.00,99.75
3623.00,99.72
3622.00,99.70
3621.00,99.68
3620.00,99.67
3619.00,99.63
3618.00,99.57
3617.00,99.51
3616.00,99.48
3615.00,99.48
3614.00,99.52
3613.00,99.55
3612.00,99.57
3611.00,99.56
3610.00,99.55
3609.00,99.54
3608.00,99.54
3607.00,99.53
3606.00,99.53
3605.00,99.53
3604.00,99.52
3603.00,99.52
3602.00,99.51
3601.00,99.50
3600.00,99.48
3599.00,99.47
3598.00,99.46
3597.00,99.45
3596.00,99.44
3595.00,99.43
3594.00,99.41
3593.00,99.37
3592.00,99.33
3591.00,99.29
3590.00,99.26
3589.00,99.24
3588.00,99.23
3587.00,99.22
3586.00,99.21
3585.00,99.20
3584.00,99.20
3583.00,99.20
3582.00,99.20
3581.00,99.20
3580.00,99.21
3579.00,99.22
3578.00,99.22
3577.00,99.22
3576.00,99.20
3575.00,99.18
3574.00,99.15
3573.00,99.12
3572.00,99.07
3571.00,99.01
3570.00,98.95
3569.00,98.90
3568.00,98.88
3567.00,98.88
3566.00,98.88
3565.00,98.87
3564.00,98.86
3563.00,98.87
3562.00,98.88
3561.00,98.88
3560.00,98.89
3559.00,98.89
3558.00,98.88
3557.00,98.89
3556.00,98.88
3555.00,98.87
3554.00,98.84
3553.00,98.78
3552.00,98.73
3551.00,98.69
3550.00,98.68
3549.00,98.68
3548.00,98.67
3547.00,98.65
3546.00,98.64
3545.00,98.63
3544.00,98.64
3543.00,98.63
3542.00,98.62
3541.00,98.61
3540.00,98.60
3539.00,98.60
3538.00,98.60
3537.00,98.58
3536.00,98.56
3535.00,98.53
3534.00,98.49
3533.00,98.46
3532.00,98.43
3531.00,98.42
3530.00,98.43
3529.00,98.43
3528.00,98.41
3527.00,98.37
3526.00,98.32
3525.00,98.30
3524.00,98.29
3523.00,98.32
3522.00,98.34
3521.00,98.36
3520.00,98.34
3519.00,98.31
3518.00,98.28
3517.00,98.26
3516.00,98.24
3515.00,98.23
3514.00,98.21
3513.00,98.19
3512.00,98.17
3511.00,98.16
3510.00,98.15
3509.00,98.14
3508.00,98.12
3507.00,98.10
3506.00,98.10
3505.00,98.10
3504.00,98.11
3503.00,98.11
3502.00,98.09
3501.00,98.06
3500.00,98.01
3499.00,97.98
3498.00,97.96
3497.00,97.96
3496.00,97.97
3495.00,97.98
3494.00,97.98
3493.00,97.97
3492.00,97.95
3491.00,97.93
3490.00,97.92
3489.00,97.90
3488.00,97.89
3487.00,97.87
3486.00,97.86
3485.00,97.85
3484.00,97.84
3483.00,97.82
3482.00,97.81
3481.00,97.79
3480.00,97.78
3479.00,97.77
3478.00,97.76
3477.00,97.75
3476.00,97.74
3475.00,97.74
3474.00,97.74
3473.00,97.75
3472.00,97.77
3471.00,97.78
3470.00,97.76
3469.00,97.71
3468.00,97.65
3467.00,97.60
3466.00,97.59
3465.00,97.60
3464.00,97.62
3463.00,97.62
3462.00,97.61
3461.00,97.60
3460.00,97.58
3459.00,97.57
3458.00,97.56
3457.00,97.54
3456.00,97.52
3455.00,97.50
3454.00,97.48
3453.00,97.47
3452.00,97.45
3451.00,97.43
3450.00,97.40
3449.00,97.38
3448.00,97.37
3447.00,97.38
3446.00,97.39
3445.00,97.39
3444.00,97.37
3443.00,97.35
3442.00,97.33
3441.00,97.32
3440.00,97.30
3439.00,97.28
3438.00,97.24
3437.00,97.21
3436.00,97.20
3435.00,97.21
3434.00,97.21
3433.00,97.20
3432.00,97.18
3431.00,97.16
3430.00,97.13
3429.00,97.11
3428.00,97.09
3427.00,97.08
3426.00,97.07
3425.00,97.06
3424.00,97.06
3423.00,97.05
3422.00,97.02
3421.00,96.99
3420.00,96.97
3419.00,96.96
3418.00,96.96
3417.00,96.96
3416.00,96.96
3415.00,96.95
3414.00,96.94
3413.00,96.92
3412.00,96.89
3411.00,96.86
3410.00,96.84
3409.00,96.83
3408.00,96.81
3407.00,96.79
3406.00,96.77
3405.00,96.76
3404.00,96.75
3403.00,96.74
3402.00,96.73
3401.00,96.72
3400.00,96.69
3399.00,96.66
3398.00,96.62
3397.00,96.60
3396.00,96.60
3395.00,96.61
3394.00,96.62
3393.00,96.61
3392.00,96.58
3391.00,96.55
3390.00,96.52
3389.00,96.51
3388.00,96.51
3387.00,96.52
3386.00,96.52
3385.00,96.50
3384.00,96.48
3383.00,96.46
3382.00,96.44
3381.00,96.43
3380.00,96.41
3379.00,96.39
3378.00,96.37
3377.00,96.37
3376.00,96.37
3375.00,96.36
3374.00,96.35
3373.00,96.33
3372.00,96.31
3371.00,96.30
3370.00,96.29
3369.00,96.28
3368.00,96.26
3367.00,96.24
3366.00,96.22
3365.00,96.20
3364.00,96.17
3363.00,96.14
3362.00,96.11
3361.00,96.08
3360.00,96.06
3359.00,96.06
3358.00,96.07
3357.00,96.08
3356.00,96.08
3355.00,96.07
3354.00,96.04
3353.00,96.00
3352.00,95.99
3351.00,95.99
3350.00,96.00
3349.00,95.99
3348.00,95.96
3347.00,95.91
3346.00,95.86
3345.00,95.82
3344.00,95.80
3343.00,95.78
3342.00,95.77
3341.00,95.75
3340.00,95.73
3339.00,95.71
3338.00,95.69
3337.00,95.67
3336.00,95.64
3335.00,95.61
3334.00,95.58
3333.00,95.56
3332.00,95.54
3331.00,95.54
3330.00,95.53
3329.00,95.50
3328.00,95.46
3327.00,95.41
3326.00,95.37
3325.00,95.34
3324.00,95.33
3323.00,95.32
3322.00,95.31
3321.00,95.31
3320.00,95.30
3319.00,95.29
3318.00,95.26
3317.00,95.22
3316.00,95.19
3315.00,95.15
3314.00,95.12
3313.00,95.10
3312.00,95.08
3311.00,95.05
3310.00,95.02
3309.00,95.00
3308.00,94.98
3307.00,94.98
3306.00,94.96
3305.00,94.92
3304.00,94.88
3303.00,94.85
3302.00,94.82
3301.00,94.80
3300.00,94.77
3299.00,94.73
3298.00,94.71
3297.00,94.70
3296.00,94.69
3295.00,94.68
3294.00,94.67
3293.00,94.66
3292.00,94.65
3291.00,94.64
3290.00,94.62
3289.00,94.60
3288.00,94.58
3287.00,94.56
3286.00,94.54
3285.00,94.50
3284.00,94.46
3283.00,94.43
3282.00,94.40
3281.00,94.40
3280.00,94.41
3279.00,94.43
3278.00,94.44
3277.00,94.44
3276.00,94.43
3275.00,94.42
3274.00,94.42
3273.00,94.43
3272.00,94.45
3271.00,94.46
3270.00,94.46
3269.00,94.45
3268.00,94.44
3267.00,94.44
3266.00,94.45
3265.00,94.45
3264.00,94.45
3263.00,94.46
3262.00,94.48
3261.00,94.52
3260.00,94.56
3259.00,94.59
3258.00,94.61
3257.00,94.62
3256.00,94.63
3255.00,94.63
3254.00,94.64
3253.00,94.64
3252.00,94.66
3251.00,94.68
3250.00,94.71
3249.00,94.74
3248.00,94.76
3247.00,94.79
3246.00,94.82
3245.00,94.86
3244.00,94.88
3243.00,94.89
3242.00,94.89
3241.00,94.89
3240.00,94.89
3239.00,94.91
3238.00,94.93
3237.00,94.96
3236.00,94.98
3235.00,95.00
3234.00,95.01
3233.00,95.02
3232.00,95.03
3231.00,95.04
3230.00,95.05
3229.00,95.06
3228.00,95.07
3227.00,95.08
3226.00,95.10
3225.00,95.13
3224.00,95.18
3223.00,95.22
3222.00,95.24
3221.00,95.25
3220.00,95.25
3219.00,95.25
3218.00,95.26
3217.00,95.28
3216.00,95.29
3215.00,95.30
3214.00,95.31
3213.00,95.31
3212.00,95.33
3211.00,95.36
3210.00,95.40
3209.00,95.43
3208.00,95.45
3207.00,95.45
3206.00,95.45
3205.00,95.44
3204.00,95.45
3203.00,95.48
3202.00,95.50
3201.00,95.51
3200.00,95.50
3199.00,95.50
3198.00,95.50
3197.00,95.52
3196.00,95.56
3195.00,95.61
3194.00,95.65
3193.00,95.67
3192.00,95.68
3191.00,95.67
3190.00,95.66
3189.00,95.67
3188.00,95.68
3187.00,95.71
3186.00,95.74
3185.00,95.78
3184.00,95.81
3183.00,95.83
3182.00,95.85
3181.00,95.86
3180.00,95.87
3179.00,95.89
3178.00,95.91
3177.00,95.93
3176.00,95.96
3175.00,95.98
3174.00,95.99
3173.00,96.00
3172.00,96.02
3171.00,96.05
3170.00,96.09
3169.00,96.12
3168.00,96.15
3167.00,96.17
3166.00,96.18
3165.00,96.20
3164.00,96.22
3163.00,96.24
3162.00,96.27
3161.00,96.30
3160.00,96.33
3159.00,96.36
3158.00,96.39
3157.00,96.42
3156.00,96.45
3155.00,96.48
3154.00,96.52
3153.00,96.55
3152.00,96.56
3151.00,96.57
3150.00,96.58
3149.00,96.59
3148.00,96.60
3147.00,96.61
3146.00,96.62
3145.00,96.63
3144.00,96.63
3143.00,96.65
3142.00,96.67
3141.00,96.70
3140.00,96.72
3139.00,96.74
3138.00,96.75
3137.00,96.76
3136.00,96.76
3135.00,96.76
3134.00,96.76
3133.00,96.78
3132.00,96.80
3131.00,96.83
3130.00,96.86
3129.00,96.87
3128.00,96.88
3127.00,96.89
3126.00,96.90
3125.00,96.91
3124.00,96.91
3123.00,96.91
3122.00,96.91
3121.00,96.93
3120.00,96.95
3119.00,96.97
3118.00,96.97
3117.00,96.97
3116.00,96.95
3115.00,96.93
3114.00,96.93
3113.00,96.94
3112.00,96.97
3111.00,96.99
3110.00,97.00
3109.00,97.00
3108.00,96.99
3107.00,96.98
3106.00,96.98
3105.00,96.98
3104.00,96.97
3103.00,96.96
3102.00,96.97
3101.00,96.98
3100.00,96.98
3099.00,96.99
3098.00,96.98
3097.00,96.97
3096.00,96.95
3095.00,96.94
3094.00,96.93
3093.00,96.92
3092.00,96.92
3091.00,96.93
3090.00,96.93
3089.00,96.94
3088.00,96.94
3087.00,96.94
3086.00,96.94
3085.00,96.93
3084.00,96.92
3083.00,96.91
3082.00,96.90
3081.00,96.88
3080.00,96.86
3079.00,96.85
3078.00,96.84
3077.00,96.84
3076.00,96.83
3075.00,96.83
3074.00,96.82
3073.00,96.82
3072.00,96.83
3071.00,96.84
3070.00,96.85
3069.00,96.85
3068.00,96.83
3067.00,96.80
3066.00,96.78
3065.00,96.78
3064.00,96.80
3063.00,96.82
3062.00,96.85
3061.00,96.87
3060.00,96.89
3059.00,96.91
3058.00,96.92
3057.00,96.92
3056.00,96.92
3055.00,96.93
3054.00,96.94
3053.00,96.95
3052.00,96.96
3051.00,96.97
3050.00,97.00
3049.00,97.02
3048.00,97.04
3047.00,97.04
3046.00,97.05
3045.00,97.06
3044.00,97.08
3043.00,97.10
3042.00,97.12
3041.00,97.14
3040.00,97.16
3039.00,97.18
3038.00,97.17
3037.00,97.17
3036.00,97.17
3035.00,97.19
3034.00,97.22
3033.00,97.25
3032.00,97.27
3031.00,97.28
3030.00,97.29
3029.00,97.28
3028.00,97.28
3027.00,97.28
3026.00,97.30
3025.00,97.33
3024.00,97.36
3023.00,97.38
3022.00,97.40
3021.00,97.42
3020.00,97.45
3019.00,97.48
3018.00,97.50
3017.00,97.50
3016.00,97.49
3015.00,97.49
3014.00,97.49
3013.00,97.50
3012.00,97.52
3011.00,97.54
3010.00,97.56
3009.00,97.56
3008.00,97.56
3007.00,97.55
3006.00,97.53
3005.00,97.52
3004.00,97.52
3003.00,97.52
3002.00,97.53
3001.00,97.54
3000.00,97.54
2999.00,97.54
2998.00,97.53
2997.00,97.52
2996.00,97.52
2995.00,97.52
2994.00,97.53
2993.00,97.53
2992.00,97.51
2991.00,97.48
2990.00,97.45
2989.00,97.43
2988.00,97.41
2987.00,97.40
2986.00,97.39
2985.00,97.37
2984.00,97.34
2983.00,97.31
2982.00,97.27
2981.00,97.25
2980.00,97.23
2979.00,97.21
2978.00,97.17
2977.00,97.13
2976.00,97.08
2975.00,97.05
2974.00,97.01
2973.00,96.96
2972.00,96.91
2971.00,96.86
2970.00,96.83
2969.00,96.79
2968.00,96.77
2967.00,96.75
2966.00,96.74
2965.00,96.72
2964.00,96.71
2963.00,96.69
2962.00,96.67
2961.00,96.65
2960.00,96.62
2959.00,96.60
2958.00,96.59
2957.00,96.58
2956.00,96.58
2955.00,96.60
2954.00,96.63
2953.00,96.65
2952.00,96.68
2951.00,96.70
2950.00,96.71
2949.00,96.71
2948.00,96.71
2947.00,96.69
2946.00,96.67
2945.00,96.66
2944.00,96.65
2943.00,96.64
2942.00,96.63
2941.00,96.61
2940.00,96.58
2939.00,96.55
2938.00,96.53
2937.00,96.51
2936.00,96.47
2935.00,96.44
2934.00,96.40
2933.00,96.38
2932.00,96.36
2931.00,96.33
2930.00,96.29
2929.00,96.26
2928.00,96.23
2927.00,96.20
2926.00,96.17
2925.00,96.13
2924.00,96.07
2923.00,96.01
2922.00,95.95
2921.00,95.91
2920.00,95.88
2919.00,95.87
2918.00,95.88
2917.00,95.91
2916.00,95.99
2915.00,96.10
2914.00,96.22
2913.00,96.35
2912.00,96.45
2911.00,96.54
2910.00,96.62
2909.00,96.69
2908.00,96.76
2907.00,96.82
2906.00,96.88
2905.00,96.92
2904.00,96.96
2903.00,96.99
2902.00,97.01
2901.00,97.04
2900.00,97.05
2899.00,97.06
2898.00,97.06
2897.00,97.06
2896.00,97.07
2895.00,97.09
2894.00,97.13
2893.00,97.16
2892.00,97.19
2891.00,97.22
2890.00,97.24
2889.00,97.25
2888.00,97.24
2887.00,97.23
2886.00,97.21
2885.00,97.20
2884.00,97.20
2883.00,97.21
2882.00,97.22
2881.00,97.23
2880.00,97.23
2879.00,97.22
2878.00,97.21
2877.00,97.20
2876.00,97.19
2875.00,97.20
2874.00,97.21
2873.00,97.23
2872.00,97.23
2871.00,97.23
2870.00,97.24
2869.00,97.25
2868.00,97.28
2867.00,97.31
2866.00,97.33
2865.00,97.36
2864.00,97.38
2863.00,97.40
2862.00,97.40
2861.00,97.39
2860.00,97.38
2859.00,97.37
2858.00,97.37
2857.00,97.36
2856.00,97.35
2855.00,97.31
2854.00,97.25
2853.00,97.18
2852.00,97.10
2851.00,97.04
2850.00,97.02
2849.00,97.04
2848.00,97.11
2847.00,97.22
2846.00,97.36
2845.00,97.50
2844.00,97.62
2843.00,97.71
2842.00,97.76
2841.00,97.81
2840.00,97.86
2839.00,97.90
2838.00,97.94
2837.00,97.96
2836.00,97.98
2835.00,98.00
2834.00,98.01
2833.00,98.02
2832.00,98.02
2831.00,98.03
2830.00,98.05
2829.00,98.07
2828.00,98.09
2827.00,98.12
2826.00,98.14
2825.00,98.15
2824.00,98.16
2823.00,98.15
2822.00,98.14
2821.00,98.14
2820.00,98.14
2819.00,98.15
2818.00,98.17
2817.00,98.18
2816.00,98.19
2815.00,98.19
2814.00,98.19
2813.00,98.20
2812.00,98.21
2811.00,98.22
2810.00,98.23
2809.00,98.23
2808.00,98.23
2807.00,98.24
2806.00,98.25
2805.00,98.26
2804.00,98.26
2803.00,98.27
2802.00,98.27
2801.00,98.28
2800.00,98.29
2799.00,98.29
2798.00,98.29
2797.00,98.30
2796.00,98.32
2795.00,98.33
2794.00,98.35
2793.00,98.35
2792.00,98.34
2791.00,98.34
2790.00,98.34
2789.00,98.35
2788.00,98.35
2787.00,98.36
2786.00,98.36
2785.00,98.36
2784.00,98.36
2783.00,98.37
2782.00,98.38
2781.00,98.40
2780.00,98.41
2779.00,98.41
2778.00,98.41
2777.00,98.41
2776.00,98.42
2775.00,98.43
2774.00,98.44
2773.00,98.46
2772.00,98.47
2771.00,98.47
2770.00,98.47
2769.00,98.47
2768.00,98.48
2767.00,98.48
2766.00,98.49
2765.00,98.49
2764.00,98.49
2763.00,98.51
2762.00,98.52
2761.00,98.52
2760.00,98.52
2759.00,98.52
2758.00,98.52
2757.00,98.52
2756.00,98.52
2755.00,98.52
2754.00,98.52
2753.00,98.52
2752.00,98.52
2751.00,98.52
2750.00,98.53
2749.00,98.54
2748.00,98.55
2747.00,98.56
2746.00,98.56
2745.00,98.55
2744.00,98.54
2743.00,98.54
2742.00,98.55
2741.00,98.57
2740.00,98.58
2739.00,98.58
2738.00,98.59
2737.00,98.59
2736.00,98.60
2735.00,98.61
2734.00,98.61
2733.00,98.62
2732.00,98.62
2731.00,98.61
2730.00,98.59
2729.00,98.57
2728.00,98.57
2727.00,98.58
2726.00,98.60
2725.00,98.63
2724.00,98.65
2723.00,98.67
2722.00,98.68
2721.00,98.69
2720.00,98.69
2719.00,98.68
2718.00,98.67
2717.00,98.67
2716.00,98.68
2715.00,98.69
2714.00,98.70
2713.00,98.71
2712.00,98.71
2711.00,98.70
2710.00,98.70
2709.00,98.70
2708.00,98.70
2707.00,98.70
2706.00,98.70
2705.00,98.71
2704.00,98.72
2703.00,98.73
2702.00,98.74
2701.00,98.74
2700.00,98.74
2699.00,98.73
2698.00,98.72
2697.00,98.71
2696.00,98.71
2695.00,98.72
2694.00,98.74
2693.00,98.76
2692.00,98.77
2691.00,98.77
2690.00,98.77
2689.00,98.78
2688.00,98.78
2687.00,98.78
2686.00,98.78
2685.00,98.77
2684.00,98.76
2683.00,98.75
2682.00,98.74
2681.00,98.74
2680.00,98.73
2679.00,98.73
2678.00,98.74
2677.00,98.75
2676.00,98.76
2675.00,98.77
2674.00,98.80
2673.00,98.82
2672.00,98.82
2671.00,98.82
2670.00,98.81
2669.00,98.80
2668.00,98.79
2667.00,98.80
2666.00,98.81
2665.00,98.81
2664.00,98.82
2663.00,98.81
2662.00,98.81
2661.00,98.80
2660.00,98.79
2659.00,98.78
2658.00,98.77
2657.00,98.75
2656.00,98.75
2655.00,98.75
2654.00,98.75
2653.00,98.75
2652.00,98.74
2651.00,98.73
2650.00,98.72
2649.00,98.72
2648.00,98.72
2647.00,98.72
2646.00,98.71
2645.00,98.70
2644.00,98.68
2643.00,98.66
2642.00,98.64
2641.00,98.63
2640.00,98.62
2639.00,98.61
2638.00,98.61
2637.00,98.61
2636.00,98.61
2635.00,98.61
2634.00,98.61
2633.00,98.61
2632.00,98.60
2631.00,98.60
2630.00,98.60
2629.00,98.60
2628.00,98.60
2627.00,98.59
2626.00,98.58
2625.00,98.58
2624.00,98.59
2623.00,98.58
2622.00,98.57
2621.00,98.56
2620.00,98.55
2619.00,98.54
2618.00,98.53
2617.00,98.52
2616.00,98.52
2615.00,98.52
2614.00,98.52
2613.00,98.53
2612.00,98.53
2611.00,98.55
2610.00,98.57
2609.00,98.58
2608.00,98.59
2607.00,98.59
2606.00,98.59
2605.00,98.57
2604.00,98.56
2603.00,98.55
2602.00,98.54
2601.00,98.52
2600.00,98.51
2599.00,98.49
2598.00,98.48
2597.00,98.47
2596.00,98.48
2595.00,98.49
2594.00,98.50
2593.00,98.51
2592.00,98.51
2591.00,98.49
2590.00,98.48
2589.00,98.48
2588.00,98.47
2587.00,98.47
2586.00,98.47
2585.00,98.48
2584.00,98.49
2583.00,98.50
2582.00,98.50
2581.00,98.50
2580.00,98.50
2579.00,98.50
2578.00,98.50
2577.00,98.48
2576.00,98.46
2575.00,98.44
2574.00,98.44
2573.00,98.44
2572.00,98.46
2571.00,98.48
2570.00,98.49
2569.00,98.49
2568.00,98.48
2567.00,98.48
2566.00,98.50
2565.00,98.51
2564.00,98.52
2563.00,98.51
2562.00,98.50
2561.00,98.49
2560.00,98.49
2559.00,98.48
2558.00,98.48
2557.00,98.49
2556.00,98.50
2555.00,98.51
2554.00,98.52
2553.00,98.54
2552.00,98.54
2551.00,98.53
2550.00,98.51
2549.00,98.48
2548.00,98.47
2547.00,98.48
2546.00,98.50
2545.00,98.50
2544.00,98.50
2543.00,98.48
2542.00,98.47
2541.00,98.45
2540.00,98.44
2539.00,98.42
2538.00,98.40
2537.00,98.40
2536.00,98.42
2535.00,98.45
2534.00,98.48
2533.00,98.50
2532.00,98.50
2531.00,98.50
2530.00,98.48
2529.00,98.46
2528.00,98.45
2527.00,98.45
2526.00,98.45
2525.00,98.44
2524.00,98.45
2523.00,98.45
2522.00,98.45
2521.00,98.46
2520.00,98.46
2519.00,98.47
2518.00,98.48
2517.00,98.48
2516.00,98.49
2515.00,98.50
2514.00,98.50
2513.00,98.50
2512.00,98.50
2511.00,98.51
2510.00,98.54
2509.00,98.57
2508.00,98.59
2507.00,98.59
2506.00,98.58
2505.00,98.56
2504.00,98.54
2503.00,98.53
2502.00,98.53
2501.00,98.53
2500.00,98.54
2499.00,98.54
2498.00,98.55
2497.00,98.56
2496.00,98.56
2495.00,98.55
2494.00,98.53
2493.00,98.51
2492.00,98.52
2491.00,98.53
2490.00,98.54
2489.00,98.55
2488.00,98.56
2487.00,98.57
2486.00,98.58
2485.00,98.58
2484.00,98.56
2483.00,98.55
2482.00,98.56
2481.00,98.58
2480.00,98.58
2479.00,98.57
2478.00,98.54
2477.00,98.52
2476.00,98.50
2475.00,98.50
2474.00,98.50
2473.00,98.51
2472.00,98.51
2471.00,98.50
2470.00,98.49
2469.00,98.48
2468.00,98.49
2467.00,98.51
2466.00,98.53
2465.00,98.54
2464.00,98.54
2463.00,98.54
2462.00,98.54
2461.00,98.53
2460.00,98.51
2459.00,98.48
2458.00,98.46
2457.00,98.47
2456.00,98.50
2455.00,98.54
2454.00,98.57
2453.00,98.57
2452.00,98.56
2451.00,98.54
2450.00,98.52
2449.00,98.51
2448.00,98.50
2447.00,98.51
2446.00,98.52
2445.00,98.52
2444.00,98.52
2443.00,98.52
2442.00,98.54
2441.00,98.57
2440.00,98.59
2439.00,98.60
2438.00,98.60
2437.00,98.60
2436.00,98.61
2435.00,98.62
2434.00,98.63
2433.00,98.62
2432.00,98.60
2431.00,98.60
2430.00,98.59
2429.00,98.58
2428.00,98.58
2427.00,98.59
2426.00,98.61
2425.00,98.63
2424.00,98.65
2423.00,98.64
2422.00,98.62
2421.00,98.60
2420.00,98.59
2419.00,98.59
2418.00,98.60
2417.00,98.61
2416.00,98.63
2415.00,98.63
2414.00,98.62
2413.00,98.62
2412.00,98.62
2411.00,98.64
2410.00,98.65
2409.00,98.65
2408.00,98.65
2407.00,98.65
2406.00,98.66
2405.00,98.67
2404.00,98.70
2403.00,98.73
2402.00,98.76
2401.00,98.77
2400.00,98.77
2399.00,98.77
2398.00,98.76
2397.00,98.75
2396.00,98.75
2395.00,98.75
2394.00,98.76
2393.00,98.77
2392.00,98.78
2391.00,98.79
2390.00,98.81
2389.00,98.82
2388.00,98.84
2387.00,98.86
2386.00,98.87
2385.00,98.87
2384.00,98.86
2383.00,98.86
2382.00,98.87
2381.00,98.88
2380.00,98.88
2379.00,98.89
2378.00,98.89
2377.00,98.88
2376.00,98.87
2375.00,98.86
2374.00,98.86
2373.00,98.87
2372.00,98.89
2371.00,98.91
2370.00,98.93
2369.00,98.95
2368.00,98.99
2367.00,99.04
2366.00,99.05
2365.00,98.99
2364.00,98.88
2363.00,98.82
2362.00,98.85
2361.00,98.92
2360.00,98.94
2359.00,98.89
2358.00,98.81
2357.00,98.76
2356.00,98.75
2355.00,98.79
2354.00,98.84
2353.00,98.88
2352.00,98.89
2351.00,98.88
2350.00,98.88
2349.00,98.91
2348.00,98.94
2347.00,98.97
2346.00,98.98
2345.00,98.96
2344.00,98.94
2343.00,98.90
2342.00,98.86
2341.00,98.84
2340.00,98.82
2339.00,98.80
2338.00,98.77
2337.00,98.74
2336.00,98.73
2335.00,98.74
2334.00,98.76
2333.00,98.78
2332.00,98.81
2331.00,98.82
2330.00,98.82
2329.00,98.79
2328.00,98.75
2327.00,98.70
2326.00,98.66
2325.00,98.64
2324.00,98.65
2323.00,98.67
2322.00,98.69
2321.00,98.70
2320.00,98.70
2319.00,98.71
2318.00,98.70
2317.00,98.68
2316.00,98.65
2315.00,98.62
2314.00,98.60
2313.00,98.57
2312.00,98.56
2311.00,98.56
2310.00,98.58
2309.00,98.60
2308.00,98.61
2307.00,98.60
2306.00,98.57
2305.00,98.53
2304.00,98.51
2303.00,98.51
2302.00,98.54
2301.00,98.56
2300.00,98.56
2299.00,98.54
2298.00,98.51
2297.00,98.48
2296.00,98.44
2295.00,98.42
2294.00,98.40
2293.00,98.40
2292.00,98.39
2291.00,98.38
2290.00,98.37
2289.00,98.36
2288.00,98.35
2287.00,98.32
2286.00,98.29
2285.00,98.26
2284.00,98.25
2283.00,98.24
2282.00,98.23
2281.00,98.20
2280.00,98.18
2279.00,98.16
2278.00,98.15
2277.00,98.13
2276.00,98.12
2275.00,98.12
2274.00,98.13
2273.00,98.14
2272.00,98.13
2271.00,98.10
2270.00,98.06
2269.00,98.03
2268.00,98.01
2267.00,98.02
2266.00,98.03
2265.00,98.04
2264.00,98.04
2263.00,98.03
2262.00,98.02
2261.00,98.00
2260.00,97.98
2259.00,97.96
2258.00,97.94
2257.00,97.92
2256.00,97.92
2255.00,97.93
2254.00,97.93
2253.00,97.92
2252.00,97.91
2251.00,97.93
2250.00,97.95
2249.00,97.97
2248.00,97.96
2247.00,97.95
2246.00,97.93
2245.00,97.90
2244.00,97.87
2243.00,97.86
2242.00,97.87
2241.00,97.89
2240.00,97.88
2239.00,97.86
2238.00,97.83
2237.00,97.81
2236.00,97.80
2235.00,97.81
2234.00,97.81
2233.00,97.78
2232.00,97.75
2231.00,97.72
2230.00,97.69
2229.00,97.67
2228.00,97.65
2227.00,97.64
2226.00,97.63
2225.00,97.62
2224.00,97.62
2223.00,97.64
2222.00,97.67
2221.00,97.69
2220.00,97.68
2219.00,97.67
2218.00,97.64
2217.00,97.60
2216.00,97.54
2215.00,97.48
2214.00,97.45
2213.00,97.46
2212.00,97.49
2211.00,97.52
2210.00,97.54
2209.00,97.55
2208.00,97.53
2207.00,97.49
2206.00,97.44
2205.00,97.40
2204.00,97.42
2203.00,97.47
2202.00,97.52
2201.00,97.54
2200.00,97.51
2199.00,97.47
2198.00,97.43
2197.00,97.37
2196.00,97.31
2195.00,97.27
2194.00,97.24
2193.00,97.23
2192.00,97.22
2191.00,97.21
2190.00,97.20
2189.00,97.18
2188.00,97.14
2187.00,97.10
2186.00,97.07
2185.00,97.06
2184.00,97.07
2183.00,97.10
2182.00,97.12
2181.00,97.14
2180.00,97.14
2179.00,97.16
2178.00,97.20
2177.00,97.26
2176.00,97.31
2175.00,97.30
2174.00,97.24
2173.00,97.15
2172.00,97.07
2171.00,97.04
2170.00,97.05
2169.00,97.05
2168.00,97.03
2167.00,96.96
2166.00,96.86
2165.00,96.74
2164.00,96.61
2163.00,96.49
2162.00,96.43
2161.00,96.47
2160.00,96.63
2159.00,96.84
2158.00,97.03
2157.00,97.16
2156.00,97.23
2155.00,97.26
2154.00,97.27
2153.00,97.27
2152.00,97.27
2151.00,97.31
2150.00,97.38
2149.00,97.46
2148.00,97.52
2147.00,97.55
2146.00,97.55
2145.00,97.53
2144.00,97.52
2143.00,97.55
2142.00,97.60
2141.00,97.66
2140.00,97.68
2139.00,97.69
2138.00,97.67
2137.00,97.66
2136.00,97.68
2135.00,97.75
2134.00,97.85
2133.00,97.95
2132.00,98.01
2131.00,98.03
2130.00,98.02
2129.00,98.01
2128.00,98.01
2127.00,98.03
2126.00,98.05
2125.00,98.06
2124.00,98.05
2123.00,98.03
2122.00,98.03
2121.00,98.05
2120.00,98.08
2119.00,98.10
2118.00,98.10
2117.00,98.10
2116.00,98.08
2115.00,98.06
2114.00,98.05
2113.00,98.03
2112.00,98.01
2111.00,98.00
2110.00,98.00
2109.00,98.00
2108.00,98.00
2107.00,97.98
2106.00,97.96
2105.00,97.93
2104.00,97.91
2103.00,97.90
2102.00,97.91
2101.00,97.91
2100.00,97.90
2099.00,97.89
2098.00,97.91
2097.00,97.95
2096.00,98.00
2095.00,98.04
2094.00,98.07
2093.00,98.08
2092.00,98.06
2091.00,98.02
2090.00,97.98
2089.00,97.96
2088.00,97.97
2087.00,97.99
2086.00,97.98
2085.00,97.96
2084.00,97.93
2083.00,97.91
2082.00,97.91
2081.00,97.91
2080.00,97.90
2079.00,97.87
2078.00,97.84
2077.00,97.82
2076.00,97.82
2075.00,97.82
2074.00,97.82
2073.00,97.80
2072.00,97.77
2071.00,97.77
2070.00,97.78
2069.00,97.81
2068.00,97.83
2067.00,97.83
2066.00,97.81
2065.00,97.78
2064.00,97.77
2063.00,97.77
2062.00,97.76
2061.00,97.74
2060.00,97.70
2059.00,97.67
2058.00,97.65
2057.00,97.66
2056.00,97.67
2055.00,97.66
2054.00,97.62
2053.00,97.54
2052.00,97.44
2051.00,97.35
2050.00,97.30
2049.00,97.29
2048.00,97.29
2047.00,97.30
2046.00,97.30
2045.00,97.29
2044.00,97.29
2043.00,97.28
2042.00,97.28
2041.00,97.28
2040.00,97.30
2039.00,97.32
2038.00,97.31
2037.00,97.25
2036.00,97.17
2035.00,97.10
2034.00,97.07
2033.00,97.07
2032.00,97.10
2031.00,97.13
2030.00,97.14
2029.00,97.13
2028.00,97.10
2027.00,97.09
2026.00,97.13
2025.00,97.19
2024.00,97.26
2023.00,97.32
2022.00,97.35
2021.00,97.35
2020.00,97.30
2019.00,97.24
2018.00,97.19
2017.00,97.18
2016.00,97.22
2015.00,97.28
2014.00,97.33
2013.00,97.38
2012.00,97.40
2011.00,97.40
2010.00,97.40
2009.00,97.41
2008.00,97.45
2007.00,97.51
2006.00,97.56
2005.00,97.57
2004.00,97.56
2003.00,97.54
2002.00,97.54
2001.00,97.53
2000.00,97.52
1999.00,97.51
1998.00,97.50
1997.00,97.47
1996.00,97.42
1995.00,97.36
1994.00,97.35
1993.00,97.39
1992.00,97.47
1991.00,97.52
1990.00,97.52
1989.00,97.49
1988.00,97.47
1987.00,97.48
1986.00,97.49
1985.00,97.48
1984.00,97.43
1983.00,97.33
1982.00,97.21
1981.00,97.13
1980.00,97.13
1979.00,97.20
1978.00,97.28
1977.00,97.31
1976.00,97.33
1975.00,97.34
1974.00,97.36
1973.00,97.37
1972.00,97.37
1971.00,97.39
1970.00,97.43
1969.00,97.47
1968.00,97.50
1967.00,97.53
1966.00,97.56
1965.00,97.58
1964.00,97.59
1963.00,97.62
1962.00,97.65
1961.00,97.71
1960.00,97.78
1959.00,97.88
1958.00,97.95
1957.00,97.98
1956.00,97.97
1955.00,97.95
1954.00,97.92
1953.00,97.91
1952.00,97.94
1951.00,98.00
1950.00,98.07
1949.00,98.10
1948.00,98.09
1947.00,98.06
1946.00,98.02
1945.00,97.99
1944.00,97.98
1943.00,97.99
1942.00,98.02
1941.00,98.05
1940.00,98.09
1939.00,98.12
1938.00,98.14
1937.00,98.17
1936.00,98.20
1935.00,98.24
1934.00,98.28
1933.00,98.31
1932.00,98.33
1931.00,98.34
1930.00,98.32
1929.00,98.30
1928.00,98.29
1927.00,98.31
1926.00,98.34
1925.00,98.36
1924.00,98.36
1923.00,98.35
1922.00,98.34
1921.00,98.33
1920.00,98.31
1919.00,98.30
1918.00,98.30
1917.00,98.31
1916.00,98.33
1915.00,98.36
1914.00,98.40
1913.00,98.44
1912.00,98.47
1911.00,98.48
1910.00,98.47
1909.00,98.46
1908.00,98.47
1907.00,98.48
1906.00,98.48
1905.00,98.47
1904.00,98.46
1903.00,98.47
1902.00,98.48
1901.00,98.50
1900.00,98.52
1899.00,98.53
1898.00,98.54
1897.00,98.52
1896.00,98.52
1895.00,98.55
1894.00,98.58
1893.00,98.61
1892.00,98.62
1891.00,98.62
1890.00,98.63
1889.00,98.63
1888.00,98.62
1887.00,98.62
1886.00,98.63
1885.00,98.65
1884.00,98.66
1883.00,98.68
1882.00,98.69
1881.00,98.69
1880.00,98.69
1879.00,98.68
1878.00,98.68
1877.00,98.68
1876.00,98.68
1875.00,98.69
1874.00,98.70
1873.00,98.70
1872.00,98.70
1871.00,98.71
1870.00,98.72
1869.00,98.71
1868.00,98.69
1867.00,98.67
1866.00,98.68
1865.00,98.70
1864.00,98.73
1863.00,98.76
1862.00,98.77
1861.00,98.76
1860.00,98.75
1859.00,98.77
1858.00,98.79
1857.00,98.80
1856.00,98.80
1855.00,98.79
1854.00,98.78
1853.00,98.78
1852.00,98.77
1851.00,98.78
1850.00,98.81
1849.00,98.84
1848.00,98.87
1847.00,98.90
1846.00,98.91
1845.00,98.91
1844.00,98.88
1843.00,98.85
1842.00,98.85
1841.00,98.86
1840.00,98.87
1839.00,98.89
1838.00,98.91
1837.00,98.93
1836.00,98.94
1835.00,98.95
1834.00,98.96
1833.00,98.97
1832.00,98.96
1831.00,98.95
1830.00,98.95
1829.00,98.94
1828.00,98.95
1827.00,98.96
1826.00,98.97
1825.00,98.96
1824.00,98.95
1823.00,98.94
1822.00,98.94
1821.00,98.95
1820.00,98.96
1819.00,98.96
1818.00,98.96
1817.00,98.97
1816.00,98.98
1815.00,98.99
1814.00,99.02
1813.00,99.04
1812.00,99.05
1811.00,99.06
1810.00,99.06
1809.00,99.05
1808.00,99.04
1807.00,99.05
1806.00,99.06
1805.00,99.07
1804.00,99.08
1803.00,99.09
1802.00,99.10
1801.00,99.10
1800.00,99.09
1799.00,99.10
1798.00,99.12
1797.00,99.14
1796.00,99.14
1795.00,99.14
1794.00,99.15
1793.00,99.16
1792.00,99.16
1791.00,99.15
1790.00,99.15
1789.00,99.14
1788.00,99.14
1787.00,99.15
1786.00,99.16
1785.00,99.15
1784.00,99.14
1783.00,99.13
1782.00,99.13
1781.00,99.13
1780.00,99.13
1779.00,99.13
1778.00,99.13
1777.00,99.13
1776.00,99.12
1775.00,99.12
1774.00,99.12
1773.00,99.12
1772.00,99.12
1771.00,99.10
1770.00,99.09
1769.00,99.09
1768.00,99.10
1767.00,99.12
1766.00,99.13
1765.00,99.14
1764.00,99.13
1763.00,99.11
1762.00,99.09
1761.00,99.07
1760.00,99.06
1759.00,99.06
1758.00,99.07
1757.00,99.08
1756.00,99.09
1755.00,99.09
1754.00,99.09
1753.00,99.09
1752.00,99.08
1751.00,99.07
1750.00,99.05
1749.00,99.02
1748.00,98.99
1747.00,98.96
1746.00,98.95
1745.00,98.93
1744.00,98.90
1743.00,98.89
1742.00,98.89
1741.00,98.89
1740.00,98.89
1739.00,98.90
1738.00,98.90
1737.00,98.89
1736.00,98.86
1735.00,98.85
1734.00,98.85
1733.00,98.84
1732.00,98.83
1731.00,98.82
1730.00,98.81
1729.00,98.79
1728.00,98.77
1727.00,98.75
1726.00,98.74
1725.00,98.73
1724.00,98.71
1723.00,98.69
1722.00,98.68
1721.00,98.66
1720.00,98.62
1719.00,98.59
1718.00,98.56
1717.00,98.51
1716.00,98.44
1715.00,98.38
1714.00,98.33
1713.00,98.27
1712.00,98.20
1711.00,98.14
1710.00,98.07
1709.00,97.99
1708.00,97.88
1707.00,97.75
1706.00,97.62
1705.00,97.47
1704.00,97.33
1703.00,97.18
1702.00,97.01
1701.00,96.79
1700.00,96.51
1699.00,96.27
1698.00,96.08
1697.00,95.87
1696.00,95.61
1695.00,95.35
1694.00,95.13
1693.00,94.92
1692.00,94.71
1691.00,94.49
1690.00,94.27
1689.00,94.05
1688.00,93.85
1687.00,93.65
1686.00,93.45
1685.00,93.23
1684.00,92.98
1683.00,92.76
1682.00,92.56
1681.00,92.36
1680.00,92.14
1679.00,91.94
1678.00,91.75
1677.00,91.56
1676.00,91.37
1675.00,91.19
1674.00,91.01
1673.00,90.81
1672.00,90.60
1671.00,90.37
1670.00,90.14
1669.00,89.92
1668.00,89.70
1667.00,89.50
1666.00,89.31
1665.00,89.10
1664.00,88.88
1663.00,88.66
1662.00,88.43
1661.00,88.19
1660.00,87.94
1659.00,87.70
1658.00,87.48
1657.00,87.26
1656.00,87.02
1655.00,86.77
1654.00,86.50
1653.00,86.23
1652.00,86.01
1651.00,85.83
1650.00,85.64
1649.00,85.45
1648.00,85.25
1647.00,85.11
1646.00,85.01
1645.00,84.92
1644.00,84.81
1643.00,84.70
1642.00,84.61
1641.00,84.53
1640.00,84.44
1639.00,84.34
1638.00,84.26
1637.00,84.20
1636.00,84.20
1635.00,84.21
1634.00,84.20
1633.00,84.15
1632.00,84.07
1631.00,84.00
1630.00,83.95
1629.00,83.94
1628.00,83.96
1627.00,84.00
1626.00,84.04
1625.00,84.09
1624.00,84.17
1623.00,84.29
1622.00,84.44
1621.00,84.57
1620.00,84.67
1619.00,84.79
1618.00,84.98
1617.00,85.27
1616.00,85.59
1615.00,85.84
1614.00,86.04
1613.00,86.22
1612.00,86.43
1611.00,86.68
1610.00,86.96
1609.00,87.24
1608.00,87.53
1607.00,87.78
1606.00,88.02
1605.00,88.24
1604.00,88.48
1603.00,88.73
1602.00,88.96
1601.00,89.18
1600.00,89.38
1599.00,89.57
1598.00,89.75
1597.00,89.92
1596.00,90.10
1595.00,90.26
1594.00,90.41
1593.00,90.55
1592.00,90.69
1591.00,90.81
1590.00,90.92
1589.00,91.01
1588.00,91.11
1587.00,91.20
1586.00,91.26
1585.00,91.30
1584.00,91.34
1583.00,91.35
1582.00,91.36
1581.00,91.35
1580.00,91.34
1579.00,91.33
1578.00,91.31
1577.00,91.29
1576.00,91.28
1575.00,91.26
1574.00,91.20
1573.00,91.12
1572.00,91.05
1571.00,90.96
1570.00,90.86
1569.00,90.75
1568.00,90.65
1567.00,90.54
1566.00,90.41
1565.00,90.27
1564.00,90.13
1563.00,89.98
1562.00,89.82
1561.00,89.65
1560.00,89.47
1559.00,89.25
1558.00,89.02
1557.00,88.81
1556.00,88.63
1555.00,88.43
1554.00,88.22
1553.00,87.99
1552.00,87.77
1551.00,87.56
1550.00,87.37
1549.00,87.19
1548.00,87.03
1547.00,86.85
1546.00,86.67
1545.00,86.49
1544.00,86.34
1543.00,86.22
1542.00,86.09
1541.00,85.94
1540.00,85.82
1539.00,85.73
1538.00,85.63
1537.00,85.52
1536.00,85.39
1535.00,85.28
1534.00,85.20
1533.00,85.17
1532.00,85.15
1531.00,85.11
1530.00,85.06
1529.00,85.00
1528.00,84.95
1527.00,84.92
1526.00,84.90
1525.00,84.88
1524.00,84.84
1523.00,84.79
1522.00,84.78
1521.00,84.79
1520.00,84.79
1519.00,84.75
1518.00,84.68
1517.00,84.63
1516.00,84.61
1515.00,84.61
1514.00,84.62
1513.00,84.66
1512.00,84.73
1511.00,84.80
1510.00,84.86
1509.00,84.92
1508.00,85.07
1507.00,85.35
1506.00,85.64
1505.00,85.83
1504.00,85.92
1503.00,86.00
1502.00,86.10
1501.00,86.25
1500.00,86.42
1499.00,86.62
1498.00,86.85
1497.00,87.13
1496.00,87.41
1495.00,87.63
1494.00,87.81
1493.00,87.96
1492.00,88.13
1491.00,88.36
1490.00,88.64
1489.00,88.91
1488.00,89.15
1487.00,89.35
1486.00,89.54
1485.00,89.70
1484.00,89.84
1483.00,89.97
1482.00,90.10
1481.00,90.21
1480.00,90.28
1479.00,90.32
1478.00,90.34
1477.00,90.36
1476.00,90.36
1475.00,90.33
1474.00,90.29
1473.00,90.25
1472.00,90.21
1471.00,90.17
1470.00,90.12
1469.00,90.07
1468.00,90.02
1467.00,89.97
1466.00,89.92
1465.00,89.88
1464.00,89.84
1463.00,89.80
1462.00,89.76
1461.00,89.72
1460.00,89.68
1459.00,89.64
1458.00,89.60
1457.00,89.54
1456.00,89.47
1455.00,89.39
1454.00,89.32
1453.00,89.26
1452.00,89.22
1451.00,89.20
1450.00,89.20
1449.00,89.20
1448.00,89.21
1447.00,89.24
1446.00,89.26
1445.00,89.26
1444.00,89.28
1443.00,89.32
1442.00,89.37
1441.00,89.42
1440.00,89.46
1439.00,89.50
1438.00,89.57
1437.00,89.68
1436.00,89.81
1435.00,89.90
1434.00,89.96
1433.00,90.01
1432.00,90.09
1431.00,90.18
1430.00,90.28
1429.00,90.36
1428.00,90.42
1427.00,90.45
1426.00,90.48
1425.00,90.51
1424.00,90.54
1423.00,90.54
1422.00,90.53
1421.00,90.51
1420.00,90.51
1419.00,90.53
1418.00,90.55
1417.00,90.55
1416.00,90.52
1415.00,90.47
1414.00,90.44
1413.00,90.41
1412.00,90.38
1411.00,90.36
1410.00,90.33
1409.00,90.31
1408.00,90.27
1407.00,90.23
1406.00,90.20
1405.00,90.17
1404.00,90.13
1403.00,90.08
1402.00,90.03
1401.00,90.00
1400.00,89.97
1399.00,89.97
1398.00,89.97
1397.00,89.96
1396.00,89.93
1395.00,89.89
1394.00,89.86
1393.00,89.84
1392.00,89.83
1391.00,89.81
1390.00,89.79
1389.00,89.77
1388.00,89.78
1387.00,89.79
1386.00,89.82
1385.00,89.84
1384.00,89.87
1383.00,89.91
1382.00,89.96
1381.00,90.02
1380.00,90.08
1379.00,90.15
1378.00,90.21
1377.00,90.26
1376.00,90.30
1375.00,90.34
1374.00,90.40
1373.00,90.44
1372.00,90.47
1371.00,90.47
1370.00,90.48
1369.00,90.50
1368.00,90.54
1367.00,90.60
1366.00,90.66
1365.00,90.72
1364.00,90.78
1363.00,90.85
1362.00,90.92
1361.00,90.97
1360.00,91.01
1359.00,91.04
1358.00,91.07
1357.00,91.09
1356.00,91.11
1355.00,91.13
1354.00,91.14
1353.00,91.15
1352.00,91.15
1351.00,91.15
1350.00,91.14
1349.00,91.13
1348.00,91.13
1347.00,91.13
1346.00,91.13
1345.00,91.12
1344.00,91.11
1343.00,91.11
1342.00,91.11
1341.00,91.11
1340.00,91.10
1339.00,91.10
1338.00,91.09
1337.00,91.09
1336.00,91.10
1335.00,91.12
1334.00,91.14
1333.00,91.15
1332.00,91.16
1331.00,91.18
1330.00,91.19
1329.00,91.20
1328.00,91.21
1327.00,91.20
1326.00,91.17
1325.00,91.14
1324.00,91.12
1323.00,91.09
1322.00,91.07
1321.00,91.04
1320.00,91.01
1319.00,90.97
1318.00,90.95
1317.00,90.94
1316.00,90.93
1315.00,90.92
1314.00,90.91
1313.00,90.88
1312.00,90.86
1311.00,90.83
1310.00,90.82
1309.00,90.81
1308.00,90.80
1307.00,90.79
1306.00,90.79
1305.00,90.79
1304.00,90.78
1303.00,90.76
1302.00,90.75
1301.00,90.74
1300.00,90.73
1299.00,90.72
1298.00,90.72
1297.00,90.73
1296.00,90.74
1295.00,90.76
1294.00,90.76
1293.00,90.76
1292.00,90.74
1291.00,90.72
1290.00,90.69
1289.00,90.67
1288.00,90.65
1287.00,90.64
1286.00,90.63
1285.00,90.62
1284.00,90.62
1283.00,90.61
1282.00,90.59
1281.00,90.57
1280.00,90.55
1279.00,90.52
1278.00,90.51
1277.00,90.50
1276.00,90.49
1275.00,90.47
1274.00,90.45
1273.00,90.42
1272.00,90.39
1271.00,90.37
1270.00,90.35
1269.00,90.34
1268.00,90.31
1267.00,90.27
1266.00,90.23
1265.00,90.20
1264.00,90.16
1263.00,90.13
1262.00,90.10
1261.00,90.07
1260.00,90.03
1259.00,89.98
1258.00,89.94
1257.00,89.89
1256.00,89.84
1255.00,89.78
1254.00,89.72
1253.00,89.67
1252.00,89.62
1251.00,89.58
1250.00,89.54
1249.00,89.49
1248.00,89.43
1247.00,89.37
1246.00,89.30
1245.00,89.25
1244.00,89.20
1243.00,89.16
1242.00,89.12
1241.00,89.09
1240.00,89.06
1239.00,89.04
1238.00,89.01
1237.00,88.99
1236.00,88.97
1235.00,88.95
1234.00,88.94
1233.00,88.93
1232.00,88.92
1231.00,88.91
1230.00,88.92
1229.00,88.94
1228.00,88.98
1227.00,89.02
1226.00,89.07
1225.00,89.11
1224.00,89.16
1223.00,89.20
1222.00,89.26
1221.00,89.32
1220.00,89.38
1219.00,89.44
1218.00,89.49
1217.00,89.56
1216.00,89.65
1215.00,89.73
1214.00,89.79
1213.00,89.81
1212.00,89.82
1211.00,89.84
1210.00,89.86
1209.00,89.90
1208.00,89.94
1207.00,89.98
1206.00,90.03
1205.00,90.07
1204.00,90.10
1203.00,90.12
1202.00,90.15
1201.00,90.19
1200.00,90.23
1199.00,90.26
1198.00,90.30
1197.00,90.34
1196.00,90.38
1195.00,90.40
1194.00,90.43
1193.00,90.47
1192.00,90.51
1191.00,90.55
1190.00,90.58
1189.00,90.60
1188.00,90.62
1187.00,90.64
1186.00,90.67
1185.00,90.69
1184.00,90.70
1183.00,90.70
1182.00,90.70
1181.00,90.70
1180.00,90.70
1179.00,90.70
1178.00,90.68
1177.00,90.65
1176.00,90.62
1175.00,90.61
1174.00,90.61
1173.00,90.62
1172.00,90.64
1171.00,90.66
1170.00,90.67
1169.00,90.66
1168.00,90.67
1167.00,90.69
1166.00,90.72
1165.00,90.77
1164.00,90.80
1163.00,90.83
1162.00,90.84
1161.00,90.84
1160.00,90.84
1159.00,90.86
1158.00,90.87
1157.00,90.88
1156.00,90.89
1155.00,90.91
1154.00,90.94
1153.00,90.98
1152.00,91.03
1151.00,91.08
1150.00,91.15
1149.00,91.21
1148.00,91.26
1147.00,91.29
1146.00,91.29
1145.00,91.29
1144.00,91.30
1143.00,91.32
1142.00,91.33
1141.00,91.34
1140.00,91.34
1139.00,91.35
1138.00,91.38
1137.00,91.42
1136.00,91.44
1135.00,91.43
1134.00,91.40
1133.00,91.37
1132.00,91.35
1131.00,91.34
1130.00,91.31
1129.00,91.26
1128.00,91.22
1127.00,91.19
1126.00,91.16
1125.00,91.13
1124.00,91.11
1123.00,91.09
1122.00,91.09
1121.00,91.11
1120.00,91.12
1119.00,91.12
1118.00,91.11
1117.00,91.10
1116.00,91.10
1115.00,91.11
1114.00,91.10
1113.00,91.08
1112.00,91.05
1111.00,91.02
1110.00,91.00
1109.00,90.99
1108.00,90.99
1107.00,91.00
1106.00,91.01
1105.00,91.01
1104.00,91.00
1103.00,90.98
1102.00,90.95
1101.00,90.93
1100.00,90.90
1099.00,90.85
1098.00,90.81
1097.00,90.79
1096.00,90.77
1095.00,90.75
1094.00,90.71
1093.00,90.68
1092.00,90.65
1091.00,90.65
1090.00,90.65
1089.00,90.63
1088.00,90.60
1087.00,90.55
1086.00,90.49
1085.00,90.43
1084.00,90.39
1083.00,90.37
1082.00,90.36
1081.00,90.34
1080.00,90.32
1079.00,90.29
1078.00,90.27
1077.00,90.25
1076.00,90.24
1075.00,90.21
1074.00,90.17
1073.00,90.12
1072.00,90.07
1071.00,90.05
1070.00,90.06
1069.00,90.09
1068.00,90.12
1067.00,90.15
1066.00,90.17
1065.00,90.20
1064.00,90.23
1063.00,90.27
1062.00,90.28
1061.00,90.28
1060.00,90.27
1059.00,90.27
1058.00,90.30
1057.00,90.32
1056.00,90.33
1055.00,90.33
1054.00,90.35
1053.00,90.36
1052.00,90.35
1051.00,90.34
1050.00,90.32
1049.00,90.32
1048.00,90.33
1047.00,90.36
1046.00,90.37
1045.00,90.38
1044.00,90.36
1043.00,90.35
1042.00,90.35
1041.00,90.36
1040.00,90.39
1039.00,90.42
1038.00,90.47
1037.00,90.53
1036.00,90.58
1035.00,90.63
1034.00,90.67
1033.00,90.72
1032.00,90.77
1031.00,90.82
1030.00,90.86
1029.00,90.91
1028.00,90.95
1027.00,90.99
1026.00,91.01
1025.00,91.04
1024.00,91.08
1023.00,91.14
1022.00,91.20
1021.00,91.26
1020.00,91.29
1019.00,91.32
1018.00,91.34
1017.00,91.38
1016.00,91.43
1015.00,91.47
1014.00,91.49
1013.00,91.51
1012.00,91.55
1011.00,91.61
1010.00,91.70
1009.00,91.79
1008.00,91.86
1007.00,91.89
1006.00,91.91
1005.00,91.92
1004.00,91.94
1003.00,91.98
1002.00,92.02
1001.00,92.07
1000.00,92.10
999.00,92.11
998.00,92.11
997.00,92.11
996.00,92.12
995.00,92.15
994.00,92.18
993.00,92.21
992.00,92.25
991.00,92.28
990.00,92.29
989.00,92.30
988.00,92.31
987.00,92.32
986.00,92.33
985.00,92.36
984.00,92.38
983.00,92.40
982.00,92.42
981.00,92.43
980.00,92.44
979.00,92.44
978.00,92.45
977.00,92.46
976.00,92.48
975.00,92.50
974.00,92.51
973.00,92.53
972.00,92.55
971.00,92.58
970.00,92.59
969.00,92.60
968.00,92.62
967.00,92.65
966.00,92.68
965.00,92.72
964.00,92.75
963.00,92.77
962.00,92.78
961.00,92.77
960.00,92.76
959.00,92.76
958.00,92.77
957.00,92.78
956.00,92.78
955.00,92.77
954.00,92.77
953.00,92.80
952.00,92.82
951.00,92.83
950.00,92.81
949.00,92.78
948.00,92.76
947.00,92.75
946.00,92.75
945.00,92.74
944.00,92.73
943.00,92.72
942.00,92.70
941.00,92.67
940.00,92.63
939.00,92.60
938.00,92.60
937.00,92.61
936.00,92.61
935.00,92.60
934.00,92.58
933.00,92.56
932.00,92.55
931.00,92.54
930.00,92.55
929.00,92.56
928.00,92.58
927.00,92.59
926.00,92.58
925.00,92.56
924.00,92.54
923.00,92.56
922.00,92.59
921.00,92.62
920.00,92.65
919.00,92.68
918.00,92.69
917.00,92.70
916.00,92.70
915.00,92.70
914.00,92.70
913.00,92.72
912.00,92.76
911.00,92.80
910.00,92.83
909.00,92.82
908.00,92.81
907.00,92.80
906.00,92.81
905.00,92.82
904.00,92.81
903.00,92.79
902.00,92.77
901.00,92.76
900.00,92.75
899.00,92.75
898.00,92.76
897.00,92.76
896.00,92.77
895.00,92.77
894.00,92.76
893.00,92.75
892.00,92.73
891.00,92.73
890.00,92.72
889.00,92.69
888.00,92.66
887.00,92.63
886.00,92.63
885.00,92.66
884.00,92.69
883.00,92.70
882.00,92.67
881.00,92.63
880.00,92.60
879.00,92.58
878.00,92.59
877.00,92.60
876.00,92.61
875.00,92.61
874.00,92.58
873.00,92.56
872.00,92.53
871.00,92.52
870.00,92.53
869.00,92.54
868.00,92.55
867.00,92.57
866.00,92.59
865.00,92.59
864.00,92.57
863.00,92.54
862.00,92.51
861.00,92.49
860.00,92.49
859.00,92.47
858.00,92.43
857.00,92.39
856.00,92.35
855.00,92.34
854.00,92.33
853.00,92.32
852.00,92.28
851.00,92.23
850.00,92.19
849.00,92.18
848.00,92.19
847.00,92.19
846.00,92.17
845.00,92.13
844.00,92.09
843.00,92.06
842.00,92.03
841.00,92.00
840.00,91.97
839.00,91.92
838.00,91.88
837.00,91.85
836.00,91.83
835.00,91.82
834.00,91.79
833.00,91.74
832.00,91.68
831.00,91.61
830.00,91.56
829.00,91.54
828.00,91.54
827.00,91.56
826.00,91.59
825.00,91.58
824.00,91.54
823.00,91.50
822.00,91.48
821.00,91.49
820.00,91.51
819.00,91.51
818.00,91.48
817.00,91.43
816.00,91.39
815.00,91.37
814.00,91.37
813.00,91.36
812.00,91.34
811.00,91.31
810.00,91.28
809.00,91.27
808.00,91.26
807.00,91.25
806.00,91.21
805.00,91.14
804.00,91.05
803.00,90.97
802.00,90.90
801.00,90.84
800.00,90.79
799.00,90.75
798.00,90.74
797.00,90.74
796.00,90.73
795.00,90.72
794.00,90.73
793.00,90.74
792.00,90.75
791.00,90.72
790.00,90.67
789.00,90.61
788.00,90.55
787.00,90.50
786.00,90.44
785.00,90.39
784.00,90.37
783.00,90.37
782.00,90.37
781.00,90.33
780.00,90.25
779.00,90.16
778.00,90.09
777.00,90.05
776.00,90.03
775.00,90.00
774.00,89.96
773.00,89.90
772.00,89.85
771.00,89.81
770.00,89.80
769.00,89.77
768.00,89.72
767.00,89.65
766.00,89.57
765.00,89.50
764.00,89.45
763.00,89.41
762.00,89.39
761.00,89.39
760.00,89.38
759.00,89.36
758.00,89.30
757.00,89.21
756.00,89.13
755.00,89.07
754.00,89.02
753.00,88.97
752.00,88.91
751.00,88.83
750.00,88.77
749.00,88.72
748.00,88.69
747.00,88.66
746.00,88.62
745.00,88.57
744.00,88.52
743.00,88.48
742.00,88.44
741.00,88.40
740.00,88.38
739.00,88.37
738.00,88.37
737.00,88.35
736.00,88.34
735.00,88.34
734.00,88.33
733.00,88.26
732.00,88.12
731.00,87.98
730.00,87.89
729.00,87.87
728.00,87.89
727.00,87.88
726.00,87.83
725.00,87.74
724.00,87.65
723.00,87.57
722.00,87.51
721.00,87.45
720.00,87.38
719.00,87.30
718.00,87.23
717.00,87.17
716.00,87.12
715.00,87.08
714.00,87.04
713.00,87.00
712.00,86.94
711.00,86.88
710.00,86.81
709.00,86.71
708.00,86.61
707.00,86.53
706.00,86.46
705.00,86.35
704.00,86.20
703.00,86.03
702.00,85.90
701.00,85.81
700.00,85.74
699.00,85.69
698.00,85.67
697.00,85.67
696.00,85.66
695.00,85.65
694.00,85.61
693.00,85.56
692.00,85.50
691.00,85.44
690.00,85.39
689.00,85.36
688.00,85.33
687.00,85.30
686.00,85.27
685.00,85.27
684.00,85.27
683.00,85.25
682.00,85.20
681.00,85.12
680.00,85.02
679.00,84.90
678.00,84.79
677.00,84.71
676.00,84.69
675.00,84.68
674.00,84.63
673.00,84.52
672.00,84.44
671.00,84.43
670.00,84.50
669.00,84.55
668.00,84.44
667.00,84.25
666.00,84.10
665.00,83.98
664.00,83.86
663.00,83.72
662.00,83.61
661.00,83.54
660.00,83.49
659.00,83.43
658.00,83.36
657.00,83.30
656.00,83.31
655.00,83.41
654.00,83.52
653.00,83.55
652.00,83.50
651.00,83.43
650.00,83.36
649.00,83.27
648.00,83.15
647.00,83.06
646.00,83.02
645.00,83.01
644.00,82.96
643.00,82.90
642.00,82.85
641.00,82.78
640.00,82.67
639.00,82.55
638.00,82.47
637.00,82.39
636.00,82.26
635.00,82.09
634.00,81.96
633.00,81.91
632.00,81.96
631.00,82.06
630.00,82.15
629.00,82.18
628.00,82.15
627.00,82.11
626.00,82.05
625.00,81.92
624.00,81.70
623.00,81.47
622.00,81.29
621.00,81.24
620.00,81.36
619.00,81.65
618.00,81.91
617.00,81.85
616.00,81.44
615.00,81.01
614.00,80.86
613.00,80.91
612.00,80.97
611.00,80.96
610.00,80.94
609.00,80.95
608.00,80.96
607.00,80.94
606.00,80.88
605.00,80.84
604.00,80.98
603.00,81.48
602.00,82.26
601.00,82.90
600.00,83.01
599.00,82.59
598.00,81.99
597.00,81.45
596.00,80.98
595.00,80.61
594.00,80.46
593.00,80.54
592.00,80.67
591.00,80.67
590.00,80.62
589.00,80.62
588.00,80.57
587.00,80.32
586.00,79.91
585.00,79.54
584.00,79.37
583.00,79.38
582.00,79.48
581.00,79.60
580.00,79.67
579.00,79.59
578.00,79.39
577.00,79.25
576.00,79.36
575.00,79.69
574.00,80.00
573.00,80.04
572.00,79.78
571.00,79.41
570.00,79.08
569.00,78.76
568.00,78.41
567.00,78.12
566.00,77.98
565.00,77.95
564.00,77.98
563.00,78.15
562.00,78.56
561.00,79.07
560.00,79.40
559.00,79.33
558.00,78.92
557.00,78.46
556.00,78.23
555.00,78.36
554.00,78.71
553.00,79.04
552.00,79.08
551.00,78.74
550.00,78.22
