Created as New Dataset,14.2 Red Wool Targhee sheep
cm-1,%T
4000.00,99.56
3999.00,99.57
3998.00,99.58
3997.00,99.58
3996.00,99.57
3995.00,99.55
3994.00,99.54
3993.00,99.55
3992.00,99.56
3991.00,99.58
3990.00,99.59
3989.00,99.61
3988.00,99.61
3987.00,99.62
3986.00,99.63
3985.00,99.64
3984.00,99.63
3983.00,99.62
3982.00,99.59
3981.00,99.57
3980.00,99.55
3979.00,99.55
3978.00,99.56
3977.00,99.58
3976.00,99.60
3975.00,99.61
3974.00,99.61
3973.00,99.61
3972.00,99.60
3971.00,99.58
3970.00,99.56
3969.00,99.55
3968.00,99.54
3967.00,99.55
3966.00,99.57
3965.00,99.61
3964.00,99.65
3963.00,99.68
3962.00,99.69
3961.00,99.68
3960.00,99.65
3959.00,99.61
3958.00,99.58
3957.00,99.57
3956.00,99.57
3955.00,99.59
3954.00,99.61
3953.00,99.62
3952.00,99.60
3951.00,99.57
3950.00,99.55
3949.00,99.55
3948.00,99.55
3947.00,99.56
3946.00,99.57
3945.00,99.57
3944.00,99.58
3943.00,99.59
3942.00,99.61
3941.00,99.62
3940.00,99.62
3939.00,99.63
3938.00,99.62
3937.00,99.62
3936.00,99.60
3935.00,99.59
3934.00,99.58
3933.00,99.58
3932.00,99.57
3931.00,99.57
3930.00,99.57
3929.00,99.57
3928.00,99.58
3927.00,99.59
3926.00,99.61
3925.00,99.61
3924.00,99.60
3923.00,99.59
3922.00,99.57
3921.00,99.57
3920.00,99.57
3919.00,99.58
3918.00,99.57
3917.00,99.57
3916.00,99.56
3915.00,99.57
3914.00,99.59
3913.00,99.61
3912.00,99.64
3911.00,99.65
3910.00,99.64
3909.00,99.61
3908.00,99.58
3907.00,99.55
3906.00,99.52
3905.00,99.51
3904.00,99.50
3903.00,99.49
3902.00,99.48
3901.00,99.48
3900.00,99.50
3899.00,99.53
3898.00,99.55
3897.00,99.56
3896.00,99.56
3895.00,99.54
3894.00,99.52
3893.00,99.51
3892.00,99.51
3891.00,99.51
3890.00,99.50
3889.00,99.47
3888.00,99.45
3887.00,99.44
3886.00,99.46
3885.00,99.47
3884.00,99.46
3883.00,99.44
3882.00,99.44
3881.00,99.47
3880.00,99.50
3879.00,99.51
3878.00,99.51
3877.00,99.50
3876.00,99.49
3875.00,99.48
3874.00,99.47
3873.00,99.44
3872.00,99.43
3871.00,99.46
3870.00,99.52
3869.00,99.55
3868.00,99.53
3867.00,99.51
3866.00,99.51
3865.00,99.53
3864.00,99.55
3863.00,99.55
3862.00,99.54
3861.00,99.53
3860.00,99.53
3859.00,99.52
3858.00,99.52
3857.00,99.50
3856.00,99.49
3855.00,99.52
3854.00,99.55
3853.00,99.55
3852.00,99.52
3851.00,99.49
3850.00,99.47
3849.00,99.48
3848.00,99.49
3847.00,99.51
3846.00,99.52
3845.00,99.52
3844.00,99.51
3843.00,99.49
3842.00,99.47
3841.00,99.44
3840.00,99.42
3839.00,99.41
3838.00,99.40
3837.00,99.41
3836.00,99.41
3835.00,99.43
3834.00,99.44
3833.00,99.46
3832.00,99.49
3831.00,99.50
3830.00,99.51
3829.00,99.50
3828.00,99.49
3827.00,99.49
3826.00,99.49
3825.00,99.45
3824.00,99.40
3823.00,99.38
3822.00,99.39
3821.00,99.44
3820.00,99.47
3819.00,99.48
3818.00,99.48
3817.00,99.50
3816.00,99.52
3815.00,99.52
3814.00,99.50
3813.00,99.49
3812.00,99.49
3811.00,99.49
3810.00,99.49
3809.00,99.49
3808.00,99.49
3807.00,99.50
3806.00,99.50
3805.00,99.48
3804.00,99.46
3803.00,99.44
3802.00,99.44
3801.00,99.43
3800.00,99.41
3799.00,99.40
3798.00,99.41
3797.00,99.43
3796.00,99.44
3795.00,99.44
3794.00,99.43
3793.00,99.44
3792.00,99.45
3791.00,99.47
3790.00,99.49
3789.00,99.50
3788.00,99.50
3787.00,99.50
3786.00,99.49
3785.00,99.49
3784.00,99.49
3783.00,99.48
3782.00,99.44
3781.00,99.40
3780.00,99.37
3779.00,99.35
3778.00,99.36
3777.00,99.38
3776.00,99.41
3775.00,99.43
3774.00,99.42
3773.00,99.39
3772.00,99.35
3771.00,99.33
3770.00,99.32
3769.00,99.31
3768.00,99.32
3767.00,99.33
3766.00,99.35
3765.00,99.36
3764.00,99.36
3763.00,99.34
3762.00,99.32
3761.00,99.32
3760.00,99.34
3759.00,99.35
3758.00,99.36
3757.00,99.35
3756.00,99.33
3755.00,99.31
3754.00,99.29
3753.00,99.29
3752.00,99.29
3751.00,99.27
3750.00,99.26
3749.00,99.25
3748.00,99.24
3747.00,99.22
3746.00,99.23
3745.00,99.26
3744.00,99.26
3743.00,99.24
3742.00,99.22
3741.00,99.23
3740.00,99.26
3739.00,99.29
3738.00,99.30
3737.00,99.30
3736.00,99.29
3735.00,99.27
3734.00,99.27
3733.00,99.30
3732.00,99.34
3731.00,99.36
3730.00,99.35
3729.00,99.32
3728.00,99.30
3727.00,99.29
3726.00,99.29
3725.00,99.29
3724.00,99.29
3723.00,99.27
3722.00,99.26
3721.00,99.25
3720.00,99.24
3719.00,99.23
3718.00,99.22
3717.00,99.21
3716.00,99.19
3715.00,99.17
3714.00,99.15
3713.00,99.12
3712.00,99.08
3711.00,99.03
3710.00,99.01
3709.00,99.02
3708.00,99.04
3707.00,99.05
3706.00,99.06
3705.00,99.06
3704.00,99.06
3703.00,99.07
3702.00,99.08
3701.00,99.06
3700.00,99.03
3699.00,99.00
3698.00,98.98
3697.00,98.96
3696.00,98.93
3695.00,98.89
3694.00,98.85
3693.00,98.83
3692.00,98.83
3691.00,98.82
3690.00,98.81
3689.00,98.80
3688.00,98.79
3687.00,98.79
3686.00,98.79
3685.00,98.80
3684.00,98.79
3683.00,98.78
3682.00,98.75
3681.00,98.72
3680.00,98.68
3679.00,98.62
3678.00,98.55
3677.00,98.49
3676.00,98.44
3675.00,98.39
3674.00,98.34
3673.00,98.29
3672.00,98.26
3671.00,98.26
3670.00,98.27
3669.00,98.26
3668.00,98.24
3667.00,98.21
3666.00,98.19
3665.00,98.17
3664.00,98.15
3663.00,98.13
3662.00,98.10
3661.00,98.05
3660.00,97.99
3659.00,97.91
3658.00,97.83
3657.00,97.76
3656.00,97.72
3655.00,97.67
3654.00,97.61
3653.00,97.55
3652.00,97.49
3651.00,97.43
3650.00,97.35
3649.00,97.26
3648.00,97.19
3647.00,97.16
3646.00,97.15
3645.00,97.13
3644.00,97.11
3643.00,97.08
3642.00,97.05
3641.00,97.03
3640.00,97.01
3639.00,96.98
3638.00,96.93
3637.00,96.86
3636.00,96.78
3635.00,96.70
3634.00,96.63
3633.00,96.56
3632.00,96.47
3631.00,96.37
3630.00,96.29
3629.00,96.22
3628.00,96.16
3627.00,96.12
3626.00,96.09
3625.00,96.06
3624.00,96.02
3623.00,95.95
3622.00,95.86
3621.00,95.75
3620.00,95.66
3619.00,95.60
3618.00,95.58
3617.00,95.54
3616.00,95.48
3615.00,95.39
3614.00,95.29
3613.00,95.20
3612.00,95.14
3611.00,95.08
3610.00,95.04
3609.00,95.00
3608.00,94.94
3607.00,94.87
3606.00,94.80
3605.00,94.72
3604.00,94.65
3603.00,94.58
3602.00,94.52
3601.00,94.45
3600.00,94.38
3599.00,94.32
3598.00,94.25
3597.00,94.19
3596.00,94.13
3595.00,94.08
3594.00,94.02
3593.00,93.96
3592.00,93.90
3591.00,93.84
3590.00,93.76
3589.00,93.67
3588.00,93.57
3587.00,93.49
3586.00,93.44
3585.00,93.40
3584.00,93.36
3583.00,93.31
3582.00,93.24
3581.00,93.17
3580.00,93.11
3579.00,93.05
3578.00,92.99
3577.00,92.92
3576.00,92.85
3575.00,92.77
3574.00,92.70
3573.00,92.63
3572.00,92.56
3571.00,92.49
3570.00,92.43
3569.00,92.36
3568.00,92.28
3567.00,92.19
3566.00,92.11
3565.00,92.05
3564.00,91.99
3563.00,91.93
3562.00,91.86
3561.00,91.78
3560.00,91.70
3559.00,91.63
3558.00,91.54
3557.00,91.46
3556.00,91.37
3555.00,91.29
3554.00,91.21
3553.00,91.13
3552.00,91.06
3551.00,90.99
3550.00,90.91
3549.00,90.84
3548.00,90.77
3547.00,90.68
3546.00,90.61
3545.00,90.54
3544.00,90.48
3543.00,90.42
3542.00,90.36
3541.00,90.31
3540.00,90.26
3539.00,90.22
3538.00,90.17
3537.00,90.11
3536.00,90.02
3535.00,89.92
3534.00,89.82
3533.00,89.73
3532.00,89.65
3531.00,89.56
3530.00,89.49
3529.00,89.42
3528.00,89.36
3527.00,89.29
3526.00,89.22
3525.00,89.16
3524.00,89.10
3523.00,89.06
3522.00,89.00
3521.00,88.93
3520.00,88.86
3519.00,88.78
3518.00,88.70
3517.00,88.62
3516.00,88.54
3515.00,88.46
3514.00,88.40
3513.00,88.35
3512.00,88.29
3511.00,88.22
3510.00,88.15
3509.00,88.07
3508.00,88.00
3507.00,87.94
3506.00,87.88
3505.00,87.82
3504.00,87.76
3503.00,87.70
3502.00,87.64
3501.00,87.58
3500.00,87.50
3499.00,87.42
3498.00,87.35
3497.00,87.29
3496.00,87.25
3495.00,87.21
3494.00,87.17
3493.00,87.11
3492.00,87.05
3491.00,87.00
3490.00,86.96
3489.00,86.92
3488.00,86.88
3487.00,86.84
3486.00,86.79
3485.00,86.73
3484.00,86.66
3483.00,86.58
3482.00,86.49
3481.00,86.40
3480.00,86.31
3479.00,86.24
3478.00,86.16
3477.00,86.09
3476.00,86.02
3475.00,85.97
3474.00,85.93
3473.00,85.88
3472.00,85.84
3471.00,85.78
3470.00,85.72
3469.00,85.65
3468.00,85.59
3467.00,85.54
3466.00,85.50
3465.00,85.46
3464.00,85.42
3463.00,85.37
3462.00,85.32
3461.00,85.25
3460.00,85.17
3459.00,85.10
3458.00,85.04
3457.00,85.00
3456.00,84.97
3455.00,84.93
3454.00,84.88
3453.00,84.82
3452.00,84.76
3451.00,84.70
3450.00,84.65
3449.00,84.60
3448.00,84.55
3447.00,84.50
3446.00,84.45
3445.00,84.40
3444.00,84.35
3443.00,84.31
3442.00,84.27
3441.00,84.23
3440.00,84.17
3439.00,84.12
3438.00,84.08
3437.00,84.06
3436.00,84.03
3435.00,84.00
3434.00,83.94
3433.00,83.87
3432.00,83.80
3431.00,83.72
3430.00,83.66
3429.00,83.61
3428.00,83.57
3427.00,83.54
3426.00,83.50
3425.00,83.45
3424.00,83.38
3423.00,83.31
3422.00,83.25
3421.00,83.19
3420.00,83.15
3419.00,83.11
3418.00,83.07
3417.00,83.03
3416.00,82.99
3415.00,82.95
3414.00,82.90
3413.00,82.85
3412.00,82.82
3411.00,82.79
3410.00,82.76
3409.00,82.72
3408.00,82.66
3407.00,82.60
3406.00,82.55
3405.00,82.52
3404.00,82.50
3403.00,82.47
3402.00,82.43
3401.00,82.38
3400.00,82.33
3399.00,82.27
3398.00,82.23
3397.00,82.21
3396.00,82.19
3395.00,82.17
3394.00,82.14
3393.00,82.10
3392.00,82.07
3391.00,82.05
3390.00,82.02
3389.00,81.99
3388.00,81.95
3387.00,81.91
3386.00,81.86
3385.00,81.82
3384.00,81.78
3383.00,81.74
3382.00,81.70
3381.00,81.67
3380.00,81.64
3379.00,81.62
3378.00,81.58
3377.00,81.54
3376.00,81.52
3375.00,81.50
3374.00,81.49
3373.00,81.46
3372.00,81.43
3371.00,81.39
3370.00,81.35
3369.00,81.32
3368.00,81.29
3367.00,81.25
3366.00,81.21
3365.00,81.17
3364.00,81.15
3363.00,81.13
3362.00,81.11
3361.00,81.09
3360.00,81.05
3359.00,81.02
3358.00,80.98
3357.00,80.96
3356.00,80.93
3355.00,80.90
3354.00,80.87
3353.00,80.83
3352.00,80.80
3351.00,80.77
3350.00,80.74
3349.00,80.70
3348.00,80.65
3347.00,80.61
3346.00,80.58
3345.00,80.57
3344.00,80.55
3343.00,80.52
3342.00,80.49
3341.00,80.46
3340.00,80.44
3339.00,80.42
3338.00,80.40
3337.00,80.38
3336.00,80.36
3335.00,80.34
3334.00,80.31
3333.00,80.28
3332.00,80.25
3331.00,80.20
3330.00,80.15
3329.00,80.11
3328.00,80.07
3327.00,80.05
3326.00,80.03
3325.00,80.00
3324.00,79.97
3323.00,79.93
3322.00,79.88
3321.00,79.84
3320.00,79.80
3319.00,79.76
3318.00,79.73
3317.00,79.69
3316.00,79.65
3315.00,79.60
3314.00,79.55
3313.00,79.49
3312.00,79.44
3311.00,79.39
3310.00,79.35
3309.00,79.32
3308.00,79.29
3307.00,79.26
3306.00,79.23
3305.00,79.19
3304.00,79.14
3303.00,79.10
3302.00,79.07
3301.00,79.05
3300.00,79.03
3299.00,79.00
3298.00,78.97
3297.00,78.93
3296.00,78.90
3295.00,78.88
3294.00,78.86
3293.00,78.84
3292.00,78.82
3291.00,78.79
3290.00,78.76
3289.00,78.72
3288.00,78.70
3287.00,78.68
3286.00,78.67
3285.00,78.66
3284.00,78.67
3283.00,78.67
3282.00,78.68
3281.00,78.67
3280.00,78.65
3279.00,78.62
3278.00,78.60
3277.00,78.60
3276.00,78.62
3275.00,78.67
3274.00,78.71
3273.00,78.73
3272.00,78.75
3271.00,78.76
3270.00,78.78
3269.00,78.80
3268.00,78.84
3267.00,78.89
3266.00,78.94
3265.00,78.99
3264.00,79.03
3263.00,79.08
3262.00,79.12
3261.00,79.17
3260.00,79.21
3259.00,79.25
3258.00,79.28
3257.00,79.30
3256.00,79.34
3255.00,79.39
3254.00,79.46
3253.00,79.53
3252.00,79.59
3251.00,79.65
3250.00,79.69
3249.00,79.74
3248.00,79.78
3247.00,79.82
3246.00,79.86
3245.00,79.91
3244.00,79.97
3243.00,80.04
3242.00,80.10
3241.00,80.15
3240.00,80.19
3239.00,80.23
3238.00,80.28
3237.00,80.33
3236.00,80.38
3235.00,80.43
3234.00,80.48
3233.00,80.52
3232.00,80.56
3231.00,80.60
3230.00,80.64
3229.00,80.67
3228.00,80.71
3227.00,80.76
3226.00,80.80
3225.00,80.84
3224.00,80.88
3223.00,80.92
3222.00,80.97
3221.00,81.03
3220.00,81.09
3219.00,81.12
3218.00,81.15
3217.00,81.19
3216.00,81.25
3215.00,81.33
3214.00,81.40
3213.00,81.44
3212.00,81.47
3211.00,81.49
3210.00,81.53
3209.00,81.57
3208.00,81.61
3207.00,81.65
3206.00,81.68
3205.00,81.72
3204.00,81.76
3203.00,81.81
3202.00,81.87
3201.00,81.93
3200.00,81.99
3199.00,82.05
3198.00,82.10
3197.00,82.15
3196.00,82.21
3195.00,82.28
3194.00,82.35
3193.00,82.41
3192.00,82.49
3191.00,82.56
3190.00,82.63
3189.00,82.69
3188.00,82.74
3187.00,82.77
3186.00,82.82
3185.00,82.89
3184.00,82.98
3183.00,83.07
3182.00,83.14
3181.00,83.22
3180.00,83.29
3179.00,83.37
3178.00,83.44
3177.00,83.51
3176.00,83.58
3175.00,83.65
3174.00,83.72
3173.00,83.78
3172.00,83.84
3171.00,83.89
3170.00,83.96
3169.00,84.04
3168.00,84.12
3167.00,84.21
3166.00,84.29
3165.00,84.36
3164.00,84.43
3163.00,84.50
3162.00,84.55
3161.00,84.62
3160.00,84.69
3159.00,84.77
3158.00,84.85
3157.00,84.92
3156.00,85.00
3155.00,85.06
3154.00,85.12
3153.00,85.19
3152.00,85.26
3151.00,85.34
3150.00,85.42
3149.00,85.50
3148.00,85.56
3147.00,85.60
3146.00,85.65
3145.00,85.71
3144.00,85.79
3143.00,85.87
3142.00,85.93
3141.00,85.99
3140.00,86.04
3139.00,86.09
3138.00,86.15
3137.00,86.21
3136.00,86.27
3135.00,86.32
3134.00,86.37
3133.00,86.41
3132.00,86.44
3131.00,86.48
3130.00,86.53
3129.00,86.58
3128.00,86.63
3127.00,86.69
3126.00,86.74
3125.00,86.78
3124.00,86.83
3123.00,86.88
3122.00,86.93
3121.00,86.99
3120.00,87.04
3119.00,87.09
3118.00,87.12
3117.00,87.15
3116.00,87.18
3115.00,87.20
3114.00,87.22
3113.00,87.25
3112.00,87.28
3111.00,87.31
3110.00,87.35
3109.00,87.38
3108.00,87.40
3107.00,87.42
3106.00,87.44
3105.00,87.47
3104.00,87.51
3103.00,87.55
3102.00,87.57
3101.00,87.58
3100.00,87.58
3099.00,87.58
3098.00,87.60
3097.00,87.62
3096.00,87.64
3095.00,87.66
3094.00,87.68
3093.00,87.69
3092.00,87.71
3091.00,87.72
3090.00,87.73
3089.00,87.73
3088.00,87.74
3087.00,87.76
3086.00,87.79
3085.00,87.82
3084.00,87.85
3083.00,87.86
3082.00,87.87
3081.00,87.87
3080.00,87.86
3079.00,87.86
3078.00,87.87
3077.00,87.89
3076.00,87.91
3075.00,87.93
3074.00,87.94
3073.00,87.96
3072.00,87.98
3071.00,88.00
3070.00,88.03
3069.00,88.06
3068.00,88.09
3067.00,88.11
3066.00,88.12
3065.00,88.13
3064.00,88.15
3063.00,88.18
3062.00,88.23
3061.00,88.28
3060.00,88.35
3059.00,88.40
3058.00,88.44
3057.00,88.48
3056.00,88.52
3055.00,88.56
3054.00,88.60
3053.00,88.64
3052.00,88.68
3051.00,88.73
3050.00,88.79
3049.00,88.85
3048.00,88.91
3047.00,88.97
3046.00,89.01
3045.00,89.05
3044.00,89.10
3043.00,89.14
3042.00,89.19
3041.00,89.24
3040.00,89.29
3039.00,89.34
3038.00,89.38
3037.00,89.41
3036.00,89.45
3035.00,89.50
3034.00,89.55
3033.00,89.61
3032.00,89.67
3031.00,89.73
3030.00,89.79
3029.00,89.85
3028.00,89.91
3027.00,89.96
3026.00,89.99
3025.00,90.02
3024.00,90.04
3023.00,90.07
3022.00,90.11
3021.00,90.16
3020.00,90.21
3019.00,90.26
3018.00,90.30
3017.00,90.34
3016.00,90.38
3015.00,90.43
3014.00,90.47
3013.00,90.49
3012.00,90.50
3011.00,90.51
3010.00,90.51
3009.00,90.52
3008.00,90.52
3007.00,90.53
3006.00,90.54
3005.00,90.55
3004.00,90.56
3003.00,90.55
3002.00,90.54
3001.00,90.53
3000.00,90.52
2999.00,90.52
2998.00,90.50
2997.00,90.47
2996.00,90.43
2995.00,90.38
2994.00,90.32
2993.00,90.25
2992.00,90.18
2991.00,90.11
2990.00,90.02
2989.00,89.91
2988.00,89.81
2987.00,89.70
2986.00,89.61
2985.00,89.51
2984.00,89.41
2983.00,89.29
2982.00,89.16
2981.00,89.01
2980.00,88.84
2979.00,88.66
2978.00,88.47
2977.00,88.29
2976.00,88.10
2975.00,87.91
2974.00,87.71
2973.00,87.50
2972.00,87.29
2971.00,87.07
2970.00,86.85
2969.00,86.63
2968.00,86.40
2967.00,86.19
2966.00,85.98
2965.00,85.78
2964.00,85.60
2963.00,85.43
2962.00,85.27
2961.00,85.13
2960.00,85.01
2959.00,84.90
2958.00,84.81
2957.00,84.73
2956.00,84.67
2955.00,84.63
2954.00,84.61
2953.00,84.61
2952.00,84.64
2951.00,84.68
2950.00,84.73
2949.00,84.76
2948.00,84.78
2947.00,84.75
2946.00,84.68
2945.00,84.57
2944.00,84.43
2943.00,84.27
2942.00,84.07
2941.00,83.83
2940.00,83.55
2939.00,83.22
2938.00,82.87
2937.00,82.51
2936.00,82.15
2935.00,81.78
2934.00,81.42
2933.00,81.05
2932.00,80.67
2931.00,80.27
2930.00,79.86
2929.00,79.43
2928.00,79.01
2927.00,78.59
2926.00,78.19
2925.00,77.81
2924.00,77.43
2923.00,77.08
2922.00,76.76
2921.00,76.48
2920.00,76.28
2919.00,76.18
2918.00,76.22
2917.00,76.46
2916.00,76.92
2915.00,77.61
2914.00,78.45
2913.00,79.36
2912.00,80.24
2911.00,81.06
2910.00,81.79
2909.00,82.43
2908.00,82.96
2907.00,83.42
2906.00,83.81
2905.00,84.15
2904.00,84.45
2903.00,84.73
2902.00,85.00
2901.00,85.24
2900.00,85.48
2899.00,85.69
2898.00,85.90
2897.00,86.10
2896.00,86.29
2895.00,86.48
2894.00,86.68
2893.00,86.89
2892.00,87.08
2891.00,87.25
2890.00,87.41
2889.00,87.56
2888.00,87.69
2887.00,87.83
2886.00,87.97
2885.00,88.11
2884.00,88.24
2883.00,88.34
2882.00,88.40
2881.00,88.44
2880.00,88.46
2879.00,88.47
2878.00,88.46
2877.00,88.44
2876.00,88.39
2875.00,88.34
2874.00,88.27
2873.00,88.22
2872.00,88.18
2871.00,88.16
2870.00,88.16
2869.00,88.17
2868.00,88.19
2867.00,88.21
2866.00,88.22
2865.00,88.22
2864.00,88.18
2863.00,88.08
2862.00,87.91
2861.00,87.66
2860.00,87.33
2859.00,86.93
2858.00,86.48
2857.00,85.97
2856.00,85.41
2855.00,84.82
2854.00,84.21
2853.00,83.62
2852.00,83.10
2851.00,82.77
2850.00,82.74
2849.00,83.10
2848.00,83.83
2847.00,84.83
2846.00,85.95
2845.00,87.05
2844.00,88.03
2843.00,88.89
2842.00,89.60
2841.00,90.20
2840.00,90.70
2839.00,91.11
2838.00,91.46
2837.00,91.75
2836.00,91.99
2835.00,92.21
2834.00,92.40
2833.00,92.58
2832.00,92.74
2831.00,92.89
2830.00,93.01
2829.00,93.11
2828.00,93.20
2827.00,93.30
2826.00,93.40
2825.00,93.48
2824.00,93.56
2823.00,93.63
2822.00,93.69
2821.00,93.76
2820.00,93.84
2819.00,93.91
2818.00,93.98
2817.00,94.03
2816.00,94.08
2815.00,94.13
2814.00,94.17
2813.00,94.21
2812.00,94.24
2811.00,94.27
2810.00,94.31
2809.00,94.36
2808.00,94.41
2807.00,94.45
2806.00,94.49
2805.00,94.54
2804.00,94.58
2803.00,94.64
2802.00,94.68
2801.00,94.72
2800.00,94.75
2799.00,94.78
2798.00,94.81
2797.00,94.85
2796.00,94.89
2795.00,94.93
2794.00,94.98
2793.00,95.02
2792.00,95.05
2791.00,95.08
2790.00,95.09
2789.00,95.11
2788.00,95.12
2787.00,95.14
2786.00,95.18
2785.00,95.21
2784.00,95.25
2783.00,95.28
2782.00,95.30
2781.00,95.31
2780.00,95.32
2779.00,95.34
2778.00,95.38
2777.00,95.43
2776.00,95.48
2775.00,95.51
2774.00,95.54
2773.00,95.56
2772.00,95.59
2771.00,95.60
2770.00,95.62
2769.00,95.63
2768.00,95.64
2767.00,95.64
2766.00,95.64
2765.00,95.64
2764.00,95.64
2763.00,95.66
2762.00,95.70
2761.00,95.74
2760.00,95.78
2759.00,95.82
2758.00,95.85
2757.00,95.87
2756.00,95.87
2755.00,95.87
2754.00,95.87
2753.00,95.87
2752.00,95.87
2751.00,95.88
2750.00,95.91
2749.00,95.94
2748.00,95.97
2747.00,96.00
2746.00,96.02
2745.00,96.02
2744.00,96.03
2743.00,96.05
2742.00,96.07
2741.00,96.09
2740.00,96.11
2739.00,96.12
2738.00,96.13
2737.00,96.14
2736.00,96.15
2735.00,96.16
2734.00,96.17
2733.00,96.18
2732.00,96.19
2731.00,96.20
2730.00,96.21
2729.00,96.22
2728.00,96.24
2727.00,96.26
2726.00,96.28
2725.00,96.30
2724.00,96.32
2723.00,96.33
2722.00,96.34
2721.00,96.36
2720.00,96.38
2719.00,96.40
2718.00,96.41
2717.00,96.42
2716.00,96.43
2715.00,96.46
2714.00,96.48
2713.00,96.49
2712.00,96.50
2711.00,96.50
2710.00,96.51
2709.00,96.52
2708.00,96.52
2707.00,96.53
2706.00,96.54
2705.00,96.56
2704.00,96.58
2703.00,96.59
2702.00,96.60
2701.00,96.61
2700.00,96.62
2699.00,96.63
2698.00,96.64
2697.00,96.65
2696.00,96.65
2695.00,96.67
2694.00,96.69
2693.00,96.71
2692.00,96.72
2691.00,96.73
2690.00,96.74
2689.00,96.76
2688.00,96.77
2687.00,96.77
2686.00,96.77
2685.00,96.76
2684.00,96.75
2683.00,96.76
2682.00,96.77
2681.00,96.79
2680.00,96.81
2679.00,96.82
2678.00,96.83
2677.00,96.84
2676.00,96.85
2675.00,96.85
2674.00,96.86
2673.00,96.86
2672.00,96.88
2671.00,96.91
2670.00,96.94
2669.00,96.95
2668.00,96.95
2667.00,96.93
2666.00,96.93
2665.00,96.93
2664.00,96.93
2663.00,96.94
2662.00,96.94
2661.00,96.95
2660.00,96.96
2659.00,96.98
2658.00,96.99
2657.00,97.00
2656.00,97.00
2655.00,97.00
2654.00,96.99
2653.00,96.99
2652.00,97.00
2651.00,97.00
2650.00,97.00
2649.00,96.99
2648.00,96.98
2647.00,96.98
2646.00,96.98
2645.00,96.99
2644.00,97.00
2643.00,97.01
2642.00,97.02
2641.00,97.02
2640.00,97.01
2639.00,96.99
2638.00,96.99
2637.00,96.99
2636.00,97.01
2635.00,97.04
2634.00,97.07
2633.00,97.08
2632.00,97.08
2631.00,97.08
2630.00,97.08
2629.00,97.09
2628.00,97.09
2627.00,97.08
2626.00,97.07
2625.00,97.05
2624.00,97.04
2623.00,97.05
2622.00,97.07
2621.00,97.07
2620.00,97.07
2619.00,97.07
2618.00,97.07
2617.00,97.09
2616.00,97.10
2615.00,97.12
2614.00,97.14
2613.00,97.15
2612.00,97.17
2611.00,97.18
2610.00,97.18
2609.00,97.18
2608.00,97.19
2607.00,97.21
2606.00,97.22
2605.00,97.22
2604.00,97.21
2603.00,97.20
2602.00,97.20
2601.00,97.21
2600.00,97.21
2599.00,97.22
2598.00,97.22
2597.00,97.21
2596.00,97.22
2595.00,97.23
2594.00,97.25
2593.00,97.29
2592.00,97.32
2591.00,97.34
2590.00,97.34
2589.00,97.33
2588.00,97.32
2587.00,97.30
2586.00,97.30
2585.00,97.30
2584.00,97.30
2583.00,97.30
2582.00,97.29
2581.00,97.29
2580.00,97.30
2579.00,97.32
2578.00,97.34
2577.00,97.36
2576.00,97.36
2575.00,97.36
2574.00,97.36
2573.00,97.37
2572.00,97.38
2571.00,97.40
2570.00,97.42
2569.00,97.43
2568.00,97.44
2567.00,97.44
2566.00,97.43
2565.00,97.42
2564.00,97.41
2563.00,97.41
2562.00,97.41
2561.00,97.41
2560.00,97.41
2559.00,97.41
2558.00,97.40
2557.00,97.39
2556.00,97.38
2555.00,97.38
2554.00,97.39
2553.00,97.40
2552.00,97.41
2551.00,97.41
2550.00,97.41
2549.00,97.41
2548.00,97.43
2547.00,97.46
2546.00,97.47
2545.00,97.47
2544.00,97.48
2543.00,97.51
2542.00,97.56
2541.00,97.60
2540.00,97.62
2539.00,97.61
2538.00,97.58
2537.00,97.55
2536.00,97.54
2535.00,97.54
2534.00,97.55
2533.00,97.55
2532.00,97.55
2531.00,97.54
2530.00,97.53
2529.00,97.51
2528.00,97.49
2527.00,97.48
2526.00,97.47
2525.00,97.47
2524.00,97.49
2523.00,97.52
2522.00,97.56
2521.00,97.58
2520.00,97.59
2519.00,97.60
2518.00,97.60
2517.00,97.59
2516.00,97.56
2515.00,97.54
2514.00,97.52
2513.00,97.51
2512.00,97.52
2511.00,97.53
2510.00,97.54
2509.00,97.56
2508.00,97.58
2507.00,97.59
2506.00,97.60
2505.00,97.58
2504.00,97.56
2503.00,97.54
2502.00,97.54
2501.00,97.54
2500.00,97.54
2499.00,97.54
2498.00,97.55
2497.00,97.54
2496.00,97.54
2495.00,97.54
2494.00,97.56
2493.00,97.58
2492.00,97.58
2491.00,97.58
2490.00,97.56
2489.00,97.56
2488.00,97.58
2487.00,97.61
2486.00,97.64
2485.00,97.67
2484.00,97.69
2483.00,97.70
2482.00,97.68
2481.00,97.64
2480.00,97.61
2479.00,97.61
2478.00,97.63
2477.00,97.64
2476.00,97.65
2475.00,97.66
2474.00,97.67
2473.00,97.69
2472.00,97.70
2471.00,97.70
2470.00,97.68
2469.00,97.67
2468.00,97.67
2467.00,97.69
2466.00,97.70
2465.00,97.69
2464.00,97.68
2463.00,97.68
2462.00,97.69
2461.00,97.70
2460.00,97.70
2459.00,97.68
2458.00,97.65
2457.00,97.63
2456.00,97.62
2455.00,97.63
2454.00,97.65
2453.00,97.68
2452.00,97.71
2451.00,97.72
2450.00,97.72
2449.00,97.71
2448.00,97.70
2447.00,97.69
2446.00,97.69
2445.00,97.70
2444.00,97.72
2443.00,97.72
2442.00,97.72
2441.00,97.70
2440.00,97.69
2439.00,97.70
2438.00,97.72
2437.00,97.75
2436.00,97.76
2435.00,97.76
2434.00,97.76
2433.00,97.75
2432.00,97.75
2431.00,97.76
2430.00,97.78
2429.00,97.79
2428.00,97.79
2427.00,97.78
2426.00,97.77
2425.00,97.77
2424.00,97.78
2423.00,97.79
2422.00,97.80
2421.00,97.82
2420.00,97.82
2419.00,97.82
2418.00,97.81
2417.00,97.79
2416.00,97.79
2415.00,97.79
2414.00,97.80
2413.00,97.79
2412.00,97.79
2411.00,97.80
2410.00,97.82
2409.00,97.83
2408.00,97.84
2407.00,97.84
2406.00,97.85
2405.00,97.87
2404.00,97.87
2403.00,97.86
2402.00,97.84
2401.00,97.82
2400.00,97.83
2399.00,97.84
2398.00,97.86
2397.00,97.85
2396.00,97.83
2395.00,97.82
2394.00,97.82
2393.00,97.82
2392.00,97.83
2391.00,97.84
2390.00,97.86
2389.00,97.89
2388.00,97.91
2387.00,97.92
2386.00,97.93
2385.00,97.95
2384.00,97.97
2383.00,98.01
2382.00,98.05
2381.00,98.08
2380.00,98.08
2379.00,98.09
2378.00,98.11
2377.00,98.15
2376.00,98.19
2375.00,98.23
2374.00,98.28
2373.00,98.32
2372.00,98.34
2371.00,98.34
2370.00,98.32
2369.00,98.29
2368.00,98.27
2367.00,98.28
2366.00,98.29
2365.00,98.28
2364.00,98.26
2363.00,98.29
2362.00,98.35
2361.00,98.40
2360.00,98.38
2359.00,98.32
2358.00,98.28
2357.00,98.28
2356.00,98.30
2355.00,98.30
2354.00,98.27
2353.00,98.26
2352.00,98.27
2351.00,98.30
2350.00,98.33
2349.00,98.35
2348.00,98.38
2347.00,98.43
2346.00,98.48
2345.00,98.49
2344.00,98.45
2343.00,98.39
2342.00,98.34
2341.00,98.28
2340.00,98.22
2339.00,98.17
2338.00,98.14
2337.00,98.13
2336.00,98.14
2335.00,98.16
2334.00,98.16
2333.00,98.13
2332.00,98.11
2331.00,98.11
2330.00,98.11
2329.00,98.08
2328.00,98.03
2327.00,97.98
2326.00,97.93
2325.00,97.90
2324.00,97.90
2323.00,97.93
2322.00,97.95
2321.00,97.95
2320.00,97.93
2319.00,97.89
2318.00,97.84
2317.00,97.80
2316.00,97.77
2315.00,97.78
2314.00,97.80
2313.00,97.83
2312.00,97.84
2311.00,97.85
2310.00,97.85
2309.00,97.83
2308.00,97.80
2307.00,97.77
2306.00,97.75
2305.00,97.72
2304.00,97.71
2303.00,97.70
2302.00,97.70
2301.00,97.68
2300.00,97.67
2299.00,97.67
2298.00,97.66
2297.00,97.65
2296.00,97.62
2295.00,97.61
2294.00,97.61
2293.00,97.60
2292.00,97.59
2291.00,97.56
2290.00,97.52
2289.00,97.47
2288.00,97.43
2287.00,97.41
2286.00,97.41
2285.00,97.41
2284.00,97.41
2283.00,97.39
2282.00,97.36
2281.00,97.34
2280.00,97.35
2279.00,97.37
2278.00,97.40
2277.00,97.40
2276.00,97.39
2275.00,97.38
2274.00,97.37
2273.00,97.36
2272.00,97.34
2271.00,97.32
2270.00,97.32
2269.00,97.33
2268.00,97.36
2267.00,97.39
2266.00,97.39
2265.00,97.36
2264.00,97.31
2263.00,97.27
2262.00,97.25
2261.00,97.24
2260.00,97.24
2259.00,97.26
2258.00,97.28
2257.00,97.30
2256.00,97.31
2255.00,97.32
2254.00,97.33
2253.00,97.31
2252.00,97.27
2251.00,97.21
2250.00,97.18
2249.00,97.19
2248.00,97.23
2247.00,97.26
2246.00,97.26
2245.00,97.23
2244.00,97.21
2243.00,97.20
2242.00,97.20
2241.00,97.19
2240.00,97.18
2239.00,97.17
2238.00,97.16
2237.00,97.14
2236.00,97.12
2235.00,97.11
2234.00,97.10
2233.00,97.09
2232.00,97.08
2231.00,97.07
2230.00,97.06
2229.00,97.04
2228.00,97.03
2227.00,97.03
2226.00,97.05
2225.00,97.10
2224.00,97.15
2223.00,97.19
2222.00,97.17
2221.00,97.10
2220.00,97.02
2219.00,96.97
2218.00,96.95
2217.00,96.94
2216.00,96.93
2215.00,96.93
2214.00,96.93
2213.00,96.91
2212.00,96.87
2211.00,96.83
2210.00,96.81
2209.00,96.80
2208.00,96.79
2207.00,96.79
2206.00,96.80
2205.00,96.84
2204.00,96.88
2203.00,96.93
2202.00,96.95
2201.00,96.93
2200.00,96.91
2199.00,96.91
2198.00,96.92
2197.00,96.93
2196.00,96.90
2195.00,96.86
2194.00,96.81
2193.00,96.77
2192.00,96.74
2191.00,96.74
2190.00,96.75
2189.00,96.76
2188.00,96.77
2187.00,96.76
2186.00,96.73
2185.00,96.68
2184.00,96.66
2183.00,96.68
2182.00,96.74
2181.00,96.80
2180.00,96.85
2179.00,96.87
2178.00,96.84
2177.00,96.79
2176.00,96.72
2175.00,96.69
2174.00,96.69
2173.00,96.70
2172.00,96.70
2171.00,96.68
2170.00,96.64
2169.00,96.58
2168.00,96.52
2167.00,96.49
2166.00,96.46
2165.00,96.42
2164.00,96.38
2163.00,96.37
2162.00,96.42
2161.00,96.54
2160.00,96.70
2159.00,96.85
2158.00,96.95
2157.00,96.99
2156.00,96.98
2155.00,96.94
2154.00,96.89
2153.00,96.86
2152.00,96.86
2151.00,96.87
2150.00,96.88
2149.00,96.86
2148.00,96.86
2147.00,96.90
2146.00,96.93
2145.00,96.95
2144.00,96.96
2143.00,97.00
2142.00,97.05
2141.00,97.08
2140.00,97.09
2139.00,97.09
2138.00,97.10
2137.00,97.11
2136.00,97.15
2135.00,97.21
2134.00,97.27
2133.00,97.30
2132.00,97.31
2131.00,97.29
2130.00,97.27
2129.00,97.26
2128.00,97.28
2127.00,97.32
2126.00,97.36
2125.00,97.37
2124.00,97.35
2123.00,97.32
2122.00,97.29
2121.00,97.28
2120.00,97.29
2119.00,97.31
2118.00,97.31
2117.00,97.27
2116.00,97.23
2115.00,97.21
2114.00,97.22
2113.00,97.23
2112.00,97.22
2111.00,97.21
2110.00,97.21
2109.00,97.20
2108.00,97.20
2107.00,97.19
2106.00,97.19
2105.00,97.20
2104.00,97.20
2103.00,97.21
2102.00,97.22
2101.00,97.22
2100.00,97.21
2099.00,97.19
2098.00,97.18
2097.00,97.17
2096.00,97.19
2095.00,97.22
2094.00,97.26
2093.00,97.28
2092.00,97.30
2091.00,97.31
2090.00,97.33
2089.00,97.33
2088.00,97.33
2087.00,97.32
2086.00,97.31
2085.00,97.27
2084.00,97.23
2083.00,97.21
2082.00,97.21
2081.00,97.20
2080.00,97.21
2079.00,97.22
2078.00,97.24
2077.00,97.26
2076.00,97.26
2075.00,97.27
2074.00,97.28
2073.00,97.27
2072.00,97.24
2071.00,97.24
2070.00,97.25
2069.00,97.27
2068.00,97.29
2067.00,97.32
2066.00,97.35
2065.00,97.36
2064.00,97.33
2063.00,97.28
2062.00,97.23
2061.00,97.21
2060.00,97.21
2059.00,97.24
2058.00,97.26
2057.00,97.27
2056.00,97.28
2055.00,97.29
2054.00,97.29
2053.00,97.26
2052.00,97.22
2051.00,97.19
2050.00,97.18
2049.00,97.16
2048.00,97.14
2047.00,97.12
2046.00,97.10
2045.00,97.10
2044.00,97.10
2043.00,97.12
2042.00,97.14
2041.00,97.13
2040.00,97.12
2039.00,97.08
2038.00,97.01
2037.00,96.94
2036.00,96.90
2035.00,96.93
2034.00,96.99
2033.00,97.03
2032.00,97.05
2031.00,97.06
2030.00,97.07
2029.00,97.06
2028.00,97.06
2027.00,97.11
2026.00,97.20
2025.00,97.29
2024.00,97.34
2023.00,97.35
2022.00,97.31
2021.00,97.23
2020.00,97.14
2019.00,97.09
2018.00,97.08
2017.00,97.12
2016.00,97.16
2015.00,97.18
2014.00,97.15
2013.00,97.12
2012.00,97.12
2011.00,97.17
2010.00,97.23
2009.00,97.27
2008.00,97.29
2007.00,97.33
2006.00,97.37
2005.00,97.40
2004.00,97.40
2003.00,97.37
2002.00,97.32
2001.00,97.29
2000.00,97.31
1999.00,97.37
1998.00,97.42
1997.00,97.40
1996.00,97.34
1995.00,97.30
1994.00,97.30
1993.00,97.31
1992.00,97.31
1991.00,97.29
1990.00,97.26
1989.00,97.23
1988.00,97.23
1987.00,97.24
1986.00,97.23
1985.00,97.16
1984.00,97.08
1983.00,97.03
1982.00,97.02
1981.00,97.02
1980.00,97.01
1979.00,97.03
1978.00,97.07
1977.00,97.13
1976.00,97.21
1975.00,97.29
1974.00,97.34
1973.00,97.37
1972.00,97.37
1971.00,97.38
1970.00,97.37
1969.00,97.35
1968.00,97.33
1967.00,97.35
1966.00,97.36
1965.00,97.34
1964.00,97.30
1963.00,97.31
1962.00,97.35
1961.00,97.41
1960.00,97.47
1959.00,97.51
1958.00,97.52
1957.00,97.51
1956.00,97.51
1955.00,97.53
1954.00,97.57
1953.00,97.59
1952.00,97.60
1951.00,97.60
1950.00,97.58
1949.00,97.55
1948.00,97.51
1947.00,97.51
1946.00,97.53
1945.00,97.55
1944.00,97.57
1943.00,97.58
1942.00,97.60
1941.00,97.61
1940.00,97.62
1939.00,97.66
1938.00,97.69
1937.00,97.71
1936.00,97.72
1935.00,97.73
1934.00,97.72
1933.00,97.71
1932.00,97.70
1931.00,97.71
1930.00,97.74
1929.00,97.75
1928.00,97.76
1927.00,97.76
1926.00,97.75
1925.00,97.72
1924.00,97.69
1923.00,97.67
1922.00,97.67
1921.00,97.70
1920.00,97.75
1919.00,97.81
1918.00,97.84
1917.00,97.82
1916.00,97.80
1915.00,97.80
1914.00,97.81
1913.00,97.79
1912.00,97.75
1911.00,97.73
1910.00,97.74
1909.00,97.77
1908.00,97.81
1907.00,97.83
1906.00,97.82
1905.00,97.78
1904.00,97.75
1903.00,97.76
1902.00,97.80
1901.00,97.82
1900.00,97.82
1899.00,97.79
1898.00,97.75
1897.00,97.71
1896.00,97.69
1895.00,97.69
1894.00,97.70
1893.00,97.70
1892.00,97.71
1891.00,97.74
1890.00,97.78
1889.00,97.80
1888.00,97.80
1887.00,97.79
1886.00,97.79
1885.00,97.79
1884.00,97.79
1883.00,97.80
1882.00,97.81
1881.00,97.80
1880.00,97.79
1879.00,97.80
1878.00,97.81
1877.00,97.82
1876.00,97.83
1875.00,97.83
1874.00,97.81
1873.00,97.77
1872.00,97.73
1871.00,97.71
1870.00,97.70
1869.00,97.70
1868.00,97.71
1867.00,97.75
1866.00,97.79
1865.00,97.81
1864.00,97.81
1863.00,97.81
1862.00,97.81
1861.00,97.81
1860.00,97.82
1859.00,97.84
1858.00,97.86
1857.00,97.86
1856.00,97.85
1855.00,97.83
1854.00,97.82
1853.00,97.80
1852.00,97.78
1851.00,97.76
1850.00,97.74
1849.00,97.72
1848.00,97.73
1847.00,97.80
1846.00,97.88
1845.00,97.92
1844.00,97.89
1843.00,97.84
1842.00,97.79
1841.00,97.76
1840.00,97.74
1839.00,97.74
1838.00,97.76
1837.00,97.76
1836.00,97.76
1835.00,97.75
1834.00,97.74
1833.00,97.72
1832.00,97.69
1831.00,97.67
1830.00,97.67
1829.00,97.66
1828.00,97.65
1827.00,97.66
1826.00,97.68
1825.00,97.69
1824.00,97.68
1823.00,97.68
1822.00,97.68
1821.00,97.67
1820.00,97.66
1819.00,97.65
1818.00,97.66
1817.00,97.66
1816.00,97.65
1815.00,97.64
1814.00,97.62
1813.00,97.59
1812.00,97.56
1811.00,97.55
1810.00,97.55
1809.00,97.54
1808.00,97.53
1807.00,97.53
1806.00,97.53
1805.00,97.52
1804.00,97.50
1803.00,97.48
1802.00,97.47
1801.00,97.47
1800.00,97.46
1799.00,97.46
1798.00,97.44
1797.00,97.41
1796.00,97.38
1795.00,97.39
1794.00,97.40
1793.00,97.40
1792.00,97.38
1791.00,97.37
1790.00,97.36
1789.00,97.34
1788.00,97.33
1787.00,97.33
1786.00,97.31
1785.00,97.26
1784.00,97.19
1783.00,97.13
1782.00,97.09
1781.00,97.06
1780.00,97.03
1779.00,96.99
1778.00,96.94
1777.00,96.88
1776.00,96.82
1775.00,96.78
1774.00,96.76
1773.00,96.74
1772.00,96.71
1771.00,96.69
1770.00,96.66
1769.00,96.62
1768.00,96.54
1767.00,96.45
1766.00,96.37
1765.00,96.31
1764.00,96.27
1763.00,96.23
1762.00,96.17
1761.00,96.06
1760.00,95.96
1759.00,95.90
1758.00,95.86
1757.00,95.78
1756.00,95.66
1755.00,95.53
1754.00,95.43
1753.00,95.31
1752.00,95.13
1751.00,94.89
1750.00,94.64
1749.00,94.41
1748.00,94.18
1747.00,93.98
1746.00,93.77
1745.00,93.53
1744.00,93.28
1743.00,93.06
1742.00,92.88
1741.00,92.68
1740.00,92.42
1739.00,92.18
1738.00,92.03
1737.00,91.97
1736.00,91.95
1735.00,91.93
1734.00,91.89
1733.00,91.85
1732.00,91.85
1731.00,91.94
1730.00,92.07
1729.00,92.18
1728.00,92.24
1727.00,92.28
1726.00,92.31
1725.00,92.31
1724.00,92.26
1723.00,92.22
1722.00,92.19
1721.00,92.14
1720.00,92.03
1719.00,91.86
1718.00,91.68
1717.00,91.50
1716.00,91.35
1715.00,91.24
1714.00,91.15
1713.00,91.02
1712.00,90.86
1711.00,90.72
1710.00,90.56
1709.00,90.37
1708.00,90.13
1707.00,89.85
1706.00,89.53
1705.00,89.18
1704.00,88.92
1703.00,88.81
1702.00,88.70
1701.00,88.23
1700.00,87.40
1699.00,86.65
1698.00,86.17
1697.00,85.76
1696.00,85.23
1695.00,84.64
1694.00,84.14
1693.00,83.72
1692.00,83.28
1691.00,82.78
1690.00,82.24
1689.00,81.69
1688.00,81.23
1687.00,80.89
1686.00,80.55
1685.00,80.00
1684.00,79.28
1683.00,78.65
1682.00,78.20
1681.00,77.81
1680.00,77.42
1679.00,77.08
1678.00,76.81
1677.00,76.51
1676.00,76.04
1675.00,75.42
1674.00,74.86
1673.00,74.44
1672.00,74.10
1671.00,73.73
1670.00,73.27
1669.00,72.73
1668.00,72.22
1667.00,71.83
1666.00,71.53
1665.00,71.23
1664.00,70.80
1663.00,70.25
1662.00,69.70
1661.00,69.19
1660.00,68.74
1659.00,68.32
1658.00,67.93
1657.00,67.61
1656.00,67.34
1655.00,67.03
1654.00,66.46
1653.00,65.60
1652.00,64.92
1651.00,64.64
1650.00,64.53
1649.00,64.41
1648.00,64.18
1647.00,63.91
1646.00,63.67
1645.00,63.51
1644.00,63.39
1643.00,63.32
1642.00,63.27
1641.00,63.20
1640.00,63.12
1639.00,63.08
1638.00,63.08
1637.00,63.06
1636.00,62.97
1635.00,62.84
1634.00,62.75
1633.00,62.74
1632.00,62.78
1631.00,62.85
1630.00,62.91
1629.00,62.97
1628.00,63.03
1627.00,63.12
1626.00,63.27
1625.00,63.45
1624.00,63.63
1623.00,63.82
1622.00,64.04
1621.00,64.26
1620.00,64.51
1619.00,64.78
1618.00,65.07
1617.00,65.38
1616.00,65.71
1615.00,66.02
1614.00,66.33
1613.00,66.65
1612.00,66.97
1611.00,67.28
1610.00,67.57
1609.00,67.85
1608.00,68.14
1607.00,68.40
1606.00,68.63
1605.00,68.80
1604.00,68.95
1603.00,69.08
1602.00,69.17
1601.00,69.24
1600.00,69.29
1599.00,69.31
1598.00,69.31
1597.00,69.29
1596.00,69.27
1595.00,69.24
1594.00,69.19
1593.00,69.12
1592.00,69.06
1591.00,68.99
1590.00,68.89
1589.00,68.76
1588.00,68.61
1587.00,68.43
1586.00,68.22
1585.00,67.98
1584.00,67.73
1583.00,67.46
1582.00,67.16
1581.00,66.84
1580.00,66.52
1579.00,66.20
1578.00,65.84
1577.00,65.40
1576.00,64.94
1575.00,64.55
1574.00,64.25
1573.00,64.03
1572.00,63.79
1571.00,63.44
1570.00,62.97
1569.00,62.46
1568.00,62.02
1567.00,61.66
1566.00,61.30
1565.00,60.92
1564.00,60.57
1563.00,60.32
1562.00,60.17
1561.00,59.99
1560.00,59.53
1559.00,58.90
1558.00,58.41
1557.00,58.15
1556.00,57.95
1555.00,57.74
1554.00,57.49
1553.00,57.25
1552.00,57.06
1551.00,56.90
1550.00,56.76
1549.00,56.66
1548.00,56.61
1547.00,56.59
1546.00,56.59
1545.00,56.61
1544.00,56.66
1543.00,56.75
1542.00,56.85
1541.00,57.00
1540.00,57.23
1539.00,57.48
1538.00,57.72
1537.00,57.97
1536.00,58.24
1535.00,58.54
1534.00,58.87
1533.00,59.22
1532.00,59.53
1531.00,59.83
1530.00,60.12
1529.00,60.43
1528.00,60.75
1527.00,61.09
1526.00,61.44
1525.00,61.75
1524.00,62.03
1523.00,62.31
1522.00,62.60
1521.00,62.88
1520.00,63.09
1519.00,63.28
1518.00,63.49
1517.00,63.73
1516.00,64.01
1515.00,64.32
1514.00,64.67
1513.00,65.04
1512.00,65.41
1511.00,65.77
1510.00,66.14
1509.00,66.53
1508.00,67.05
1507.00,67.81
1506.00,68.58
1505.00,69.11
1504.00,69.52
1503.00,69.95
1502.00,70.44
1501.00,70.96
1500.00,71.45
1499.00,71.93
1498.00,72.45
1497.00,73.03
1496.00,73.61
1495.00,74.15
1494.00,74.65
1493.00,75.12
1492.00,75.56
1491.00,76.00
1490.00,76.47
1489.00,76.96
1488.00,77.40
1487.00,77.80
1486.00,78.16
1485.00,78.46
1484.00,78.69
1483.00,78.88
1482.00,79.04
1481.00,79.15
1480.00,79.21
1479.00,79.21
1478.00,79.15
1477.00,78.96
1476.00,78.65
1475.00,78.25
1474.00,77.77
1473.00,77.15
1472.00,76.45
1471.00,75.85
1470.00,75.38
1469.00,75.01
1468.00,74.71
1467.00,74.49
1466.00,74.32
1465.00,74.19
1464.00,74.10
1463.00,74.09
1462.00,74.16
1461.00,74.27
1460.00,74.35
1459.00,74.37
1458.00,74.32
1457.00,74.19
1456.00,74.02
1455.00,73.93
1454.00,73.95
1453.00,74.02
1452.00,74.10
1451.00,74.18
1450.00,74.27
1449.00,74.34
1448.00,74.39
1447.00,74.42
1446.00,74.47
1445.00,74.54
1444.00,74.60
1443.00,74.65
1442.00,74.70
1441.00,74.77
1440.00,74.87
1439.00,75.01
1438.00,75.16
1437.00,75.25
1436.00,75.24
1435.00,75.22
1434.00,75.25
1433.00,75.31
1432.00,75.35
1431.00,75.35
1430.00,75.31
1429.00,75.24
1428.00,75.11
1427.00,74.95
1426.00,74.76
1425.00,74.51
1424.00,74.21
1423.00,73.94
1422.00,73.75
1421.00,73.56
1420.00,73.25
1419.00,72.84
1418.00,72.46
1417.00,72.16
1416.00,71.91
1415.00,71.65
1414.00,71.37
1413.00,71.06
1412.00,70.71
1411.00,70.36
1410.00,70.02
1409.00,69.68
1408.00,69.32
1407.00,68.96
1406.00,68.61
1405.00,68.26
1404.00,67.92
1403.00,67.65
1402.00,67.44
1401.00,67.23
1400.00,66.98
1399.00,66.73
1398.00,66.54
1397.00,66.40
1396.00,66.32
1395.00,66.30
1394.00,66.32
1393.00,66.36
1392.00,66.43
1391.00,66.54
1390.00,66.68
1389.00,66.83
1388.00,66.96
1387.00,67.10
1386.00,67.26
1385.00,67.43
1384.00,67.63
1383.00,67.89
1382.00,68.20
1381.00,68.52
1380.00,68.85
1379.00,69.18
1378.00,69.51
1377.00,69.84
1376.00,70.18
1375.00,70.58
1374.00,71.03
1373.00,71.45
1372.00,71.81
1371.00,72.12
1370.00,72.40
1369.00,72.66
1368.00,72.91
1367.00,73.19
1366.00,73.49
1365.00,73.82
1364.00,74.20
1363.00,74.63
1362.00,75.05
1361.00,75.42
1360.00,75.72
1359.00,75.97
1358.00,76.18
1357.00,76.36
1356.00,76.53
1355.00,76.69
1354.00,76.84
1353.00,76.98
1352.00,77.09
1351.00,77.19
1350.00,77.28
1349.00,77.36
1348.00,77.43
1347.00,77.49
1346.00,77.54
1345.00,77.58
1344.00,77.62
1343.00,77.66
1342.00,77.69
1341.00,77.71
1340.00,77.76
1339.00,77.83
1338.00,77.91
1337.00,77.99
1336.00,78.05
1335.00,78.10
1334.00,78.15
1333.00,78.18
1332.00,78.20
1331.00,78.23
1330.00,78.25
1329.00,78.26
1328.00,78.25
1327.00,78.23
1326.00,78.18
1325.00,78.11
1324.00,78.04
1323.00,77.96
1322.00,77.89
1321.00,77.81
1320.00,77.75
1319.00,77.71
1318.00,77.69
1317.00,77.67
1316.00,77.64
1315.00,77.61
1314.00,77.58
1313.00,77.57
1312.00,77.57
1311.00,77.57
1310.00,77.56
1309.00,77.55
1308.00,77.53
1307.00,77.51
1306.00,77.48
1305.00,77.45
1304.00,77.39
1303.00,77.33
1302.00,77.25
1301.00,77.16
1300.00,77.07
1299.00,77.00
1298.00,76.95
1297.00,76.91
1296.00,76.88
1295.00,76.86
1294.00,76.87
1293.00,76.91
1292.00,76.97
1291.00,77.04
1290.00,77.13
1289.00,77.22
1288.00,77.32
1287.00,77.42
1286.00,77.51
1285.00,77.58
1284.00,77.64
1283.00,77.69
1282.00,77.73
1281.00,77.77
1280.00,77.80
1279.00,77.82
1278.00,77.84
1277.00,77.83
1276.00,77.82
1275.00,77.80
1274.00,77.77
1273.00,77.75
1272.00,77.72
1271.00,77.69
1270.00,77.66
1269.00,77.62
1268.00,77.58
1267.00,77.55
1266.00,77.52
1265.00,77.50
1264.00,77.46
1263.00,77.40
1262.00,77.32
1261.00,77.24
1260.00,77.16
1259.00,77.09
1258.00,77.01
1257.00,76.92
1256.00,76.81
1255.00,76.71
1254.00,76.64
1253.00,76.58
1252.00,76.53
1251.00,76.48
1250.00,76.42
1249.00,76.36
1248.00,76.28
1247.00,76.21
1246.00,76.16
1245.00,76.11
1244.00,76.07
1243.00,76.02
1242.00,75.98
1241.00,75.94
1240.00,75.91
1239.00,75.89
1238.00,75.87
1237.00,75.85
1236.00,75.84
1235.00,75.85
1234.00,75.88
1233.00,75.92
1232.00,75.98
1231.00,76.06
1230.00,76.16
1229.00,76.28
1228.00,76.41
1227.00,76.54
1226.00,76.67
1225.00,76.81
1224.00,76.94
1223.00,77.06
1222.00,77.19
1221.00,77.31
1220.00,77.44
1219.00,77.57
1218.00,77.71
1217.00,77.85
1216.00,77.98
1215.00,78.10
1214.00,78.21
1213.00,78.32
1212.00,78.43
1211.00,78.53
1210.00,78.62
1209.00,78.68
1208.00,78.74
1207.00,78.78
1206.00,78.82
1205.00,78.86
1204.00,78.91
1203.00,78.95
1202.00,79.00
1201.00,79.04
1200.00,79.09
1199.00,79.14
1198.00,79.19
1197.00,79.23
1196.00,79.25
1195.00,79.26
1194.00,79.26
1193.00,79.26
1192.00,79.26
1191.00,79.26
1190.00,79.27
1189.00,79.26
1188.00,79.25
1187.00,79.22
1186.00,79.20
1185.00,79.18
1184.00,79.15
1183.00,79.12
1182.00,79.09
1181.00,79.05
1180.00,78.98
1179.00,78.89
1178.00,78.80
1177.00,78.69
1176.00,78.59
1175.00,78.50
1174.00,78.44
1173.00,78.41
1172.00,78.40
1171.00,78.44
1170.00,78.50
1169.00,78.60
1168.00,78.70
1167.00,78.80
1166.00,78.91
1165.00,78.99
1164.00,79.06
1163.00,79.13
1162.00,79.21
1161.00,79.30
1160.00,79.39
1159.00,79.48
1158.00,79.55
1157.00,79.62
1156.00,79.69
1155.00,79.78
1154.00,79.90
1153.00,80.04
1152.00,80.18
1151.00,80.32
1150.00,80.48
1149.00,80.64
1148.00,80.78
1147.00,80.89
1146.00,80.97
1145.00,81.03
1144.00,81.07
1143.00,81.12
1142.00,81.17
1141.00,81.21
1140.00,81.22
1139.00,81.21
1138.00,81.20
1137.00,81.18
1136.00,81.15
1135.00,81.10
1134.00,81.03
1133.00,80.95
1132.00,80.88
1131.00,80.83
1130.00,80.78
1129.00,80.73
1128.00,80.66
1127.00,80.57
1126.00,80.49
1125.00,80.41
1124.00,80.32
1123.00,80.22
1122.00,80.12
1121.00,80.03
1120.00,79.93
1119.00,79.83
1118.00,79.74
1117.00,79.67
1116.00,79.62
1115.00,79.59
1114.00,79.57
1113.00,79.52
1112.00,79.43
1111.00,79.32
1110.00,79.22
1109.00,79.16
1108.00,79.12
1107.00,79.09
1106.00,79.07
1105.00,79.03
1104.00,78.98
1103.00,78.92
1102.00,78.88
1101.00,78.83
1100.00,78.77
1099.00,78.69
1098.00,78.63
1097.00,78.57
1096.00,78.52
1095.00,78.48
1094.00,78.45
1093.00,78.42
1092.00,78.36
1091.00,78.30
1090.00,78.22
1089.00,78.13
1088.00,78.01
1087.00,77.90
1086.00,77.80
1085.00,77.70
1084.00,77.59
1083.00,77.49
1082.00,77.40
1081.00,77.33
1080.00,77.26
1079.00,77.21
1078.00,77.17
1077.00,77.13
1076.00,77.09
1075.00,77.07
1074.00,77.08
1073.00,77.12
1072.00,77.14
1071.00,77.15
1070.00,77.17
1069.00,77.21
1068.00,77.25
1067.00,77.29
1066.00,77.32
1065.00,77.34
1064.00,77.35
1063.00,77.36
1062.00,77.35
1061.00,77.34
1060.00,77.32
1059.00,77.32
1058.00,77.33
1057.00,77.34
1056.00,77.35
1055.00,77.35
1054.00,77.35
1053.00,77.33
1052.00,77.27
1051.00,77.17
1050.00,77.07
1049.00,76.96
1048.00,76.88
1047.00,76.84
1046.00,76.84
1045.00,76.84
1044.00,76.84
1043.00,76.84
1042.00,76.87
1041.00,76.92
1040.00,76.98
1039.00,77.05
1038.00,77.13
1037.00,77.20
1036.00,77.26
1035.00,77.30
1034.00,77.34
1033.00,77.38
1032.00,77.42
1031.00,77.46
1030.00,77.50
1029.00,77.53
1028.00,77.58
1027.00,77.65
1026.00,77.75
1025.00,77.87
1024.00,78.00
1023.00,78.12
1022.00,78.25
1021.00,78.38
1020.00,78.52
1019.00,78.66
1018.00,78.79
1017.00,78.90
1016.00,78.99
1015.00,79.06
1014.00,79.13
1013.00,79.21
1012.00,79.29
1011.00,79.39
1010.00,79.52
1009.00,79.68
1008.00,79.83
1007.00,79.97
1006.00,80.08
1005.00,80.18
1004.00,80.28
1003.00,80.38
1002.00,80.48
1001.00,80.58
1000.00,80.68
999.00,80.79
998.00,80.89
997.00,80.98
996.00,81.07
995.00,81.16
994.00,81.26
993.00,81.38
992.00,81.51
991.00,81.63
990.00,81.74
989.00,81.83
988.00,81.91
987.00,81.98
986.00,82.05
985.00,82.15
984.00,82.24
983.00,82.34
982.00,82.43
981.00,82.52
980.00,82.61
979.00,82.70
978.00,82.79
977.00,82.88
976.00,82.97
975.00,83.04
974.00,83.11
973.00,83.19
972.00,83.27
971.00,83.36
970.00,83.44
969.00,83.52
968.00,83.58
967.00,83.64
966.00,83.71
965.00,83.78
964.00,83.86
963.00,83.92
962.00,83.98
961.00,84.03
960.00,84.08
959.00,84.14
958.00,84.21
957.00,84.26
956.00,84.30
955.00,84.31
954.00,84.32
953.00,84.33
952.00,84.37
951.00,84.42
950.00,84.47
949.00,84.52
948.00,84.57
947.00,84.60
946.00,84.62
945.00,84.62
944.00,84.60
943.00,84.59
942.00,84.58
941.00,84.58
940.00,84.57
939.00,84.55
938.00,84.51
937.00,84.45
936.00,84.40
935.00,84.36
934.00,84.35
933.00,84.36
932.00,84.36
931.00,84.35
930.00,84.35
929.00,84.34
928.00,84.33
927.00,84.32
926.00,84.30
925.00,84.27
924.00,84.24
923.00,84.23
922.00,84.25
921.00,84.28
920.00,84.32
919.00,84.36
918.00,84.39
917.00,84.43
916.00,84.47
915.00,84.51
914.00,84.55
913.00,84.58
912.00,84.60
911.00,84.62
910.00,84.65
909.00,84.69
908.00,84.71
907.00,84.70
906.00,84.69
905.00,84.67
904.00,84.66
903.00,84.66
902.00,84.66
901.00,84.67
900.00,84.65
899.00,84.62
898.00,84.57
897.00,84.53
896.00,84.50
895.00,84.47
894.00,84.45
893.00,84.41
892.00,84.35
891.00,84.26
890.00,84.15
889.00,84.07
888.00,84.01
887.00,83.97
886.00,83.93
885.00,83.85
884.00,83.75
883.00,83.63
882.00,83.54
881.00,83.46
880.00,83.40
879.00,83.33
878.00,83.27
877.00,83.21
876.00,83.18
875.00,83.17
874.00,83.18
873.00,83.17
872.00,83.14
871.00,83.12
870.00,83.12
869.00,83.15
868.00,83.18
867.00,83.19
866.00,83.18
865.00,83.17
864.00,83.14
863.00,83.10
862.00,83.05
861.00,83.00
860.00,82.96
859.00,82.93
858.00,82.90
857.00,82.84
856.00,82.75
855.00,82.63
854.00,82.52
853.00,82.41
852.00,82.30
851.00,82.19
850.00,82.09
849.00,82.00
848.00,81.92
847.00,81.83
846.00,81.73
845.00,81.63
844.00,81.51
843.00,81.39
842.00,81.28
841.00,81.16
840.00,81.02
839.00,80.89
838.00,80.75
837.00,80.63
836.00,80.52
835.00,80.41
834.00,80.32
833.00,80.22
832.00,80.11
831.00,80.01
830.00,79.91
829.00,79.82
828.00,79.71
827.00,79.59
826.00,79.49
825.00,79.40
824.00,79.33
823.00,79.27
822.00,79.22
821.00,79.15
820.00,79.05
819.00,78.93
818.00,78.79
817.00,78.68
816.00,78.58
815.00,78.50
814.00,78.44
813.00,78.36
812.00,78.25
811.00,78.10
810.00,77.92
809.00,77.76
808.00,77.61
807.00,77.49
806.00,77.37
805.00,77.21
804.00,77.01
803.00,76.80
802.00,76.61
801.00,76.46
800.00,76.35
799.00,76.25
798.00,76.13
797.00,75.98
796.00,75.82
795.00,75.65
794.00,75.49
793.00,75.31
792.00,75.15
791.00,74.99
790.00,74.86
789.00,74.73
788.00,74.62
787.00,74.53
786.00,74.45
785.00,74.37
784.00,74.27
783.00,74.20
782.00,74.15
781.00,74.10
780.00,74.03
779.00,73.92
778.00,73.81
777.00,73.68
776.00,73.57
775.00,73.46
774.00,73.36
773.00,73.25
772.00,73.13
771.00,73.02
770.00,72.94
769.00,72.86
768.00,72.78
767.00,72.70
766.00,72.60
765.00,72.48
764.00,72.34
763.00,72.21
762.00,72.08
761.00,71.95
760.00,71.80
759.00,71.67
758.00,71.54
757.00,71.41
756.00,71.28
755.00,71.18
754.00,71.10
753.00,71.00
752.00,70.88
751.00,70.76
750.00,70.63
749.00,70.49
748.00,70.32
747.00,70.17
746.00,70.04
745.00,69.91
744.00,69.77
743.00,69.66
742.00,69.58
741.00,69.50
740.00,69.41
739.00,69.31
738.00,69.24
737.00,69.17
736.00,69.05
735.00,68.90
734.00,68.74
733.00,68.58
732.00,68.39
731.00,68.16
730.00,67.93
729.00,67.71
728.00,67.51
727.00,67.32
726.00,67.11
725.00,66.84
724.00,66.53
723.00,66.22
722.00,65.93
721.00,65.67
720.00,65.49
719.00,65.42
718.00,65.48
717.00,65.58
716.00,65.66
715.00,65.69
714.00,65.69
713.00,65.64
712.00,65.56
711.00,65.44
710.00,65.31
709.00,65.17
708.00,65.00
707.00,64.84
706.00,64.70
705.00,64.56
704.00,64.38
703.00,64.20
702.00,64.04
701.00,63.89
700.00,63.76
699.00,63.64
698.00,63.55
697.00,63.46
696.00,63.35
695.00,63.22
694.00,63.12
693.00,63.03
692.00,62.95
691.00,62.88
690.00,62.82
689.00,62.76
688.00,62.70
687.00,62.65
686.00,62.58
685.00,62.46
684.00,62.28
683.00,62.12
682.00,62.03
681.00,61.99
680.00,61.94
679.00,61.84
678.00,61.71
677.00,61.55
676.00,61.39
675.00,61.23
674.00,61.07
673.00,60.91
672.00,60.76
671.00,60.67
670.00,60.65
669.00,60.57
668.00,60.29
667.00,59.97
666.00,59.81
665.00,59.74
664.00,59.63
663.00,59.47
662.00,59.33
661.00,59.19
660.00,59.04
659.00,58.91
658.00,58.85
657.00,58.83
656.00,58.79
655.00,58.70
654.00,58.59
653.00,58.44
652.00,58.32
651.00,58.26
650.00,58.28
649.00,58.24
648.00,58.09
647.00,57.88
646.00,57.70
645.00,57.60
644.00,57.52
643.00,57.44
642.00,57.36
641.00,57.25
640.00,57.15
639.00,57.11
638.00,57.11
637.00,57.06
636.00,56.95
635.00,56.84
634.00,56.76
633.00,56.65
632.00,56.51
631.00,56.42
630.00,56.42
629.00,56.38
628.00,56.21
627.00,55.95
626.00,55.72
625.00,55.52
624.00,55.35
623.00,55.28
622.00,55.35
621.00,55.45
620.00,55.46
619.00,55.41
618.00,55.31
617.00,55.13
616.00,54.93
615.00,54.86
614.00,54.85
613.00,54.70
612.00,54.44
611.00,54.32
610.00,54.44
609.00,54.58
608.00,54.50
607.00,54.24
606.00,53.93
605.00,53.61
604.00,53.24
603.00,52.83
602.00,52.41
601.00,52.03
600.00,51.92
599.00,52.26
598.00,52.84
597.00,53.19
596.00,53.13
595.00,52.98
594.00,53.04
593.00,53.22
592.00,53.29
591.00,53.24
590.00,53.10
589.00,52.85
588.00,52.60
587.00,52.59
586.00,52.76
585.00,52.70
584.00,52.27
583.00,51.86
582.00,51.82
581.00,51.99
580.00,52.23
579.00,52.69
578.00,53.22
577.00,53.18
576.00,52.29
575.00,51.28
574.00,50.93
573.00,51.11
572.00,51.29
571.00,51.39
570.00,51.44
569.00,51.25
568.00,50.70
567.00,50.18
566.00,50.04
565.00,50.13
564.00,50.26
563.00,50.51
562.00,50.77
561.00,50.63
560.00,50.08
559.00,49.68
558.00,49.77
557.00,50.00
556.00,50.00
555.00,49.94
554.00,49.98
553.00,49.93
552.00,49.66
551.00,49.34
550.00,49.02
