Created as New Dataset,12.4 Red Wool Merino sheep and rayon
cm-1,%T
4000.00,98.65
3999.00,98.64
3998.00,98.62
3997.00,98.60
3996.00,98.59
3995.00,98.59
3994.00,98.60
3993.00,98.61
3992.00,98.61
3991.00,98.61
3990.00,98.61
3989.00,98.60
3988.00,98.60
3987.00,98.60
3986.00,98.61
3985.00,98.61
3984.00,98.60
3983.00,98.60
3982.00,98.59
3981.00,98.58
3980.00,98.58
3979.00,98.58
3978.00,98.58
3977.00,98.58
3976.00,98.58
3975.00,98.59
3974.00,98.61
3973.00,98.62
3972.00,98.63
3971.00,98.62
3970.00,98.61
3969.00,98.59
3968.00,98.58
3967.00,98.57
3966.00,98.57
3965.00,98.58
3964.00,98.60
3963.00,98.61
3962.00,98.62
3961.00,98.62
3960.00,98.62
3959.00,98.62
3958.00,98.63
3957.00,98.64
3956.00,98.63
3955.00,98.62
3954.00,98.60
3953.00,98.58
3952.00,98.58
3951.00,98.60
3950.00,98.62
3949.00,98.63
3948.00,98.62
3947.00,98.60
3946.00,98.59
3945.00,98.59
3944.00,98.60
3943.00,98.62
3942.00,98.62
3941.00,98.62
3940.00,98.62
3939.00,98.64
3938.00,98.65
3937.00,98.64
3936.00,98.62
3935.00,98.59
3934.00,98.58
3933.00,98.58
3932.00,98.59
3931.00,98.59
3930.00,98.59
3929.00,98.59
3928.00,98.59
3927.00,98.60
3926.00,98.61
3925.00,98.62
3924.00,98.61
3923.00,98.58
3922.00,98.56
3921.00,98.54
3920.00,98.53
3919.00,98.53
3918.00,98.54
3917.00,98.54
3916.00,98.56
3915.00,98.57
3914.00,98.58
3913.00,98.61
3912.00,98.64
3911.00,98.66
3910.00,98.66
3909.00,98.63
3908.00,98.59
3907.00,98.53
3906.00,98.47
3905.00,98.44
3904.00,98.43
3903.00,98.43
3902.00,98.42
3901.00,98.41
3900.00,98.42
3899.00,98.45
3898.00,98.48
3897.00,98.50
3896.00,98.51
3895.00,98.51
3894.00,98.51
3893.00,98.52
3892.00,98.53
3891.00,98.54
3890.00,98.53
3889.00,98.51
3888.00,98.51
3887.00,98.54
3886.00,98.58
3885.00,98.57
3884.00,98.52
3883.00,98.47
3882.00,98.46
3881.00,98.50
3880.00,98.54
3879.00,98.55
3878.00,98.52
3877.00,98.49
3876.00,98.50
3875.00,98.53
3874.00,98.54
3873.00,98.50
3872.00,98.42
3871.00,98.39
3870.00,98.40
3869.00,98.41
3868.00,98.40
3867.00,98.39
3866.00,98.41
3865.00,98.46
3864.00,98.47
3863.00,98.46
3862.00,98.45
3861.00,98.46
3860.00,98.49
3859.00,98.50
3858.00,98.48
3857.00,98.44
3856.00,98.42
3855.00,98.43
3854.00,98.46
3853.00,98.43
3852.00,98.39
3851.00,98.37
3850.00,98.40
3849.00,98.46
3848.00,98.51
3847.00,98.54
3846.00,98.55
3845.00,98.55
3844.00,98.56
3843.00,98.56
3842.00,98.54
3841.00,98.50
3840.00,98.45
3839.00,98.42
3838.00,98.39
3837.00,98.36
3836.00,98.34
3835.00,98.34
3834.00,98.37
3833.00,98.43
3832.00,98.50
3831.00,98.56
3830.00,98.58
3829.00,98.57
3828.00,98.56
3827.00,98.56
3826.00,98.56
3825.00,98.54
3824.00,98.49
3823.00,98.47
3822.00,98.47
3821.00,98.46
3820.00,98.40
3819.00,98.33
3818.00,98.31
3817.00,98.37
3816.00,98.47
3815.00,98.53
3814.00,98.54
3813.00,98.53
3812.00,98.52
3811.00,98.52
3810.00,98.50
3809.00,98.49
3808.00,98.50
3807.00,98.52
3806.00,98.51
3805.00,98.46
3804.00,98.40
3803.00,98.40
3802.00,98.45
3801.00,98.47
3800.00,98.46
3799.00,98.43
3798.00,98.43
3797.00,98.45
3796.00,98.47
3795.00,98.47
3794.00,98.46
3793.00,98.46
3792.00,98.49
3791.00,98.52
3790.00,98.56
3789.00,98.58
3788.00,98.60
3787.00,98.59
3786.00,98.58
3785.00,98.54
3784.00,98.50
3783.00,98.46
3782.00,98.44
3781.00,98.45
3780.00,98.49
3779.00,98.53
3778.00,98.53
3777.00,98.50
3776.00,98.48
3775.00,98.46
3774.00,98.45
3773.00,98.45
3772.00,98.46
3771.00,98.50
3770.00,98.52
3769.00,98.50
3768.00,98.47
3767.00,98.45
3766.00,98.46
3765.00,98.48
3764.00,98.48
3763.00,98.45
3762.00,98.44
3761.00,98.46
3760.00,98.48
3759.00,98.49
3758.00,98.48
3757.00,98.47
3756.00,98.44
3755.00,98.39
3754.00,98.34
3753.00,98.32
3752.00,98.31
3751.00,98.31
3750.00,98.30
3749.00,98.27
3748.00,98.22
3747.00,98.18
3746.00,98.21
3745.00,98.32
3744.00,98.39
3743.00,98.38
3742.00,98.33
3741.00,98.31
3740.00,98.33
3739.00,98.35
3738.00,98.36
3737.00,98.36
3736.00,98.36
3735.00,98.33
3734.00,98.29
3733.00,98.28
3732.00,98.31
3731.00,98.37
3730.00,98.42
3729.00,98.47
3728.00,98.52
3727.00,98.56
3726.00,98.55
3725.00,98.50
3724.00,98.45
3723.00,98.42
3722.00,98.42
3721.00,98.43
3720.00,98.44
3719.00,98.44
3718.00,98.45
3717.00,98.45
3716.00,98.44
3715.00,98.43
3714.00,98.42
3713.00,98.42
3712.00,98.41
3711.00,98.37
3710.00,98.35
3709.00,98.36
3708.00,98.39
3707.00,98.43
3706.00,98.46
3705.00,98.48
3704.00,98.48
3703.00,98.49
3702.00,98.49
3701.00,98.49
3700.00,98.49
3699.00,98.47
3698.00,98.45
3697.00,98.44
3696.00,98.41
3695.00,98.38
3694.00,98.35
3693.00,98.31
3692.00,98.27
3691.00,98.22
3690.00,98.19
3689.00,98.20
3688.00,98.24
3687.00,98.28
3686.00,98.30
3685.00,98.33
3684.00,98.36
3683.00,98.39
3682.00,98.41
3681.00,98.42
3680.00,98.40
3679.00,98.35
3678.00,98.27
3677.00,98.20
3676.00,98.19
3675.00,98.18
3674.00,98.15
3673.00,98.09
3672.00,98.05
3671.00,98.07
3670.00,98.14
3669.00,98.21
3668.00,98.27
3667.00,98.32
3666.00,98.37
3665.00,98.40
3664.00,98.40
3663.00,98.38
3662.00,98.35
3661.00,98.32
3660.00,98.28
3659.00,98.23
3658.00,98.18
3657.00,98.14
3656.00,98.10
3655.00,98.06
3654.00,97.99
3653.00,97.92
3652.00,97.89
3651.00,97.89
3650.00,97.87
3649.00,97.83
3648.00,97.80
3647.00,97.82
3646.00,97.87
3645.00,97.92
3644.00,97.96
3643.00,97.98
3642.00,97.98
3641.00,97.98
3640.00,97.98
3639.00,97.98
3638.00,97.99
3637.00,97.98
3636.00,97.97
3635.00,97.97
3634.00,97.97
3633.00,97.95
3632.00,97.89
3631.00,97.83
3630.00,97.80
3629.00,97.78
3628.00,97.74
3627.00,97.69
3626.00,97.68
3625.00,97.69
3624.00,97.72
3623.00,97.73
3622.00,97.72
3621.00,97.68
3620.00,97.64
3619.00,97.59
3618.00,97.54
3617.00,97.49
3616.00,97.44
3615.00,97.41
3614.00,97.40
3613.00,97.37
3612.00,97.33
3611.00,97.30
3610.00,97.30
3609.00,97.33
3608.00,97.37
3607.00,97.38
3606.00,97.36
3605.00,97.32
3604.00,97.28
3603.00,97.25
3602.00,97.23
3601.00,97.22
3600.00,97.23
3599.00,97.24
3598.00,97.26
3597.00,97.26
3596.00,97.24
3595.00,97.19
3594.00,97.12
3593.00,97.06
3592.00,97.01
3591.00,96.97
3590.00,96.94
3589.00,96.94
3588.00,96.94
3587.00,96.94
3586.00,96.93
3585.00,96.91
3584.00,96.89
3583.00,96.85
3582.00,96.80
3581.00,96.76
3580.00,96.73
3579.00,96.72
3578.00,96.71
3577.00,96.69
3576.00,96.66
3575.00,96.62
3574.00,96.58
3573.00,96.55
3572.00,96.51
3571.00,96.46
3570.00,96.40
3569.00,96.35
3568.00,96.32
3567.00,96.29
3566.00,96.26
3565.00,96.25
3564.00,96.24
3563.00,96.23
3562.00,96.23
3561.00,96.22
3560.00,96.21
3559.00,96.20
3558.00,96.19
3557.00,96.17
3556.00,96.14
3555.00,96.09
3554.00,96.04
3553.00,96.01
3552.00,96.00
3551.00,95.97
3550.00,95.94
3549.00,95.89
3548.00,95.83
3547.00,95.78
3546.00,95.73
3545.00,95.68
3544.00,95.65
3543.00,95.62
3542.00,95.59
3541.00,95.57
3540.00,95.55
3539.00,95.53
3538.00,95.51
3537.00,95.48
3536.00,95.46
3535.00,95.43
3534.00,95.41
3533.00,95.39
3532.00,95.37
3531.00,95.33
3530.00,95.28
3529.00,95.24
3528.00,95.20
3527.00,95.17
3526.00,95.12
3525.00,95.08
3524.00,95.02
3523.00,94.97
3522.00,94.91
3521.00,94.87
3520.00,94.85
3519.00,94.84
3518.00,94.83
3517.00,94.82
3516.00,94.79
3515.00,94.76
3514.00,94.72
3513.00,94.67
3512.00,94.61
3511.00,94.55
3510.00,94.50
3509.00,94.46
3508.00,94.44
3507.00,94.42
3506.00,94.41
3505.00,94.38
3504.00,94.34
3503.00,94.28
3502.00,94.21
3501.00,94.14
3500.00,94.09
3499.00,94.03
3498.00,93.98
3497.00,93.92
3496.00,93.87
3495.00,93.81
3494.00,93.74
3493.00,93.68
3492.00,93.62
3491.00,93.57
3490.00,93.54
3489.00,93.51
3488.00,93.49
3487.00,93.46
3486.00,93.41
3485.00,93.35
3484.00,93.31
3483.00,93.29
3482.00,93.30
3481.00,93.32
3480.00,93.33
3479.00,93.31
3478.00,93.26
3477.00,93.21
3476.00,93.18
3475.00,93.16
3474.00,93.14
3473.00,93.11
3472.00,93.07
3471.00,93.03
3470.00,92.98
3469.00,92.94
3468.00,92.90
3467.00,92.87
3466.00,92.83
3465.00,92.80
3464.00,92.75
3463.00,92.69
3462.00,92.61
3461.00,92.54
3460.00,92.49
3459.00,92.44
3458.00,92.40
3457.00,92.36
3456.00,92.33
3455.00,92.31
3454.00,92.29
3453.00,92.27
3452.00,92.23
3451.00,92.17
3450.00,92.12
3449.00,92.07
3448.00,92.03
3447.00,92.00
3446.00,91.96
3445.00,91.91
3444.00,91.86
3443.00,91.81
3442.00,91.78
3441.00,91.77
3440.00,91.75
3439.00,91.73
3438.00,91.72
3437.00,91.70
3436.00,91.68
3435.00,91.65
3434.00,91.63
3433.00,91.61
3432.00,91.60
3431.00,91.60
3430.00,91.60
3429.00,91.59
3428.00,91.57
3427.00,91.55
3426.00,91.53
3425.00,91.51
3424.00,91.49
3423.00,91.47
3422.00,91.45
3421.00,91.43
3420.00,91.41
3419.00,91.39
3418.00,91.37
3417.00,91.35
3416.00,91.32
3415.00,91.29
3414.00,91.26
3413.00,91.24
3412.00,91.24
3411.00,91.23
3410.00,91.20
3409.00,91.17
3408.00,91.13
3407.00,91.10
3406.00,91.08
3405.00,91.07
3404.00,91.07
3403.00,91.06
3402.00,91.04
3401.00,91.01
3400.00,90.97
3399.00,90.93
3398.00,90.90
3397.00,90.88
3396.00,90.87
3395.00,90.85
3394.00,90.83
3393.00,90.81
3392.00,90.78
3391.00,90.76
3390.00,90.74
3389.00,90.71
3388.00,90.69
3387.00,90.65
3386.00,90.62
3385.00,90.60
3384.00,90.59
3383.00,90.59
3382.00,90.59
3381.00,90.59
3380.00,90.59
3379.00,90.57
3378.00,90.54
3377.00,90.50
3376.00,90.46
3375.00,90.43
3374.00,90.41
3373.00,90.41
3372.00,90.43
3371.00,90.46
3370.00,90.48
3369.00,90.47
3368.00,90.43
3367.00,90.37
3366.00,90.31
3365.00,90.28
3364.00,90.27
3363.00,90.26
3362.00,90.24
3361.00,90.23
3360.00,90.22
3359.00,90.21
3358.00,90.20
3357.00,90.19
3356.00,90.17
3355.00,90.16
3354.00,90.14
3353.00,90.12
3352.00,90.10
3351.00,90.06
3350.00,90.02
3349.00,89.99
3348.00,89.97
3347.00,89.96
3346.00,89.96
3345.00,89.98
3344.00,89.99
3343.00,89.98
3342.00,89.97
3341.00,89.94
3340.00,89.91
3339.00,89.89
3338.00,89.88
3337.00,89.87
3336.00,89.86
3335.00,89.85
3334.00,89.82
3333.00,89.80
3332.00,89.79
3331.00,89.79
3330.00,89.82
3329.00,89.84
3328.00,89.86
3327.00,89.85
3326.00,89.83
3325.00,89.80
3324.00,89.79
3323.00,89.79
3322.00,89.78
3321.00,89.77
3320.00,89.75
3319.00,89.72
3318.00,89.69
3317.00,89.67
3316.00,89.66
3315.00,89.65
3314.00,89.65
3313.00,89.64
3312.00,89.65
3311.00,89.66
3310.00,89.68
3309.00,89.67
3308.00,89.64
3307.00,89.61
3306.00,89.59
3305.00,89.58
3304.00,89.57
3303.00,89.56
3302.00,89.55
3301.00,89.53
3300.00,89.52
3299.00,89.50
3298.00,89.48
3297.00,89.48
3296.00,89.49
3295.00,89.50
3294.00,89.50
3293.00,89.50
3292.00,89.50
3291.00,89.50
3290.00,89.51
3289.00,89.51
3288.00,89.51
3287.00,89.51
3286.00,89.51
3285.00,89.51
3284.00,89.51
3283.00,89.52
3282.00,89.52
3281.00,89.52
3280.00,89.53
3279.00,89.54
3278.00,89.54
3277.00,89.54
3276.00,89.53
3275.00,89.52
3274.00,89.51
3273.00,89.52
3272.00,89.53
3271.00,89.53
3270.00,89.54
3269.00,89.54
3268.00,89.54
3267.00,89.56
3266.00,89.58
3265.00,89.60
3264.00,89.62
3263.00,89.65
3262.00,89.67
3261.00,89.69
3260.00,89.70
3259.00,89.70
3258.00,89.73
3257.00,89.76
3256.00,89.79
3255.00,89.80
3254.00,89.82
3253.00,89.83
3252.00,89.85
3251.00,89.88
3250.00,89.90
3249.00,89.91
3248.00,89.93
3247.00,89.95
3246.00,89.97
3245.00,89.98
3244.00,89.99
3243.00,90.01
3242.00,90.04
3241.00,90.08
3240.00,90.12
3239.00,90.16
3238.00,90.19
3237.00,90.22
3236.00,90.23
3235.00,90.23
3234.00,90.23
3233.00,90.23
3232.00,90.25
3231.00,90.28
3230.00,90.30
3229.00,90.32
3228.00,90.33
3227.00,90.35
3226.00,90.37
3225.00,90.40
3224.00,90.44
3223.00,90.47
3222.00,90.49
3221.00,90.51
3220.00,90.51
3219.00,90.51
3218.00,90.51
3217.00,90.53
3216.00,90.56
3215.00,90.60
3214.00,90.63
3213.00,90.64
3212.00,90.65
3211.00,90.66
3210.00,90.68
3209.00,90.69
3208.00,90.70
3207.00,90.71
3206.00,90.72
3205.00,90.74
3204.00,90.77
3203.00,90.80
3202.00,90.83
3201.00,90.86
3200.00,90.90
3199.00,90.93
3198.00,90.96
3197.00,90.98
3196.00,90.99
3195.00,90.99
3194.00,91.01
3193.00,91.03
3192.00,91.06
3191.00,91.11
3190.00,91.15
3189.00,91.19
3188.00,91.21
3187.00,91.23
3186.00,91.24
3185.00,91.26
3184.00,91.29
3183.00,91.32
3182.00,91.36
3181.00,91.40
3180.00,91.41
3179.00,91.41
3178.00,91.41
3177.00,91.43
3176.00,91.46
3175.00,91.50
3174.00,91.54
3173.00,91.57
3172.00,91.59
3171.00,91.62
3170.00,91.65
3169.00,91.68
3168.00,91.69
3167.00,91.69
3166.00,91.68
3165.00,91.69
3164.00,91.70
3163.00,91.74
3162.00,91.78
3161.00,91.83
3160.00,91.88
3159.00,91.92
3158.00,91.95
3157.00,91.98
3156.00,92.01
3155.00,92.04
3154.00,92.06
3153.00,92.09
3152.00,92.12
3151.00,92.16
3150.00,92.21
3149.00,92.25
3148.00,92.28
3147.00,92.32
3146.00,92.35
3145.00,92.38
3144.00,92.41
3143.00,92.43
3142.00,92.44
3141.00,92.45
3140.00,92.46
3139.00,92.47
3138.00,92.48
3137.00,92.50
3136.00,92.54
3135.00,92.58
3134.00,92.63
3133.00,92.67
3132.00,92.70
3131.00,92.73
3130.00,92.75
3129.00,92.77
3128.00,92.80
3127.00,92.83
3126.00,92.87
3125.00,92.90
3124.00,92.93
3123.00,92.94
3122.00,92.95
3121.00,92.97
3120.00,93.00
3119.00,93.04
3118.00,93.07
3117.00,93.09
3116.00,93.10
3115.00,93.11
3114.00,93.14
3113.00,93.16
3112.00,93.19
3111.00,93.21
3110.00,93.23
3109.00,93.24
3108.00,93.25
3107.00,93.26
3106.00,93.28
3105.00,93.31
3104.00,93.34
3103.00,93.37
3102.00,93.39
3101.00,93.41
3100.00,93.43
3099.00,93.45
3098.00,93.46
3097.00,93.48
3096.00,93.49
3095.00,93.50
3094.00,93.51
3093.00,93.52
3092.00,93.53
3091.00,93.54
3090.00,93.56
3089.00,93.58
3088.00,93.60
3087.00,93.62
3086.00,93.65
3085.00,93.68
3084.00,93.70
3083.00,93.72
3082.00,93.74
3081.00,93.74
3080.00,93.75
3079.00,93.75
3078.00,93.76
3077.00,93.77
3076.00,93.80
3075.00,93.84
3074.00,93.86
3073.00,93.88
3072.00,93.89
3071.00,93.91
3070.00,93.93
3069.00,93.95
3068.00,93.96
3067.00,93.96
3066.00,93.95
3065.00,93.95
3064.00,93.97
3063.00,94.00
3062.00,94.03
3061.00,94.05
3060.00,94.07
3059.00,94.08
3058.00,94.11
3057.00,94.14
3056.00,94.18
3055.00,94.21
3054.00,94.24
3053.00,94.27
3052.00,94.30
3051.00,94.33
3050.00,94.36
3049.00,94.39
3048.00,94.42
3047.00,94.44
3046.00,94.46
3045.00,94.48
3044.00,94.50
3043.00,94.51
3042.00,94.52
3041.00,94.52
3040.00,94.55
3039.00,94.58
3038.00,94.62
3037.00,94.66
3036.00,94.68
3035.00,94.71
3034.00,94.73
3033.00,94.76
3032.00,94.78
3031.00,94.80
3030.00,94.81
3029.00,94.82
3028.00,94.83
3027.00,94.84
3026.00,94.86
3025.00,94.87
3024.00,94.88
3023.00,94.89
3022.00,94.91
3021.00,94.94
3020.00,94.98
3019.00,95.01
3018.00,95.03
3017.00,95.04
3016.00,95.06
3015.00,95.07
3014.00,95.09
3013.00,95.10
3012.00,95.12
3011.00,95.13
3010.00,95.15
3009.00,95.16
3008.00,95.17
3007.00,95.17
3006.00,95.17
3005.00,95.18
3004.00,95.21
3003.00,95.24
3002.00,95.26
3001.00,95.25
3000.00,95.23
2999.00,95.20
2998.00,95.18
2997.00,95.17
2996.00,95.17
2995.00,95.18
2994.00,95.18
2993.00,95.20
2992.00,95.20
2991.00,95.21
2990.00,95.21
2989.00,95.20
2988.00,95.19
2987.00,95.16
2986.00,95.12
2985.00,95.09
2984.00,95.07
2983.00,95.06
2982.00,95.05
2981.00,95.03
2980.00,95.01
2979.00,94.98
2978.00,94.96
2977.00,94.94
2976.00,94.93
2975.00,94.93
2974.00,94.92
2973.00,94.92
2972.00,94.90
2971.00,94.87
2970.00,94.85
2969.00,94.82
2968.00,94.80
2967.00,94.76
2966.00,94.72
2965.00,94.69
2964.00,94.67
2963.00,94.65
2962.00,94.65
2961.00,94.63
2960.00,94.62
2959.00,94.59
2958.00,94.57
2957.00,94.55
2956.00,94.54
2955.00,94.54
2954.00,94.55
2953.00,94.55
2952.00,94.54
2951.00,94.52
2950.00,94.50
2949.00,94.48
2948.00,94.45
2947.00,94.42
2946.00,94.40
2945.00,94.37
2944.00,94.34
2943.00,94.30
2942.00,94.28
2941.00,94.24
2940.00,94.20
2939.00,94.14
2938.00,94.07
2937.00,94.01
2936.00,93.97
2935.00,93.94
2934.00,93.91
2933.00,93.87
2932.00,93.83
2931.00,93.79
2930.00,93.75
2929.00,93.73
2928.00,93.72
2927.00,93.70
2926.00,93.68
2925.00,93.66
2924.00,93.63
2923.00,93.60
2922.00,93.56
2921.00,93.51
2920.00,93.47
2919.00,93.44
2918.00,93.42
2917.00,93.43
2916.00,93.45
2915.00,93.48
2914.00,93.52
2913.00,93.55
2912.00,93.58
2911.00,93.61
2910.00,93.62
2909.00,93.64
2908.00,93.65
2907.00,93.66
2906.00,93.66
2905.00,93.66
2904.00,93.65
2903.00,93.64
2902.00,93.62
2901.00,93.61
2900.00,93.61
2899.00,93.61
2898.00,93.62
2897.00,93.62
2896.00,93.61
2895.00,93.61
2894.00,93.59
2893.00,93.59
2892.00,93.59
2891.00,93.60
2890.00,93.61
2889.00,93.63
2888.00,93.64
2887.00,93.64
2886.00,93.65
2885.00,93.65
2884.00,93.65
2883.00,93.65
2882.00,93.66
2881.00,93.67
2880.00,93.69
2879.00,93.71
2878.00,93.72
2877.00,93.73
2876.00,93.73
2875.00,93.72
2874.00,93.72
2873.00,93.72
2872.00,93.75
2871.00,93.79
2870.00,93.83
2869.00,93.86
2868.00,93.91
2867.00,93.96
2866.00,94.02
2865.00,94.06
2864.00,94.09
2863.00,94.12
2862.00,94.15
2861.00,94.19
2860.00,94.22
2859.00,94.26
2858.00,94.28
2857.00,94.30
2856.00,94.30
2855.00,94.29
2854.00,94.28
2853.00,94.28
2852.00,94.29
2851.00,94.32
2850.00,94.36
2849.00,94.43
2848.00,94.50
2847.00,94.57
2846.00,94.64
2845.00,94.70
2844.00,94.75
2843.00,94.80
2842.00,94.85
2841.00,94.90
2840.00,94.96
2839.00,95.01
2838.00,95.06
2837.00,95.09
2836.00,95.10
2835.00,95.12
2834.00,95.15
2833.00,95.18
2832.00,95.22
2831.00,95.25
2830.00,95.27
2829.00,95.28
2828.00,95.29
2827.00,95.29
2826.00,95.30
2825.00,95.31
2824.00,95.33
2823.00,95.35
2822.00,95.38
2821.00,95.39
2820.00,95.39
2819.00,95.40
2818.00,95.40
2817.00,95.42
2816.00,95.43
2815.00,95.44
2814.00,95.45
2813.00,95.46
2812.00,95.47
2811.00,95.48
2810.00,95.50
2809.00,95.52
2808.00,95.55
2807.00,95.57
2806.00,95.59
2805.00,95.60
2804.00,95.60
2803.00,95.61
2802.00,95.61
2801.00,95.62
2800.00,95.62
2799.00,95.63
2798.00,95.63
2797.00,95.64
2796.00,95.65
2795.00,95.67
2794.00,95.69
2793.00,95.71
2792.00,95.73
2791.00,95.75
2790.00,95.76
2789.00,95.76
2788.00,95.76
2787.00,95.77
2786.00,95.78
2785.00,95.80
2784.00,95.81
2783.00,95.83
2782.00,95.83
2781.00,95.84
2780.00,95.84
2779.00,95.84
2778.00,95.85
2777.00,95.87
2776.00,95.89
2775.00,95.90
2774.00,95.91
2773.00,95.92
2772.00,95.93
2771.00,95.94
2770.00,95.95
2769.00,95.97
2768.00,95.98
2767.00,96.00
2766.00,96.01
2765.00,96.01
2764.00,96.01
2763.00,96.00
2762.00,96.00
2761.00,96.00
2760.00,96.00
2759.00,96.01
2758.00,96.02
2757.00,96.03
2756.00,96.03
2755.00,96.04
2754.00,96.05
2753.00,96.06
2752.00,96.07
2751.00,96.08
2750.00,96.08
2749.00,96.08
2748.00,96.08
2747.00,96.09
2746.00,96.09
2745.00,96.10
2744.00,96.10
2743.00,96.10
2742.00,96.09
2741.00,96.09
2740.00,96.08
2739.00,96.08
2738.00,96.09
2737.00,96.09
2736.00,96.09
2735.00,96.09
2734.00,96.09
2733.00,96.10
2732.00,96.10
2731.00,96.12
2730.00,96.14
2729.00,96.15
2728.00,96.16
2727.00,96.16
2726.00,96.16
2725.00,96.17
2724.00,96.17
2723.00,96.17
2722.00,96.17
2721.00,96.16
2720.00,96.15
2719.00,96.16
2718.00,96.16
2717.00,96.18
2716.00,96.20
2715.00,96.22
2714.00,96.24
2713.00,96.24
2712.00,96.23
2711.00,96.22
2710.00,96.22
2709.00,96.22
2708.00,96.23
2707.00,96.24
2706.00,96.24
2705.00,96.25
2704.00,96.27
2703.00,96.29
2702.00,96.30
2701.00,96.30
2700.00,96.31
2699.00,96.31
2698.00,96.32
2697.00,96.32
2696.00,96.33
2695.00,96.33
2694.00,96.33
2693.00,96.32
2692.00,96.32
2691.00,96.31
2690.00,96.31
2689.00,96.32
2688.00,96.33
2687.00,96.34
2686.00,96.35
2685.00,96.36
2684.00,96.37
2683.00,96.37
2682.00,96.36
2681.00,96.36
2680.00,96.37
2679.00,96.39
2678.00,96.42
2677.00,96.44
2676.00,96.44
2675.00,96.44
2674.00,96.45
2673.00,96.46
2672.00,96.47
2671.00,96.47
2670.00,96.46
2669.00,96.46
2668.00,96.46
2667.00,96.46
2666.00,96.47
2665.00,96.48
2664.00,96.49
2663.00,96.48
2662.00,96.47
2661.00,96.45
2660.00,96.44
2659.00,96.43
2658.00,96.43
2657.00,96.44
2656.00,96.45
2655.00,96.46
2654.00,96.47
2653.00,96.46
2652.00,96.45
2651.00,96.43
2650.00,96.42
2649.00,96.43
2648.00,96.44
2647.00,96.44
2646.00,96.43
2645.00,96.43
2644.00,96.43
2643.00,96.44
2642.00,96.44
2641.00,96.44
2640.00,96.44
2639.00,96.44
2638.00,96.44
2637.00,96.44
2636.00,96.44
2635.00,96.43
2634.00,96.43
2633.00,96.43
2632.00,96.44
2631.00,96.45
2630.00,96.45
2629.00,96.44
2628.00,96.43
2627.00,96.41
2626.00,96.39
2625.00,96.38
2624.00,96.38
2623.00,96.37
2622.00,96.37
2621.00,96.36
2620.00,96.36
2619.00,96.37
2618.00,96.39
2617.00,96.39
2616.00,96.39
2615.00,96.39
2614.00,96.39
2613.00,96.40
2612.00,96.42
2611.00,96.43
2610.00,96.43
2609.00,96.42
2608.00,96.41
2607.00,96.40
2606.00,96.40
2605.00,96.39
2604.00,96.39
2603.00,96.40
2602.00,96.42
2601.00,96.44
2600.00,96.44
2599.00,96.44
2598.00,96.43
2597.00,96.41
2596.00,96.40
2595.00,96.40
2594.00,96.41
2593.00,96.43
2592.00,96.44
2591.00,96.44
2590.00,96.44
2589.00,96.43
2588.00,96.43
2587.00,96.42
2586.00,96.42
2585.00,96.41
2584.00,96.40
2583.00,96.38
2582.00,96.35
2581.00,96.33
2580.00,96.32
2579.00,96.34
2578.00,96.37
2577.00,96.40
2576.00,96.41
2575.00,96.41
2574.00,96.39
2573.00,96.37
2572.00,96.34
2571.00,96.33
2570.00,96.34
2569.00,96.37
2568.00,96.39
2567.00,96.40
2566.00,96.41
2565.00,96.42
2564.00,96.43
2563.00,96.44
2562.00,96.45
2561.00,96.45
2560.00,96.45
2559.00,96.45
2558.00,96.44
2557.00,96.42
2556.00,96.40
2555.00,96.39
2554.00,96.39
2553.00,96.39
2552.00,96.40
2551.00,96.42
2550.00,96.45
2549.00,96.47
2548.00,96.48
2547.00,96.47
2546.00,96.45
2545.00,96.43
2544.00,96.42
2543.00,96.40
2542.00,96.39
2541.00,96.38
2540.00,96.37
2539.00,96.36
2538.00,96.35
2537.00,96.34
2536.00,96.32
2535.00,96.33
2534.00,96.36
2533.00,96.40
2532.00,96.42
2531.00,96.43
2530.00,96.42
2529.00,96.41
2528.00,96.40
2527.00,96.40
2526.00,96.41
2525.00,96.41
2524.00,96.41
2523.00,96.42
2522.00,96.43
2521.00,96.45
2520.00,96.45
2519.00,96.44
2518.00,96.44
2517.00,96.44
2516.00,96.44
2515.00,96.44
2514.00,96.45
2513.00,96.46
2512.00,96.48
2511.00,96.50
2510.00,96.50
2509.00,96.50
2508.00,96.49
2507.00,96.49
2506.00,96.48
2505.00,96.46
2504.00,96.43
2503.00,96.41
2502.00,96.40
2501.00,96.40
2500.00,96.42
2499.00,96.46
2498.00,96.50
2497.00,96.52
2496.00,96.54
2495.00,96.54
2494.00,96.54
2493.00,96.54
2492.00,96.53
2491.00,96.52
2490.00,96.51
2489.00,96.49
2488.00,96.47
2487.00,96.46
2486.00,96.45
2485.00,96.45
2484.00,96.44
2483.00,96.45
2482.00,96.47
2481.00,96.48
2480.00,96.48
2479.00,96.47
2478.00,96.47
2477.00,96.49
2476.00,96.51
2475.00,96.53
2474.00,96.53
2473.00,96.54
2472.00,96.55
2471.00,96.57
2470.00,96.58
2469.00,96.59
2468.00,96.58
2467.00,96.57
2466.00,96.55
2465.00,96.55
2464.00,96.54
2463.00,96.54
2462.00,96.54
2461.00,96.54
2460.00,96.53
2459.00,96.51
2458.00,96.49
2457.00,96.48
2456.00,96.50
2455.00,96.52
2454.00,96.55
2453.00,96.56
2452.00,96.56
2451.00,96.56
2450.00,96.57
2449.00,96.57
2448.00,96.57
2447.00,96.55
2446.00,96.54
2445.00,96.54
2444.00,96.55
2443.00,96.57
2442.00,96.59
2441.00,96.59
2440.00,96.59
2439.00,96.59
2438.00,96.61
2437.00,96.62
2436.00,96.63
2435.00,96.62
2434.00,96.60
2433.00,96.58
2432.00,96.57
2431.00,96.57
2430.00,96.56
2429.00,96.55
2428.00,96.56
2427.00,96.60
2426.00,96.63
2425.00,96.66
2424.00,96.67
2423.00,96.66
2422.00,96.65
2421.00,96.64
2420.00,96.64
2419.00,96.65
2418.00,96.65
2417.00,96.66
2416.00,96.65
2415.00,96.65
2414.00,96.64
2413.00,96.63
2412.00,96.63
2411.00,96.64
2410.00,96.66
2409.00,96.68
2408.00,96.70
2407.00,96.71
2406.00,96.72
2405.00,96.73
2404.00,96.75
2403.00,96.76
2402.00,96.76
2401.00,96.75
2400.00,96.74
2399.00,96.73
2398.00,96.75
2397.00,96.78
2396.00,96.80
2395.00,96.81
2394.00,96.81
2393.00,96.81
2392.00,96.82
2391.00,96.83
2390.00,96.85
2389.00,96.87
2388.00,96.87
2387.00,96.86
2386.00,96.85
2385.00,96.85
2384.00,96.86
2383.00,96.88
2382.00,96.91
2381.00,96.94
2380.00,96.97
2379.00,96.98
2378.00,96.97
2377.00,96.95
2376.00,96.93
2375.00,96.92
2374.00,96.94
2373.00,97.01
2372.00,97.09
2371.00,97.15
2370.00,97.14
2369.00,97.10
2368.00,97.06
2367.00,97.05
2366.00,97.06
2365.00,97.06
2364.00,97.02
2363.00,96.96
2362.00,96.91
2361.00,96.87
2360.00,96.85
2359.00,96.86
2358.00,96.90
2357.00,96.98
2356.00,97.06
2355.00,97.11
2354.00,97.11
2353.00,97.08
2352.00,97.03
2351.00,97.02
2350.00,97.04
2349.00,97.11
2348.00,97.21
2347.00,97.28
2346.00,97.29
2345.00,97.23
2344.00,97.15
2343.00,97.08
2342.00,97.03
2341.00,96.99
2340.00,96.96
2339.00,96.92
2338.00,96.87
2337.00,96.81
2336.00,96.77
2335.00,96.79
2334.00,96.85
2333.00,96.91
2332.00,96.94
2331.00,96.93
2330.00,96.90
2329.00,96.88
2328.00,96.87
2327.00,96.86
2326.00,96.84
2325.00,96.81
2324.00,96.78
2323.00,96.74
2322.00,96.69
2321.00,96.64
2320.00,96.61
2319.00,96.60
2318.00,96.61
2317.00,96.64
2316.00,96.68
2315.00,96.72
2314.00,96.74
2313.00,96.75
2312.00,96.74
2311.00,96.73
2310.00,96.73
2309.00,96.73
2308.00,96.75
2307.00,96.77
2306.00,96.78
2305.00,96.78
2304.00,96.78
2303.00,96.76
2302.00,96.73
2301.00,96.69
2300.00,96.67
2299.00,96.67
2298.00,96.68
2297.00,96.67
2296.00,96.64
2295.00,96.63
2294.00,96.63
2293.00,96.65
2292.00,96.67
2291.00,96.67
2290.00,96.66
2289.00,96.62
2288.00,96.58
2287.00,96.53
2286.00,96.49
2285.00,96.47
2284.00,96.45
2283.00,96.45
2282.00,96.46
2281.00,96.47
2280.00,96.47
2279.00,96.48
2278.00,96.48
2277.00,96.48
2276.00,96.46
2275.00,96.44
2274.00,96.41
2273.00,96.40
2272.00,96.41
2271.00,96.41
2270.00,96.38
2269.00,96.33
2268.00,96.28
2267.00,96.26
2266.00,96.26
2265.00,96.29
2264.00,96.33
2263.00,96.35
2262.00,96.35
2261.00,96.33
2260.00,96.29
2259.00,96.27
2258.00,96.25
2257.00,96.25
2256.00,96.26
2255.00,96.26
2254.00,96.25
2253.00,96.22
2252.00,96.21
2251.00,96.20
2250.00,96.20
2249.00,96.19
2248.00,96.19
2247.00,96.20
2246.00,96.20
2245.00,96.18
2244.00,96.14
2243.00,96.12
2242.00,96.13
2241.00,96.15
2240.00,96.18
2239.00,96.18
2238.00,96.16
2237.00,96.10
2236.00,96.04
2235.00,96.02
2234.00,96.03
2233.00,96.06
2232.00,96.06
2231.00,96.05
2230.00,96.03
2229.00,96.01
2228.00,96.00
2227.00,96.00
2226.00,96.02
2225.00,96.03
2224.00,96.03
2223.00,96.02
2222.00,95.99
2221.00,95.96
2220.00,95.95
2219.00,95.94
2218.00,95.94
2217.00,95.93
2216.00,95.92
2215.00,95.91
2214.00,95.90
2213.00,95.89
2212.00,95.86
2211.00,95.85
2210.00,95.87
2209.00,95.89
2208.00,95.91
2207.00,95.90
2206.00,95.90
2205.00,95.91
2204.00,95.92
2203.00,95.90
2202.00,95.84
2201.00,95.77
2200.00,95.74
2199.00,95.74
2198.00,95.76
2197.00,95.77
2196.00,95.76
2195.00,95.74
2194.00,95.72
2193.00,95.72
2192.00,95.73
2191.00,95.74
2190.00,95.74
2189.00,95.72
2188.00,95.68
2187.00,95.61
2186.00,95.53
2185.00,95.45
2184.00,95.42
2183.00,95.43
2182.00,95.48
2181.00,95.54
2180.00,95.60
2179.00,95.62
2178.00,95.61
2177.00,95.62
2176.00,95.65
2175.00,95.69
2174.00,95.71
2173.00,95.69
2172.00,95.64
2171.00,95.60
2170.00,95.57
2169.00,95.54
2168.00,95.49
2167.00,95.44
2166.00,95.40
2165.00,95.36
2164.00,95.32
2163.00,95.24
2162.00,95.13
2161.00,95.06
2160.00,95.06
2159.00,95.14
2158.00,95.25
2157.00,95.37
2156.00,95.49
2155.00,95.59
2154.00,95.65
2153.00,95.66
2152.00,95.64
2151.00,95.62
2150.00,95.65
2149.00,95.72
2148.00,95.79
2147.00,95.84
2146.00,95.89
2145.00,95.94
2144.00,95.99
2143.00,96.02
2142.00,96.02
2141.00,96.01
2140.00,95.99
2139.00,95.96
2138.00,95.94
2137.00,95.93
2136.00,95.93
2135.00,95.95
2134.00,96.00
2133.00,96.07
2132.00,96.15
2131.00,96.22
2130.00,96.26
2129.00,96.28
2128.00,96.29
2127.00,96.29
2126.00,96.29
2125.00,96.28
2124.00,96.26
2123.00,96.23
2122.00,96.20
2121.00,96.17
2120.00,96.16
2119.00,96.16
2118.00,96.16
2117.00,96.18
2116.00,96.20
2115.00,96.21
2114.00,96.20
2113.00,96.17
2112.00,96.14
2111.00,96.11
2110.00,96.08
2109.00,96.07
2108.00,96.08
2107.00,96.10
2106.00,96.11
2105.00,96.12
2104.00,96.13
2103.00,96.14
2102.00,96.15
2101.00,96.15
2100.00,96.13
2099.00,96.12
2098.00,96.12
2097.00,96.13
2096.00,96.14
2095.00,96.16
2094.00,96.19
2093.00,96.22
2092.00,96.23
2091.00,96.23
2090.00,96.22
2089.00,96.20
2088.00,96.19
2087.00,96.18
2086.00,96.16
2085.00,96.14
2084.00,96.14
2083.00,96.15
2082.00,96.17
2081.00,96.19
2080.00,96.21
2079.00,96.22
2078.00,96.20
2077.00,96.17
2076.00,96.14
2075.00,96.13
2074.00,96.14
2073.00,96.13
2072.00,96.09
2071.00,96.06
2070.00,96.05
2069.00,96.08
2068.00,96.10
2067.00,96.12
2066.00,96.12
2065.00,96.11
2064.00,96.09
2063.00,96.07
2062.00,96.04
2061.00,96.00
2060.00,95.98
2059.00,95.97
2058.00,95.98
2057.00,95.99
2056.00,96.02
2055.00,96.03
2054.00,96.03
2053.00,95.99
2052.00,95.93
2051.00,95.88
2050.00,95.84
2049.00,95.80
2048.00,95.75
2047.00,95.71
2046.00,95.68
2045.00,95.66
2044.00,95.65
2043.00,95.61
2042.00,95.57
2041.00,95.53
2040.00,95.51
2039.00,95.52
2038.00,95.53
2037.00,95.54
2036.00,95.57
2035.00,95.61
2034.00,95.63
2033.00,95.60
2032.00,95.55
2031.00,95.51
2030.00,95.48
2029.00,95.49
2028.00,95.53
2027.00,95.60
2026.00,95.65
2025.00,95.66
2024.00,95.64
2023.00,95.65
2022.00,95.68
2021.00,95.71
2020.00,95.72
2019.00,95.71
2018.00,95.69
2017.00,95.66
2016.00,95.61
2015.00,95.56
2014.00,95.54
2013.00,95.55
2012.00,95.58
2011.00,95.63
2010.00,95.67
2009.00,95.71
2008.00,95.75
2007.00,95.76
2006.00,95.75
2005.00,95.72
2004.00,95.74
2003.00,95.82
2002.00,95.92
2001.00,95.99
2000.00,96.01
1999.00,96.00
1998.00,95.98
1997.00,95.94
1996.00,95.92
1995.00,95.92
1994.00,95.94
1993.00,95.95
1992.00,95.94
1991.00,95.91
1990.00,95.90
1989.00,95.91
1988.00,95.93
1987.00,95.97
1986.00,96.01
1985.00,96.05
1984.00,96.07
1983.00,96.04
1982.00,95.95
1981.00,95.84
1980.00,95.74
1979.00,95.72
1978.00,95.76
1977.00,95.81
1976.00,95.83
1975.00,95.83
1974.00,95.83
1973.00,95.83
1972.00,95.81
1971.00,95.82
1970.00,95.85
1969.00,95.89
1968.00,95.91
1967.00,95.94
1966.00,95.98
1965.00,96.03
1964.00,96.06
1963.00,96.05
1962.00,96.04
1961.00,96.04
1960.00,96.08
1959.00,96.15
1958.00,96.23
1957.00,96.31
1956.00,96.36
1955.00,96.37
1954.00,96.35
1953.00,96.32
1952.00,96.32
1951.00,96.36
1950.00,96.41
1949.00,96.43
1948.00,96.41
1947.00,96.39
1946.00,96.39
1945.00,96.41
1944.00,96.45
1943.00,96.49
1942.00,96.51
1941.00,96.50
1940.00,96.50
1939.00,96.50
1938.00,96.52
1937.00,96.52
1936.00,96.50
1935.00,96.46
1934.00,96.43
1933.00,96.43
1932.00,96.44
1931.00,96.46
1930.00,96.47
1929.00,96.47
1928.00,96.47
1927.00,96.48
1926.00,96.48
1925.00,96.48
1924.00,96.49
1923.00,96.52
1922.00,96.56
1921.00,96.59
1920.00,96.60
1919.00,96.61
1918.00,96.62
1917.00,96.63
1916.00,96.64
1915.00,96.64
1914.00,96.63
1913.00,96.63
1912.00,96.64
1911.00,96.65
1910.00,96.68
1909.00,96.72
1908.00,96.77
1907.00,96.80
1906.00,96.81
1905.00,96.79
1904.00,96.76
1903.00,96.73
1902.00,96.71
1901.00,96.69
1900.00,96.69
1899.00,96.73
1898.00,96.79
1897.00,96.85
1896.00,96.88
1895.00,96.87
1894.00,96.84
1893.00,96.82
1892.00,96.83
1891.00,96.85
1890.00,96.87
1889.00,96.85
1888.00,96.83
1887.00,96.82
1886.00,96.83
1885.00,96.83
1884.00,96.84
1883.00,96.83
1882.00,96.84
1881.00,96.83
1880.00,96.83
1879.00,96.82
1878.00,96.83
1877.00,96.86
1876.00,96.89
1875.00,96.91
1874.00,96.92
1873.00,96.92
1872.00,96.93
1871.00,96.96
1870.00,96.99
1869.00,97.00
1868.00,96.97
1867.00,96.94
1866.00,96.93
1865.00,96.94
1864.00,96.94
1863.00,96.93
1862.00,96.91
1861.00,96.89
1860.00,96.88
1859.00,96.90
1858.00,96.90
1857.00,96.90
1856.00,96.90
1855.00,96.91
1854.00,96.94
1853.00,96.95
1852.00,96.96
1851.00,96.96
1850.00,96.96
1849.00,96.97
1848.00,96.97
1847.00,96.98
1846.00,96.98
1845.00,97.00
1844.00,97.01
1843.00,97.03
1842.00,97.03
1841.00,97.04
1840.00,97.05
1839.00,97.07
1838.00,97.08
1837.00,97.07
1836.00,97.04
1835.00,97.04
1834.00,97.04
1833.00,97.06
1832.00,97.08
1831.00,97.10
1830.00,97.11
1829.00,97.09
1828.00,97.08
1827.00,97.07
1826.00,97.06
1825.00,97.07
1824.00,97.07
1823.00,97.09
1822.00,97.10
1821.00,97.11
1820.00,97.11
1819.00,97.11
1818.00,97.11
1817.00,97.10
1816.00,97.09
1815.00,97.11
1814.00,97.13
1813.00,97.15
1812.00,97.15
1811.00,97.14
1810.00,97.13
1809.00,97.13
1808.00,97.14
1807.00,97.16
1806.00,97.17
1805.00,97.18
1804.00,97.19
1803.00,97.20
1802.00,97.21
1801.00,97.19
1800.00,97.17
1799.00,97.15
1798.00,97.17
1797.00,97.19
1796.00,97.22
1795.00,97.23
1794.00,97.23
1793.00,97.22
1792.00,97.20
1791.00,97.18
1790.00,97.17
1789.00,97.16
1788.00,97.17
1787.00,97.20
1786.00,97.22
1785.00,97.22
1784.00,97.19
1783.00,97.18
1782.00,97.17
1781.00,97.16
1780.00,97.16
1779.00,97.16
1778.00,97.17
1777.00,97.18
1776.00,97.19
1775.00,97.19
1774.00,97.19
1773.00,97.19
1772.00,97.18
1771.00,97.18
1770.00,97.20
1769.00,97.21
1768.00,97.21
1767.00,97.20
1766.00,97.20
1765.00,97.21
1764.00,97.22
1763.00,97.22
1762.00,97.22
1761.00,97.20
1760.00,97.19
1759.00,97.19
1758.00,97.21
1757.00,97.22
1756.00,97.21
1755.00,97.19
1754.00,97.18
1753.00,97.16
1752.00,97.13
1751.00,97.11
1750.00,97.10
1749.00,97.10
1748.00,97.11
1747.00,97.13
1746.00,97.16
1745.00,97.17
1744.00,97.16
1743.00,97.12
1742.00,97.10
1741.00,97.08
1740.00,97.06
1739.00,97.05
1738.00,97.04
1737.00,97.03
1736.00,97.01
1735.00,97.00
1734.00,96.99
1733.00,96.98
1732.00,96.98
1731.00,96.99
1730.00,96.99
1729.00,96.96
1728.00,96.94
1727.00,96.93
1726.00,96.94
1725.00,96.93
1724.00,96.92
1723.00,96.91
1722.00,96.90
1721.00,96.89
1720.00,96.87
1719.00,96.86
1718.00,96.85
1717.00,96.84
1716.00,96.80
1715.00,96.75
1714.00,96.69
1713.00,96.63
1712.00,96.57
1711.00,96.53
1710.00,96.49
1709.00,96.45
1708.00,96.41
1707.00,96.35
1706.00,96.26
1705.00,96.16
1704.00,96.06
1703.00,95.99
1702.00,95.93
1701.00,95.80
1700.00,95.59
1699.00,95.41
1698.00,95.30
1697.00,95.19
1696.00,95.06
1695.00,94.91
1694.00,94.79
1693.00,94.68
1692.00,94.57
1691.00,94.45
1690.00,94.33
1689.00,94.19
1688.00,94.06
1687.00,93.94
1686.00,93.83
1685.00,93.70
1684.00,93.52
1683.00,93.35
1682.00,93.24
1681.00,93.14
1680.00,93.03
1679.00,92.92
1678.00,92.82
1677.00,92.70
1676.00,92.55
1675.00,92.37
1674.00,92.23
1673.00,92.11
1672.00,92.01
1671.00,91.90
1670.00,91.77
1669.00,91.61
1668.00,91.46
1667.00,91.34
1666.00,91.23
1665.00,91.11
1664.00,90.96
1663.00,90.80
1662.00,90.64
1661.00,90.50
1660.00,90.36
1659.00,90.23
1658.00,90.12
1657.00,90.01
1656.00,89.87
1655.00,89.71
1654.00,89.48
1653.00,89.22
1652.00,89.06
1651.00,89.02
1650.00,89.00
1649.00,88.94
1648.00,88.84
1647.00,88.71
1646.00,88.59
1645.00,88.51
1644.00,88.46
1643.00,88.42
1642.00,88.40
1641.00,88.38
1640.00,88.36
1639.00,88.34
1638.00,88.31
1637.00,88.30
1636.00,88.30
1635.00,88.29
1634.00,88.28
1633.00,88.28
1632.00,88.28
1631.00,88.29
1630.00,88.31
1629.00,88.35
1628.00,88.39
1627.00,88.43
1626.00,88.48
1625.00,88.53
1624.00,88.58
1623.00,88.65
1622.00,88.73
1621.00,88.83
1620.00,88.93
1619.00,89.03
1618.00,89.15
1617.00,89.30
1616.00,89.47
1615.00,89.62
1614.00,89.77
1613.00,89.92
1612.00,90.08
1611.00,90.25
1610.00,90.41
1609.00,90.56
1608.00,90.70
1607.00,90.83
1606.00,90.95
1605.00,91.07
1604.00,91.20
1603.00,91.31
1602.00,91.42
1601.00,91.53
1600.00,91.65
1599.00,91.77
1598.00,91.88
1597.00,91.98
1596.00,92.08
1595.00,92.17
1594.00,92.25
1593.00,92.33
1592.00,92.40
1591.00,92.47
1590.00,92.52
1589.00,92.55
1588.00,92.58
1587.00,92.59
1586.00,92.61
1585.00,92.65
1584.00,92.69
1583.00,92.74
1582.00,92.76
1581.00,92.78
1580.00,92.78
1579.00,92.76
1578.00,92.71
1577.00,92.66
1576.00,92.65
1575.00,92.65
1574.00,92.67
1573.00,92.67
1572.00,92.67
1571.00,92.64
1570.00,92.57
1569.00,92.50
1568.00,92.44
1567.00,92.39
1566.00,92.34
1565.00,92.30
1564.00,92.25
1563.00,92.19
1562.00,92.13
1561.00,92.06
1560.00,91.94
1559.00,91.76
1558.00,91.60
1557.00,91.53
1556.00,91.48
1555.00,91.40
1554.00,91.32
1553.00,91.23
1552.00,91.15
1551.00,91.06
1550.00,90.97
1549.00,90.87
1548.00,90.79
1547.00,90.72
1546.00,90.66
1545.00,90.59
1544.00,90.51
1543.00,90.44
1542.00,90.35
1541.00,90.26
1540.00,90.18
1539.00,90.15
1538.00,90.14
1537.00,90.13
1536.00,90.11
1535.00,90.09
1534.00,90.08
1533.00,90.07
1532.00,90.05
1531.00,90.03
1530.00,90.01
1529.00,90.00
1528.00,90.00
1527.00,90.00
1526.00,90.02
1525.00,90.02
1524.00,90.02
1523.00,90.01
1522.00,90.00
1521.00,89.97
1520.00,89.96
1519.00,89.95
1518.00,89.94
1517.00,89.92
1516.00,89.91
1515.00,89.90
1514.00,89.92
1513.00,89.96
1512.00,90.02
1511.00,90.08
1510.00,90.13
1509.00,90.18
1508.00,90.24
1507.00,90.34
1506.00,90.42
1505.00,90.48
1504.00,90.55
1503.00,90.62
1502.00,90.71
1501.00,90.81
1500.00,90.91
1499.00,91.00
1498.00,91.09
1497.00,91.19
1496.00,91.29
1495.00,91.39
1494.00,91.47
1493.00,91.56
1492.00,91.66
1491.00,91.78
1490.00,91.89
1489.00,91.95
1488.00,92.00
1487.00,92.03
1486.00,92.08
1485.00,92.12
1484.00,92.17
1483.00,92.21
1482.00,92.25
1481.00,92.27
1480.00,92.26
1479.00,92.24
1478.00,92.22
1477.00,92.18
1476.00,92.13
1475.00,92.06
1474.00,91.97
1473.00,91.84
1472.00,91.69
1471.00,91.56
1470.00,91.47
1469.00,91.41
1468.00,91.36
1467.00,91.33
1466.00,91.30
1465.00,91.24
1464.00,91.18
1463.00,91.12
1462.00,91.10
1461.00,91.10
1460.00,91.08
1459.00,91.05
1458.00,90.97
1457.00,90.86
1456.00,90.74
1455.00,90.66
1454.00,90.61
1453.00,90.57
1452.00,90.55
1451.00,90.52
1450.00,90.47
1449.00,90.42
1448.00,90.36
1447.00,90.32
1446.00,90.30
1445.00,90.28
1444.00,90.27
1443.00,90.27
1442.00,90.26
1441.00,90.26
1440.00,90.26
1439.00,90.28
1438.00,90.30
1437.00,90.32
1436.00,90.34
1435.00,90.36
1434.00,90.40
1433.00,90.44
1432.00,90.48
1431.00,90.50
1430.00,90.52
1429.00,90.52
1428.00,90.52
1427.00,90.53
1426.00,90.54
1425.00,90.55
1424.00,90.54
1423.00,90.52
1422.00,90.51
1421.00,90.51
1420.00,90.51
1419.00,90.49
1418.00,90.45
1417.00,90.42
1416.00,90.40
1415.00,90.39
1414.00,90.39
1413.00,90.39
1412.00,90.38
1411.00,90.38
1410.00,90.39
1409.00,90.39
1408.00,90.39
1407.00,90.38
1406.00,90.38
1405.00,90.37
1404.00,90.34
1403.00,90.32
1402.00,90.30
1401.00,90.30
1400.00,90.30
1399.00,90.28
1398.00,90.26
1397.00,90.23
1396.00,90.21
1395.00,90.18
1394.00,90.15
1393.00,90.11
1392.00,90.08
1391.00,90.05
1390.00,90.04
1389.00,90.02
1388.00,89.98
1387.00,89.92
1386.00,89.85
1385.00,89.78
1384.00,89.71
1383.00,89.63
1382.00,89.56
1381.00,89.49
1380.00,89.43
1379.00,89.38
1378.00,89.34
1377.00,89.29
1376.00,89.25
1375.00,89.20
1374.00,89.16
1373.00,89.12
1372.00,89.08
1371.00,89.06
1370.00,89.05
1369.00,89.05
1368.00,89.06
1367.00,89.08
1366.00,89.12
1365.00,89.17
1364.00,89.23
1363.00,89.28
1362.00,89.32
1361.00,89.37
1360.00,89.43
1359.00,89.50
1358.00,89.57
1357.00,89.63
1356.00,89.68
1355.00,89.74
1354.00,89.80
1353.00,89.86
1352.00,89.90
1351.00,89.94
1350.00,89.98
1349.00,89.99
1348.00,89.99
1347.00,89.97
1346.00,89.96
1345.00,89.96
1344.00,89.95
1343.00,89.94
1342.00,89.93
1341.00,89.91
1340.00,89.89
1339.00,89.86
1338.00,89.83
1337.00,89.80
1336.00,89.80
1335.00,89.81
1334.00,89.82
1333.00,89.82
1332.00,89.81
1331.00,89.80
1330.00,89.81
1329.00,89.83
1328.00,89.85
1327.00,89.86
1326.00,89.87
1325.00,89.86
1324.00,89.85
1323.00,89.81
1322.00,89.77
1321.00,89.72
1320.00,89.66
1319.00,89.58
1318.00,89.49
1317.00,89.41
1316.00,89.37
1315.00,89.36
1314.00,89.36
1313.00,89.36
1312.00,89.35
1311.00,89.37
1310.00,89.40
1309.00,89.44
1308.00,89.49
1307.00,89.55
1306.00,89.61
1305.00,89.68
1304.00,89.74
1303.00,89.80
1302.00,89.86
1301.00,89.92
1300.00,89.97
1299.00,90.03
1298.00,90.09
1297.00,90.15
1296.00,90.21
1295.00,90.27
1294.00,90.34
1293.00,90.41
1292.00,90.48
1291.00,90.55
1290.00,90.61
1289.00,90.67
1288.00,90.70
1287.00,90.73
1286.00,90.74
1285.00,90.74
1284.00,90.73
1283.00,90.70
1282.00,90.67
1281.00,90.63
1280.00,90.60
1279.00,90.58
1278.00,90.57
1277.00,90.55
1276.00,90.53
1275.00,90.52
1274.00,90.52
1273.00,90.51
1272.00,90.47
1271.00,90.43
1270.00,90.39
1269.00,90.35
1268.00,90.32
1267.00,90.30
1266.00,90.30
1265.00,90.29
1264.00,90.28
1263.00,90.25
1262.00,90.21
1261.00,90.17
1260.00,90.15
1259.00,90.15
1258.00,90.16
1257.00,90.18
1256.00,90.21
1255.00,90.24
1254.00,90.27
1253.00,90.29
1252.00,90.30
1251.00,90.31
1250.00,90.32
1249.00,90.33
1248.00,90.34
1247.00,90.35
1246.00,90.35
1245.00,90.33
1244.00,90.30
1243.00,90.27
1242.00,90.25
1241.00,90.22
1240.00,90.18
1239.00,90.14
1238.00,90.12
1237.00,90.12
1236.00,90.13
1235.00,90.14
1234.00,90.15
1233.00,90.17
1232.00,90.20
1231.00,90.24
1230.00,90.28
1229.00,90.32
1228.00,90.37
1227.00,90.44
1226.00,90.51
1225.00,90.59
1224.00,90.67
1223.00,90.77
1222.00,90.86
1221.00,90.95
1220.00,91.04
1219.00,91.14
1218.00,91.24
1217.00,91.34
1216.00,91.41
1215.00,91.45
1214.00,91.50
1213.00,91.54
1212.00,91.56
1211.00,91.54
1210.00,91.50
1209.00,91.45
1208.00,91.41
1207.00,91.36
1206.00,91.31
1205.00,91.24
1204.00,91.18
1203.00,91.15
1202.00,91.13
1201.00,91.14
1200.00,91.16
1199.00,91.19
1198.00,91.23
1197.00,91.27
1196.00,91.34
1195.00,91.42
1194.00,91.52
1193.00,91.63
1192.00,91.75
1191.00,91.86
1190.00,91.98
1189.00,92.07
1188.00,92.15
1187.00,92.21
1186.00,92.24
1185.00,92.25
1184.00,92.24
1183.00,92.23
1182.00,92.20
1181.00,92.13
1180.00,92.03
1179.00,91.91
1178.00,91.78
1177.00,91.65
1176.00,91.50
1175.00,91.35
1174.00,91.19
1173.00,91.01
1172.00,90.82
1171.00,90.61
1170.00,90.40
1169.00,90.15
1168.00,89.89
1167.00,89.62
1166.00,89.35
1165.00,89.07
1164.00,88.77
1163.00,88.47
1162.00,88.20
1161.00,87.97
1160.00,87.77
1159.00,87.61
1158.00,87.50
1157.00,87.46
1156.00,87.47
1155.00,87.51
1154.00,87.59
1153.00,87.68
1152.00,87.81
1151.00,87.95
1150.00,88.11
1149.00,88.27
1148.00,88.45
1147.00,88.63
1146.00,88.82
1145.00,88.98
1144.00,89.10
1143.00,89.20
1142.00,89.26
1141.00,89.26
1140.00,89.22
1139.00,89.16
1138.00,89.09
1137.00,89.01
1136.00,88.92
1135.00,88.82
1134.00,88.70
1133.00,88.58
1132.00,88.43
1131.00,88.26
1130.00,88.07
1129.00,87.86
1128.00,87.66
1127.00,87.44
1126.00,87.23
1125.00,87.02
1124.00,86.81
1123.00,86.62
1122.00,86.43
1121.00,86.24
1120.00,86.03
1119.00,85.82
1118.00,85.61
1117.00,85.43
1116.00,85.27
1115.00,85.14
1114.00,85.01
1113.00,84.89
1112.00,84.77
1111.00,84.68
1110.00,84.62
1109.00,84.56
1108.00,84.49
1107.00,84.41
1106.00,84.33
1105.00,84.25
1104.00,84.16
1103.00,84.03
1102.00,83.88
1101.00,83.73
1100.00,83.58
1099.00,83.43
1098.00,83.29
1097.00,83.13
1096.00,82.97
1095.00,82.83
1094.00,82.71
1093.00,82.61
1092.00,82.52
1091.00,82.42
1090.00,82.32
1089.00,82.20
1088.00,82.09
1087.00,81.98
1086.00,81.87
1085.00,81.73
1084.00,81.56
1083.00,81.38
1082.00,81.19
1081.00,80.98
1080.00,80.77
1079.00,80.55
1078.00,80.33
1077.00,80.11
1076.00,79.88
1075.00,79.66
1074.00,79.48
1073.00,79.30
1072.00,79.11
1071.00,78.89
1070.00,78.67
1069.00,78.47
1068.00,78.29
1067.00,78.12
1066.00,77.94
1065.00,77.75
1064.00,77.57
1063.00,77.43
1062.00,77.31
1061.00,77.17
1060.00,77.02
1059.00,76.89
1058.00,76.79
1057.00,76.69
1056.00,76.60
1055.00,76.52
1054.00,76.45
1053.00,76.38
1052.00,76.32
1051.00,76.30
1050.00,76.31
1049.00,76.31
1048.00,76.27
1047.00,76.21
1046.00,76.16
1045.00,76.12
1044.00,76.10
1043.00,76.08
1042.00,76.08
1041.00,76.06
1040.00,76.03
1039.00,76.00
1038.00,75.98
1037.00,75.95
1036.00,75.90
1035.00,75.81
1034.00,75.69
1033.00,75.54
1032.00,75.36
1031.00,75.18
1030.00,75.02
1029.00,74.87
1028.00,74.72
1027.00,74.58
1026.00,74.45
1025.00,74.30
1024.00,74.15
1023.00,74.01
1022.00,73.90
1021.00,73.81
1020.00,73.74
1019.00,73.70
1018.00,73.70
1017.00,73.75
1016.00,73.84
1015.00,73.95
1014.00,74.07
1013.00,74.22
1012.00,74.39
1011.00,74.57
1010.00,74.76
1009.00,74.94
1008.00,75.12
1007.00,75.29
1006.00,75.45
1005.00,75.56
1004.00,75.63
1003.00,75.68
1002.00,75.69
1001.00,75.64
1000.00,75.55
999.00,75.44
998.00,75.34
997.00,75.24
996.00,75.17
995.00,75.15
994.00,75.17
993.00,75.23
992.00,75.31
991.00,75.44
990.00,75.62
989.00,75.86
988.00,76.14
987.00,76.47
986.00,76.82
985.00,77.18
984.00,77.55
983.00,77.93
982.00,78.30
981.00,78.67
980.00,79.03
979.00,79.40
978.00,79.76
977.00,80.09
976.00,80.38
975.00,80.63
974.00,80.86
973.00,81.07
972.00,81.28
971.00,81.47
970.00,81.64
969.00,81.79
968.00,81.93
967.00,82.09
966.00,82.25
965.00,82.40
964.00,82.53
963.00,82.67
962.00,82.83
961.00,83.01
960.00,83.18
959.00,83.34
958.00,83.50
957.00,83.68
956.00,83.88
955.00,84.07
954.00,84.26
953.00,84.44
952.00,84.60
951.00,84.77
950.00,84.93
949.00,85.10
948.00,85.27
947.00,85.43
946.00,85.58
945.00,85.71
944.00,85.82
943.00,85.95
942.00,86.07
941.00,86.17
940.00,86.23
939.00,86.29
938.00,86.35
937.00,86.43
936.00,86.50
935.00,86.57
934.00,86.64
933.00,86.73
932.00,86.80
931.00,86.86
930.00,86.90
929.00,86.93
928.00,86.98
927.00,87.04
926.00,87.11
925.00,87.18
924.00,87.23
923.00,87.29
922.00,87.36
921.00,87.43
920.00,87.50
919.00,87.58
918.00,87.64
917.00,87.70
916.00,87.73
915.00,87.76
914.00,87.78
913.00,87.79
912.00,87.76
911.00,87.70
910.00,87.63
909.00,87.55
908.00,87.46
907.00,87.34
906.00,87.19
905.00,87.05
904.00,86.92
903.00,86.80
902.00,86.67
901.00,86.52
900.00,86.35
899.00,86.17
898.00,86.01
897.00,85.87
896.00,85.77
895.00,85.71
894.00,85.68
893.00,85.69
892.00,85.73
891.00,85.84
890.00,86.00
889.00,86.18
888.00,86.36
887.00,86.53
886.00,86.71
885.00,86.88
884.00,87.03
883.00,87.18
882.00,87.32
881.00,87.47
880.00,87.61
879.00,87.76
878.00,87.91
877.00,88.03
876.00,88.12
875.00,88.17
874.00,88.20
873.00,88.25
872.00,88.33
871.00,88.42
870.00,88.50
869.00,88.58
868.00,88.63
867.00,88.65
866.00,88.67
865.00,88.70
864.00,88.75
863.00,88.80
862.00,88.83
861.00,88.81
860.00,88.79
859.00,88.78
858.00,88.79
857.00,88.79
856.00,88.78
855.00,88.77
854.00,88.79
853.00,88.81
852.00,88.79
851.00,88.76
850.00,88.75
849.00,88.79
848.00,88.84
847.00,88.85
846.00,88.81
845.00,88.77
844.00,88.73
843.00,88.70
842.00,88.66
841.00,88.63
840.00,88.62
839.00,88.64
838.00,88.63
837.00,88.58
836.00,88.50
835.00,88.45
834.00,88.44
833.00,88.44
832.00,88.41
831.00,88.35
830.00,88.32
829.00,88.33
828.00,88.36
827.00,88.38
826.00,88.38
825.00,88.36
824.00,88.34
823.00,88.31
822.00,88.27
821.00,88.21
820.00,88.16
819.00,88.15
818.00,88.15
817.00,88.15
816.00,88.15
815.00,88.14
814.00,88.11
813.00,88.07
812.00,88.02
811.00,87.98
810.00,87.94
809.00,87.90
808.00,87.87
807.00,87.87
806.00,87.89
805.00,87.89
804.00,87.85
803.00,87.80
802.00,87.74
801.00,87.69
800.00,87.64
799.00,87.62
798.00,87.62
797.00,87.62
796.00,87.59
795.00,87.52
794.00,87.44
793.00,87.37
792.00,87.32
791.00,87.27
790.00,87.24
789.00,87.23
788.00,87.24
787.00,87.23
786.00,87.18
785.00,87.07
784.00,86.95
783.00,86.87
782.00,86.84
781.00,86.82
780.00,86.79
779.00,86.77
778.00,86.75
777.00,86.71
776.00,86.64
775.00,86.57
774.00,86.53
773.00,86.51
772.00,86.48
771.00,86.43
770.00,86.38
769.00,86.37
768.00,86.36
767.00,86.32
766.00,86.24
765.00,86.17
764.00,86.14
763.00,86.12
762.00,86.07
761.00,85.98
760.00,85.90
759.00,85.86
758.00,85.82
757.00,85.75
756.00,85.68
755.00,85.61
754.00,85.56
753.00,85.49
752.00,85.40
751.00,85.34
750.00,85.30
749.00,85.27
748.00,85.21
747.00,85.13
746.00,85.07
745.00,85.05
744.00,85.03
743.00,84.98
742.00,84.91
741.00,84.85
740.00,84.82
739.00,84.78
738.00,84.70
737.00,84.59
736.00,84.52
735.00,84.51
734.00,84.51
733.00,84.48
732.00,84.40
731.00,84.31
730.00,84.22
729.00,84.12
728.00,84.01
727.00,83.94
726.00,83.90
725.00,83.85
724.00,83.75
723.00,83.64
722.00,83.54
721.00,83.48
720.00,83.42
719.00,83.34
718.00,83.26
717.00,83.20
716.00,83.17
715.00,83.12
714.00,83.03
713.00,82.92
712.00,82.86
711.00,82.89
710.00,82.94
709.00,82.92
708.00,82.83
707.00,82.73
706.00,82.67
705.00,82.60
704.00,82.47
703.00,82.32
702.00,82.25
701.00,82.24
700.00,82.22
699.00,82.15
698.00,82.06
697.00,82.02
696.00,82.02
695.00,82.02
694.00,81.96
693.00,81.87
692.00,81.83
691.00,81.86
690.00,81.90
689.00,81.89
688.00,81.85
687.00,81.84
686.00,81.83
685.00,81.75
684.00,81.59
683.00,81.45
682.00,81.39
681.00,81.35
680.00,81.21
679.00,80.93
678.00,80.59
677.00,80.23
676.00,79.89
675.00,79.57
674.00,79.26
673.00,79.00
672.00,78.81
671.00,78.68
670.00,78.55
669.00,78.24
668.00,77.72
667.00,77.46
666.00,77.59
665.00,77.77
664.00,77.81
663.00,77.75
662.00,77.74
661.00,77.77
660.00,77.75
659.00,77.62
658.00,77.49
657.00,77.44
656.00,77.47
655.00,77.50
654.00,77.46
653.00,77.40
652.00,77.41
651.00,77.48
650.00,77.51
649.00,77.40
648.00,77.24
647.00,77.22
646.00,77.39
645.00,77.54
644.00,77.50
643.00,77.32
642.00,77.18
641.00,77.13
640.00,77.08
639.00,76.98
638.00,76.88
637.00,76.81
636.00,76.77
635.00,76.70
634.00,76.56
633.00,76.35
632.00,76.17
631.00,76.12
630.00,76.19
629.00,76.23
628.00,76.17
627.00,76.04
626.00,75.91
625.00,75.74
624.00,75.55
623.00,75.44
622.00,75.49
621.00,75.55
620.00,75.47
619.00,75.34
618.00,75.33
617.00,75.40
616.00,75.39
615.00,75.22
614.00,75.02
613.00,74.89
612.00,74.83
611.00,74.80
610.00,74.66
609.00,74.32
608.00,73.90
607.00,73.67
606.00,73.70
605.00,73.76
604.00,73.67
603.00,73.57
602.00,73.70
601.00,74.00
600.00,74.24
599.00,74.24
598.00,74.04
597.00,73.81
596.00,73.72
595.00,73.86
594.00,74.12
593.00,74.26
592.00,74.16
591.00,73.91
590.00,73.69
589.00,73.60
588.00,73.71
587.00,74.00
586.00,74.26
585.00,74.11
584.00,73.48
583.00,72.81
582.00,72.59
581.00,72.84
580.00,73.17
579.00,73.38
578.00,73.56
577.00,73.79
576.00,74.01
575.00,74.12
574.00,74.03
573.00,73.76
572.00,73.38
571.00,72.97
570.00,72.57
569.00,72.26
568.00,72.25
567.00,72.69
566.00,73.20
565.00,73.24
564.00,72.76
563.00,72.26
562.00,72.02
561.00,71.75
560.00,71.08
559.00,70.20
558.00,69.74
557.00,69.98
556.00,70.75
555.00,71.51
554.00,71.80
553.00,71.65
552.00,71.58
551.00,71.77
550.00,71.87
