Created as New Dataset,13.3 Red Wool Romney sheep
cm-1,%T
4000.00,100.75
3999.00,100.76
3998.00,100.77
3997.00,100.77
3996.00,100.76
3995.00,100.75
3994.00,100.75
3993.00,100.75
3992.00,100.77
3991.00,100.78
3990.00,100.77
3989.00,100.74
3988.00,100.71
3987.00,100.68
3986.00,100.67
3985.00,100.69
3984.00,100.71
3983.00,100.73
3982.00,100.73
3981.00,100.72
3980.00,100.72
3979.00,100.72
3978.00,100.73
3977.00,100.74
3976.00,100.75
3975.00,100.76
3974.00,100.76
3973.00,100.75
3972.00,100.73
3971.00,100.71
3970.00,100.71
3969.00,100.71
3968.00,100.73
3967.00,100.73
3966.00,100.72
3965.00,100.71
3964.00,100.70
3963.00,100.69
3962.00,100.69
3961.00,100.70
3960.00,100.70
3959.00,100.71
3958.00,100.72
3957.00,100.74
3956.00,100.74
3955.00,100.74
3954.00,100.72
3953.00,100.71
3952.00,100.69
3951.00,100.68
3950.00,100.68
3949.00,100.70
3948.00,100.71
3947.00,100.72
3946.00,100.72
3945.00,100.71
3944.00,100.72
3943.00,100.73
3942.00,100.74
3941.00,100.73
3940.00,100.72
3939.00,100.72
3938.00,100.72
3937.00,100.73
3936.00,100.72
3935.00,100.71
3934.00,100.71
3933.00,100.72
3932.00,100.73
3931.00,100.73
3930.00,100.73
3929.00,100.73
3928.00,100.72
3927.00,100.72
3926.00,100.71
3925.00,100.70
3924.00,100.69
3923.00,100.67
3922.00,100.65
3921.00,100.64
3920.00,100.64
3919.00,100.65
3918.00,100.65
3917.00,100.66
3916.00,100.68
3915.00,100.69
3914.00,100.69
3913.00,100.69
3912.00,100.70
3911.00,100.71
3910.00,100.73
3909.00,100.73
3908.00,100.72
3907.00,100.69
3906.00,100.65
3905.00,100.63
3904.00,100.62
3903.00,100.61
3902.00,100.58
3901.00,100.56
3900.00,100.56
3899.00,100.59
3898.00,100.64
3897.00,100.68
3896.00,100.71
3895.00,100.73
3894.00,100.73
3893.00,100.72
3892.00,100.72
3891.00,100.73
3890.00,100.73
3889.00,100.71
3888.00,100.66
3887.00,100.66
3886.00,100.69
3885.00,100.71
3884.00,100.68
3883.00,100.61
3882.00,100.57
3881.00,100.58
3880.00,100.63
3879.00,100.66
3878.00,100.66
3877.00,100.65
3876.00,100.66
3875.00,100.70
3874.00,100.72
3873.00,100.69
3872.00,100.64
3871.00,100.62
3870.00,100.67
3869.00,100.69
3868.00,100.64
3867.00,100.57
3866.00,100.55
3865.00,100.59
3864.00,100.64
3863.00,100.66
3862.00,100.67
3861.00,100.68
3860.00,100.70
3859.00,100.74
3858.00,100.76
3857.00,100.76
3856.00,100.74
3855.00,100.71
3854.00,100.69
3853.00,100.64
3852.00,100.58
3851.00,100.56
3850.00,100.58
3849.00,100.63
3848.00,100.68
3847.00,100.70
3846.00,100.70
3845.00,100.68
3844.00,100.67
3843.00,100.66
3842.00,100.64
3841.00,100.59
3840.00,100.55
3839.00,100.52
3838.00,100.50
3837.00,100.49
3836.00,100.49
3835.00,100.49
3834.00,100.50
3833.00,100.53
3832.00,100.59
3831.00,100.64
3830.00,100.67
3829.00,100.69
3828.00,100.70
3827.00,100.72
3826.00,100.74
3825.00,100.73
3824.00,100.68
3823.00,100.64
3822.00,100.68
3821.00,100.73
3820.00,100.73
3819.00,100.66
3818.00,100.57
3817.00,100.56
3816.00,100.62
3815.00,100.66
3814.00,100.66
3813.00,100.65
3812.00,100.66
3811.00,100.68
3810.00,100.69
3809.00,100.67
3808.00,100.66
3807.00,100.68
3806.00,100.68
3805.00,100.65
3804.00,100.59
3803.00,100.55
3802.00,100.56
3801.00,100.57
3800.00,100.54
3799.00,100.49
3798.00,100.47
3797.00,100.51
3796.00,100.58
3795.00,100.63
3794.00,100.64
3793.00,100.64
3792.00,100.63
3791.00,100.62
3790.00,100.62
3789.00,100.62
3788.00,100.63
3787.00,100.62
3786.00,100.60
3785.00,100.58
3784.00,100.57
3783.00,100.55
3782.00,100.52
3781.00,100.51
3780.00,100.52
3779.00,100.54
3778.00,100.55
3777.00,100.55
3776.00,100.57
3775.00,100.59
3774.00,100.61
3773.00,100.61
3772.00,100.61
3771.00,100.62
3770.00,100.63
3769.00,100.63
3768.00,100.59
3767.00,100.55
3766.00,100.54
3765.00,100.55
3764.00,100.55
3763.00,100.53
3762.00,100.51
3761.00,100.52
3760.00,100.56
3759.00,100.58
3758.00,100.59
3757.00,100.60
3756.00,100.60
3755.00,100.59
3754.00,100.58
3753.00,100.57
3752.00,100.56
3751.00,100.53
3750.00,100.51
3749.00,100.51
3748.00,100.50
3747.00,100.47
3746.00,100.46
3745.00,100.51
3744.00,100.55
3743.00,100.52
3742.00,100.46
3741.00,100.43
3740.00,100.45
3739.00,100.48
3738.00,100.49
3737.00,100.48
3736.00,100.46
3735.00,100.43
3734.00,100.38
3733.00,100.34
3732.00,100.34
3731.00,100.36
3730.00,100.36
3729.00,100.35
3728.00,100.35
3727.00,100.37
3726.00,100.37
3725.00,100.34
3724.00,100.32
3723.00,100.32
3722.00,100.34
3721.00,100.37
3720.00,100.37
3719.00,100.36
3718.00,100.35
3717.00,100.35
3716.00,100.35
3715.00,100.36
3714.00,100.38
3713.00,100.40
3712.00,100.41
3711.00,100.37
3710.00,100.32
3709.00,100.28
3708.00,100.28
3707.00,100.29
3706.00,100.31
3705.00,100.31
3704.00,100.33
3703.00,100.35
3702.00,100.37
3701.00,100.37
3700.00,100.33
3699.00,100.26
3698.00,100.23
3697.00,100.23
3696.00,100.26
3695.00,100.27
3694.00,100.24
3693.00,100.19
3692.00,100.11
3691.00,100.03
3690.00,99.97
3689.00,99.96
3688.00,99.97
3687.00,99.98
3686.00,99.98
3685.00,99.99
3684.00,100.01
3683.00,100.02
3682.00,100.02
3681.00,100.00
3680.00,99.97
3679.00,99.92
3678.00,99.82
3677.00,99.73
3676.00,99.69
3675.00,99.69
3674.00,99.66
3673.00,99.60
3672.00,99.55
3671.00,99.56
3670.00,99.61
3669.00,99.61
3668.00,99.56
3667.00,99.50
3666.00,99.45
3665.00,99.41
3664.00,99.38
3663.00,99.34
3662.00,99.31
3661.00,99.26
3660.00,99.20
3659.00,99.12
3658.00,99.05
3657.00,99.01
3656.00,99.00
3655.00,98.97
3654.00,98.91
3653.00,98.84
3652.00,98.79
3651.00,98.76
3650.00,98.71
3649.00,98.60
3648.00,98.50
3647.00,98.44
3646.00,98.40
3645.00,98.36
3644.00,98.32
3643.00,98.27
3642.00,98.22
3641.00,98.17
3640.00,98.12
3639.00,98.08
3638.00,98.05
3637.00,98.00
3636.00,97.93
3635.00,97.86
3634.00,97.79
3633.00,97.72
3632.00,97.62
3631.00,97.51
3630.00,97.42
3629.00,97.36
3628.00,97.28
3627.00,97.21
3626.00,97.15
3625.00,97.11
3624.00,97.09
3623.00,97.04
3622.00,96.97
3621.00,96.89
3620.00,96.82
3619.00,96.77
3618.00,96.71
3617.00,96.63
3616.00,96.52
3615.00,96.41
3614.00,96.33
3613.00,96.29
3612.00,96.27
3611.00,96.22
3610.00,96.15
3609.00,96.06
3608.00,95.97
3607.00,95.89
3606.00,95.83
3605.00,95.79
3604.00,95.76
3603.00,95.72
3602.00,95.67
3601.00,95.59
3600.00,95.49
3599.00,95.38
3598.00,95.28
3597.00,95.17
3596.00,95.08
3595.00,95.01
3594.00,94.96
3593.00,94.93
3592.00,94.89
3591.00,94.83
3590.00,94.75
3589.00,94.65
3588.00,94.55
3587.00,94.46
3586.00,94.39
3585.00,94.35
3584.00,94.32
3583.00,94.29
3582.00,94.24
3581.00,94.18
3580.00,94.09
3579.00,94.00
3578.00,93.92
3577.00,93.83
3576.00,93.74
3575.00,93.66
3574.00,93.60
3573.00,93.54
3572.00,93.49
3571.00,93.41
3570.00,93.32
3569.00,93.21
3568.00,93.11
3567.00,93.02
3566.00,92.94
3565.00,92.87
3564.00,92.79
3563.00,92.72
3562.00,92.64
3561.00,92.57
3560.00,92.51
3559.00,92.44
3558.00,92.36
3557.00,92.29
3556.00,92.22
3555.00,92.15
3554.00,92.08
3553.00,92.01
3552.00,91.96
3551.00,91.90
3550.00,91.83
3549.00,91.75
3548.00,91.66
3547.00,91.58
3546.00,91.49
3545.00,91.40
3544.00,91.31
3543.00,91.23
3542.00,91.16
3541.00,91.10
3540.00,91.04
3539.00,90.98
3538.00,90.90
3537.00,90.82
3536.00,90.74
3535.00,90.66
3534.00,90.58
3533.00,90.51
3532.00,90.45
3531.00,90.41
3530.00,90.35
3529.00,90.28
3528.00,90.20
3527.00,90.12
3526.00,90.03
3525.00,89.94
3524.00,89.84
3523.00,89.75
3522.00,89.67
3521.00,89.59
3520.00,89.52
3519.00,89.46
3518.00,89.41
3517.00,89.36
3516.00,89.31
3515.00,89.25
3514.00,89.18
3513.00,89.10
3512.00,89.01
3511.00,88.91
3510.00,88.83
3509.00,88.76
3508.00,88.70
3507.00,88.63
3506.00,88.57
3505.00,88.50
3504.00,88.43
3503.00,88.36
3502.00,88.30
3501.00,88.25
3500.00,88.18
3499.00,88.10
3498.00,88.03
3497.00,87.95
3496.00,87.89
3495.00,87.83
3494.00,87.78
3493.00,87.73
3492.00,87.66
3491.00,87.58
3490.00,87.51
3489.00,87.45
3488.00,87.39
3487.00,87.34
3486.00,87.27
3485.00,87.19
3484.00,87.11
3483.00,87.04
3482.00,86.99
3481.00,86.94
3480.00,86.88
3479.00,86.80
3478.00,86.73
3477.00,86.66
3476.00,86.61
3475.00,86.57
3474.00,86.53
3473.00,86.47
3472.00,86.40
3471.00,86.32
3470.00,86.23
3469.00,86.14
3468.00,86.07
3467.00,86.03
3466.00,86.00
3465.00,85.97
3464.00,85.92
3463.00,85.85
3462.00,85.78
3461.00,85.72
3460.00,85.67
3459.00,85.62
3458.00,85.57
3457.00,85.51
3456.00,85.44
3455.00,85.38
3454.00,85.33
3453.00,85.29
3452.00,85.25
3451.00,85.21
3450.00,85.16
3449.00,85.09
3448.00,85.02
3447.00,84.96
3446.00,84.90
3445.00,84.85
3444.00,84.79
3443.00,84.74
3442.00,84.70
3441.00,84.66
3440.00,84.61
3439.00,84.56
3438.00,84.48
3437.00,84.41
3436.00,84.35
3435.00,84.30
3434.00,84.25
3433.00,84.20
3432.00,84.15
3431.00,84.09
3430.00,84.03
3429.00,83.96
3428.00,83.90
3427.00,83.84
3426.00,83.79
3425.00,83.74
3424.00,83.69
3423.00,83.65
3422.00,83.61
3421.00,83.57
3420.00,83.53
3419.00,83.47
3418.00,83.41
3417.00,83.35
3416.00,83.30
3415.00,83.27
3414.00,83.23
3413.00,83.18
3412.00,83.14
3411.00,83.10
3410.00,83.07
3409.00,83.06
3408.00,83.03
3407.00,82.99
3406.00,82.94
3405.00,82.89
3404.00,82.84
3403.00,82.80
3402.00,82.75
3401.00,82.70
3400.00,82.64
3399.00,82.59
3398.00,82.54
3397.00,82.50
3396.00,82.46
3395.00,82.42
3394.00,82.37
3393.00,82.32
3392.00,82.28
3391.00,82.24
3390.00,82.21
3389.00,82.18
3388.00,82.14
3387.00,82.11
3386.00,82.08
3385.00,82.04
3384.00,82.00
3383.00,81.94
3382.00,81.89
3381.00,81.85
3380.00,81.82
3379.00,81.80
3378.00,81.79
3377.00,81.77
3376.00,81.74
3375.00,81.71
3374.00,81.66
3373.00,81.61
3372.00,81.55
3371.00,81.51
3370.00,81.46
3369.00,81.41
3368.00,81.36
3367.00,81.30
3366.00,81.26
3365.00,81.23
3364.00,81.22
3363.00,81.21
3362.00,81.20
3361.00,81.18
3360.00,81.16
3359.00,81.13
3358.00,81.10
3357.00,81.07
3356.00,81.04
3355.00,81.00
3354.00,80.96
3353.00,80.91
3352.00,80.86
3351.00,80.82
3350.00,80.78
3349.00,80.74
3348.00,80.70
3347.00,80.67
3346.00,80.65
3345.00,80.63
3344.00,80.61
3343.00,80.59
3342.00,80.57
3341.00,80.54
3340.00,80.52
3339.00,80.49
3338.00,80.45
3337.00,80.41
3336.00,80.36
3335.00,80.29
3334.00,80.23
3333.00,80.18
3332.00,80.15
3331.00,80.14
3330.00,80.14
3329.00,80.13
3328.00,80.09
3327.00,80.04
3326.00,79.99
3325.00,79.95
3324.00,79.90
3323.00,79.86
3322.00,79.83
3321.00,79.79
3320.00,79.75
3319.00,79.72
3318.00,79.68
3317.00,79.64
3316.00,79.60
3315.00,79.56
3314.00,79.52
3313.00,79.47
3312.00,79.42
3311.00,79.38
3310.00,79.35
3309.00,79.32
3308.00,79.28
3307.00,79.24
3306.00,79.20
3305.00,79.15
3304.00,79.10
3303.00,79.06
3302.00,79.04
3301.00,79.02
3300.00,78.99
3299.00,78.94
3298.00,78.89
3297.00,78.85
3296.00,78.82
3295.00,78.80
3294.00,78.78
3293.00,78.76
3292.00,78.73
3291.00,78.70
3290.00,78.65
3289.00,78.61
3288.00,78.59
3287.00,78.58
3286.00,78.57
3285.00,78.55
3284.00,78.53
3283.00,78.51
3282.00,78.50
3281.00,78.51
3280.00,78.52
3279.00,78.54
3278.00,78.56
3277.00,78.56
3276.00,78.56
3275.00,78.56
3274.00,78.58
3273.00,78.60
3272.00,78.63
3271.00,78.66
3270.00,78.69
3269.00,78.71
3268.00,78.73
3267.00,78.76
3266.00,78.80
3265.00,78.83
3264.00,78.86
3263.00,78.87
3262.00,78.89
3261.00,78.93
3260.00,78.98
3259.00,79.05
3258.00,79.12
3257.00,79.17
3256.00,79.21
3255.00,79.24
3254.00,79.28
3253.00,79.33
3252.00,79.39
3251.00,79.46
3250.00,79.51
3249.00,79.56
3248.00,79.61
3247.00,79.66
3246.00,79.72
3245.00,79.77
3244.00,79.82
3243.00,79.87
3242.00,79.92
3241.00,79.97
3240.00,80.03
3239.00,80.08
3238.00,80.12
3237.00,80.16
3236.00,80.21
3235.00,80.26
3234.00,80.31
3233.00,80.35
3232.00,80.38
3231.00,80.42
3230.00,80.46
3229.00,80.51
3228.00,80.56
3227.00,80.60
3226.00,80.64
3225.00,80.68
3224.00,80.72
3223.00,80.75
3222.00,80.77
3221.00,80.80
3220.00,80.84
3219.00,80.89
3218.00,80.94
3217.00,80.98
3216.00,81.02
3215.00,81.07
3214.00,81.12
3213.00,81.18
3212.00,81.24
3211.00,81.30
3210.00,81.36
3209.00,81.42
3208.00,81.47
3207.00,81.52
3206.00,81.57
3205.00,81.62
3204.00,81.66
3203.00,81.69
3202.00,81.72
3201.00,81.75
3200.00,81.80
3199.00,81.85
3198.00,81.91
3197.00,81.97
3196.00,82.04
3195.00,82.11
3194.00,82.19
3193.00,82.26
3192.00,82.33
3191.00,82.39
3190.00,82.45
3189.00,82.51
3188.00,82.57
3187.00,82.63
3186.00,82.69
3185.00,82.75
3184.00,82.82
3183.00,82.90
3182.00,82.98
3181.00,83.06
3180.00,83.15
3179.00,83.23
3178.00,83.30
3177.00,83.37
3176.00,83.44
3175.00,83.50
3174.00,83.56
3173.00,83.62
3172.00,83.68
3171.00,83.75
3170.00,83.82
3169.00,83.88
3168.00,83.94
3167.00,84.00
3166.00,84.07
3165.00,84.14
3164.00,84.22
3163.00,84.30
3162.00,84.38
3161.00,84.46
3160.00,84.54
3159.00,84.61
3158.00,84.69
3157.00,84.77
3156.00,84.85
3155.00,84.93
3154.00,85.02
3153.00,85.09
3152.00,85.17
3151.00,85.24
3150.00,85.30
3149.00,85.36
3148.00,85.42
3147.00,85.47
3146.00,85.53
3145.00,85.58
3144.00,85.64
3143.00,85.69
3142.00,85.75
3141.00,85.81
3140.00,85.88
3139.00,85.97
3138.00,86.05
3137.00,86.14
3136.00,86.21
3135.00,86.27
3134.00,86.33
3133.00,86.38
3132.00,86.44
3131.00,86.50
3130.00,86.55
3129.00,86.59
3128.00,86.62
3127.00,86.66
3126.00,86.71
3125.00,86.76
3124.00,86.82
3123.00,86.88
3122.00,86.92
3121.00,86.97
3120.00,87.02
3119.00,87.09
3118.00,87.14
3117.00,87.18
3116.00,87.21
3115.00,87.24
3114.00,87.26
3113.00,87.30
3112.00,87.34
3111.00,87.37
3110.00,87.40
3109.00,87.42
3108.00,87.43
3107.00,87.45
3106.00,87.49
3105.00,87.53
3104.00,87.57
3103.00,87.60
3102.00,87.62
3101.00,87.65
3100.00,87.68
3099.00,87.72
3098.00,87.74
3097.00,87.76
3096.00,87.77
3095.00,87.78
3094.00,87.79
3093.00,87.81
3092.00,87.83
3091.00,87.86
3090.00,87.88
3089.00,87.90
3088.00,87.90
3087.00,87.91
3086.00,87.94
3085.00,87.97
3084.00,88.01
3083.00,88.04
3082.00,88.06
3081.00,88.07
3080.00,88.06
3079.00,88.06
3078.00,88.07
3077.00,88.10
3076.00,88.12
3075.00,88.14
3074.00,88.15
3073.00,88.17
3072.00,88.19
3071.00,88.22
3070.00,88.25
3069.00,88.28
3068.00,88.30
3067.00,88.32
3066.00,88.34
3065.00,88.37
3064.00,88.39
3063.00,88.43
3062.00,88.47
3061.00,88.52
3060.00,88.57
3059.00,88.62
3058.00,88.67
3057.00,88.73
3056.00,88.78
3055.00,88.82
3054.00,88.86
3053.00,88.89
3052.00,88.93
3051.00,88.98
3050.00,89.03
3049.00,89.09
3048.00,89.15
3047.00,89.21
3046.00,89.26
3045.00,89.31
3044.00,89.35
3043.00,89.40
3042.00,89.46
3041.00,89.51
3040.00,89.56
3039.00,89.62
3038.00,89.68
3037.00,89.73
3036.00,89.78
3035.00,89.83
3034.00,89.88
3033.00,89.94
3032.00,90.00
3031.00,90.05
3030.00,90.10
3029.00,90.16
3028.00,90.21
3027.00,90.27
3026.00,90.32
3025.00,90.36
3024.00,90.41
3023.00,90.47
3022.00,90.53
3021.00,90.59
3020.00,90.64
3019.00,90.69
3018.00,90.74
3017.00,90.78
3016.00,90.82
3015.00,90.85
3014.00,90.87
3013.00,90.90
3012.00,90.94
3011.00,90.99
3010.00,91.02
3009.00,91.03
3008.00,91.03
3007.00,91.02
3006.00,91.02
3005.00,91.02
3004.00,91.02
3003.00,91.02
3002.00,91.01
3001.00,90.99
3000.00,90.95
2999.00,90.92
2998.00,90.88
2997.00,90.86
2996.00,90.84
2995.00,90.81
2994.00,90.76
2993.00,90.70
2992.00,90.62
2991.00,90.53
2990.00,90.44
2989.00,90.34
2988.00,90.24
2987.00,90.14
2986.00,90.02
2985.00,89.91
2984.00,89.77
2983.00,89.62
2982.00,89.45
2981.00,89.27
2980.00,89.08
2979.00,88.90
2978.00,88.72
2977.00,88.55
2976.00,88.38
2975.00,88.22
2974.00,88.04
2973.00,87.86
2972.00,87.67
2971.00,87.47
2970.00,87.27
2969.00,87.05
2968.00,86.82
2967.00,86.60
2966.00,86.40
2965.00,86.20
2964.00,86.03
2963.00,85.87
2962.00,85.73
2961.00,85.62
2960.00,85.53
2959.00,85.46
2958.00,85.39
2957.00,85.33
2956.00,85.29
2955.00,85.26
2954.00,85.24
2953.00,85.24
2952.00,85.25
2951.00,85.27
2950.00,85.30
2949.00,85.32
2948.00,85.32
2947.00,85.30
2946.00,85.26
2945.00,85.19
2944.00,85.10
2943.00,84.97
2942.00,84.81
2941.00,84.61
2940.00,84.38
2939.00,84.14
2938.00,83.89
2937.00,83.62
2936.00,83.35
2935.00,83.06
2934.00,82.77
2933.00,82.47
2932.00,82.15
2931.00,81.83
2930.00,81.52
2929.00,81.22
2928.00,80.94
2927.00,80.67
2926.00,80.41
2925.00,80.18
2924.00,79.98
2923.00,79.82
2922.00,79.70
2921.00,79.61
2920.00,79.56
2919.00,79.57
2918.00,79.69
2917.00,79.97
2916.00,80.42
2915.00,81.02
2914.00,81.72
2913.00,82.43
2912.00,83.12
2911.00,83.73
2910.00,84.27
2909.00,84.73
2908.00,85.12
2907.00,85.46
2906.00,85.76
2905.00,86.03
2904.00,86.28
2903.00,86.51
2902.00,86.73
2901.00,86.94
2900.00,87.14
2899.00,87.35
2898.00,87.55
2897.00,87.74
2896.00,87.93
2895.00,88.10
2894.00,88.27
2893.00,88.44
2892.00,88.60
2891.00,88.75
2890.00,88.89
2889.00,89.01
2888.00,89.14
2887.00,89.26
2886.00,89.38
2885.00,89.49
2884.00,89.58
2883.00,89.66
2882.00,89.73
2881.00,89.77
2880.00,89.78
2879.00,89.78
2878.00,89.76
2877.00,89.74
2876.00,89.71
2875.00,89.67
2874.00,89.64
2873.00,89.62
2872.00,89.60
2871.00,89.58
2870.00,89.58
2869.00,89.59
2868.00,89.62
2867.00,89.65
2866.00,89.68
2865.00,89.68
2864.00,89.67
2863.00,89.62
2862.00,89.52
2861.00,89.36
2860.00,89.13
2859.00,88.83
2858.00,88.48
2857.00,88.09
2856.00,87.69
2855.00,87.28
2854.00,86.89
2853.00,86.54
2852.00,86.27
2851.00,86.11
2850.00,86.13
2849.00,86.42
2848.00,87.00
2847.00,87.80
2846.00,88.72
2845.00,89.61
2844.00,90.39
2843.00,91.04
2842.00,91.58
2841.00,92.03
2840.00,92.42
2839.00,92.75
2838.00,93.03
2837.00,93.26
2836.00,93.45
2835.00,93.61
2834.00,93.76
2833.00,93.88
2832.00,94.00
2831.00,94.11
2830.00,94.22
2829.00,94.33
2828.00,94.43
2827.00,94.52
2826.00,94.62
2825.00,94.73
2824.00,94.83
2823.00,94.91
2822.00,94.99
2821.00,95.06
2820.00,95.12
2819.00,95.18
2818.00,95.23
2817.00,95.28
2816.00,95.34
2815.00,95.40
2814.00,95.45
2813.00,95.50
2812.00,95.55
2811.00,95.60
2810.00,95.66
2809.00,95.71
2808.00,95.76
2807.00,95.80
2806.00,95.84
2805.00,95.87
2804.00,95.90
2803.00,95.93
2802.00,95.98
2801.00,96.02
2800.00,96.07
2799.00,96.11
2798.00,96.14
2797.00,96.16
2796.00,96.18
2795.00,96.20
2794.00,96.23
2793.00,96.25
2792.00,96.28
2791.00,96.32
2790.00,96.36
2789.00,96.40
2788.00,96.44
2787.00,96.47
2786.00,96.49
2785.00,96.51
2784.00,96.53
2783.00,96.55
2782.00,96.57
2781.00,96.59
2780.00,96.62
2779.00,96.66
2778.00,96.69
2777.00,96.73
2776.00,96.75
2775.00,96.78
2774.00,96.81
2773.00,96.83
2772.00,96.85
2771.00,96.87
2770.00,96.89
2769.00,96.91
2768.00,96.91
2767.00,96.92
2766.00,96.93
2765.00,96.95
2764.00,96.97
2763.00,96.99
2762.00,97.02
2761.00,97.04
2760.00,97.06
2759.00,97.08
2758.00,97.09
2757.00,97.10
2756.00,97.11
2755.00,97.13
2754.00,97.14
2753.00,97.16
2752.00,97.19
2751.00,97.22
2750.00,97.25
2749.00,97.27
2748.00,97.29
2747.00,97.30
2746.00,97.30
2745.00,97.30
2744.00,97.31
2743.00,97.32
2742.00,97.34
2741.00,97.37
2740.00,97.40
2739.00,97.43
2738.00,97.44
2737.00,97.45
2736.00,97.45
2735.00,97.45
2734.00,97.47
2733.00,97.49
2732.00,97.52
2731.00,97.54
2730.00,97.55
2729.00,97.56
2728.00,97.56
2727.00,97.56
2726.00,97.57
2725.00,97.59
2724.00,97.63
2723.00,97.66
2722.00,97.68
2721.00,97.69
2720.00,97.69
2719.00,97.69
2718.00,97.70
2717.00,97.72
2716.00,97.74
2715.00,97.76
2714.00,97.78
2713.00,97.79
2712.00,97.81
2711.00,97.83
2710.00,97.85
2709.00,97.87
2708.00,97.88
2707.00,97.88
2706.00,97.89
2705.00,97.89
2704.00,97.90
2703.00,97.92
2702.00,97.93
2701.00,97.94
2700.00,97.95
2699.00,97.96
2698.00,97.96
2697.00,97.95
2696.00,97.94
2695.00,97.94
2694.00,97.93
2693.00,97.93
2692.00,97.94
2691.00,97.95
2690.00,97.96
2689.00,97.96
2688.00,97.96
2687.00,97.96
2686.00,97.98
2685.00,98.01
2684.00,98.04
2683.00,98.07
2682.00,98.09
2681.00,98.11
2680.00,98.12
2679.00,98.13
2678.00,98.14
2677.00,98.15
2676.00,98.16
2675.00,98.17
2674.00,98.19
2673.00,98.21
2672.00,98.23
2671.00,98.25
2670.00,98.26
2669.00,98.28
2668.00,98.29
2667.00,98.30
2666.00,98.31
2665.00,98.32
2664.00,98.32
2663.00,98.32
2662.00,98.30
2661.00,98.28
2660.00,98.28
2659.00,98.28
2658.00,98.28
2657.00,98.28
2656.00,98.28
2655.00,98.28
2654.00,98.27
2653.00,98.27
2652.00,98.27
2651.00,98.28
2650.00,98.28
2649.00,98.28
2648.00,98.29
2647.00,98.30
2646.00,98.30
2645.00,98.31
2644.00,98.31
2643.00,98.32
2642.00,98.35
2641.00,98.36
2640.00,98.37
2639.00,98.38
2638.00,98.38
2637.00,98.39
2636.00,98.40
2635.00,98.42
2634.00,98.42
2633.00,98.42
2632.00,98.42
2631.00,98.42
2630.00,98.42
2629.00,98.40
2628.00,98.38
2627.00,98.36
2626.00,98.34
2625.00,98.32
2624.00,98.31
2623.00,98.31
2622.00,98.32
2621.00,98.33
2620.00,98.35
2619.00,98.37
2618.00,98.38
2617.00,98.39
2616.00,98.39
2615.00,98.40
2614.00,98.42
2613.00,98.44
2612.00,98.46
2611.00,98.47
2610.00,98.48
2609.00,98.48
2608.00,98.49
2607.00,98.51
2606.00,98.53
2605.00,98.55
2604.00,98.56
2603.00,98.57
2602.00,98.59
2601.00,98.60
2600.00,98.61
2599.00,98.60
2598.00,98.61
2597.00,98.63
2596.00,98.65
2595.00,98.67
2594.00,98.66
2593.00,98.65
2592.00,98.63
2591.00,98.62
2590.00,98.62
2589.00,98.61
2588.00,98.60
2587.00,98.59
2586.00,98.57
2585.00,98.56
2584.00,98.55
2583.00,98.54
2582.00,98.54
2581.00,98.55
2580.00,98.57
2579.00,98.59
2578.00,98.60
2577.00,98.59
2576.00,98.58
2575.00,98.56
2574.00,98.56
2573.00,98.57
2572.00,98.61
2571.00,98.65
2570.00,98.69
2569.00,98.72
2568.00,98.72
2567.00,98.72
2566.00,98.72
2565.00,98.72
2564.00,98.71
2563.00,98.72
2562.00,98.73
2561.00,98.74
2560.00,98.76
2559.00,98.76
2558.00,98.76
2557.00,98.76
2556.00,98.74
2555.00,98.72
2554.00,98.70
2553.00,98.69
2552.00,98.69
2551.00,98.69
2550.00,98.68
2549.00,98.67
2548.00,98.66
2547.00,98.67
2546.00,98.68
2545.00,98.69
2544.00,98.71
2543.00,98.73
2542.00,98.75
2541.00,98.78
2540.00,98.80
2539.00,98.82
2538.00,98.83
2537.00,98.82
2536.00,98.81
2535.00,98.78
2534.00,98.77
2533.00,98.77
2532.00,98.78
2531.00,98.80
2530.00,98.81
2529.00,98.83
2528.00,98.84
2527.00,98.85
2526.00,98.87
2525.00,98.87
2524.00,98.86
2523.00,98.83
2522.00,98.81
2521.00,98.80
2520.00,98.79
2519.00,98.78
2518.00,98.77
2517.00,98.76
2516.00,98.76
2515.00,98.78
2514.00,98.79
2513.00,98.79
2512.00,98.77
2511.00,98.75
2510.00,98.72
2509.00,98.71
2508.00,98.72
2507.00,98.73
2506.00,98.74
2505.00,98.74
2504.00,98.75
2503.00,98.76
2502.00,98.79
2501.00,98.82
2500.00,98.85
2499.00,98.88
2498.00,98.89
2497.00,98.91
2496.00,98.91
2495.00,98.91
2494.00,98.91
2493.00,98.90
2492.00,98.91
2491.00,98.92
2490.00,98.92
2489.00,98.92
2488.00,98.91
2487.00,98.89
2486.00,98.86
2485.00,98.85
2484.00,98.84
2483.00,98.85
2482.00,98.86
2481.00,98.87
2480.00,98.89
2479.00,98.89
2478.00,98.89
2477.00,98.89
2476.00,98.90
2475.00,98.92
2474.00,98.95
2473.00,98.97
2472.00,98.99
2471.00,99.01
2470.00,99.02
2469.00,99.02
2468.00,99.00
2467.00,98.98
2466.00,98.97
2465.00,98.97
2464.00,98.97
2463.00,98.97
2462.00,98.97
2461.00,98.97
2460.00,98.98
2459.00,98.99
2458.00,98.99
2457.00,98.99
2456.00,98.98
2455.00,98.96
2454.00,98.94
2453.00,98.92
2452.00,98.92
2451.00,98.93
2450.00,98.95
2449.00,98.95
2448.00,98.92
2447.00,98.90
2446.00,98.88
2445.00,98.88
2444.00,98.89
2443.00,98.90
2442.00,98.90
2441.00,98.91
2440.00,98.92
2439.00,98.94
2438.00,98.95
2437.00,98.96
2436.00,98.96
2435.00,98.97
2434.00,98.96
2433.00,98.96
2432.00,98.97
2431.00,98.99
2430.00,99.00
2429.00,99.00
2428.00,98.98
2427.00,98.97
2426.00,98.96
2425.00,98.96
2424.00,98.97
2423.00,98.98
2422.00,98.99
2421.00,99.00
2420.00,99.01
2419.00,99.02
2418.00,99.03
2417.00,99.04
2416.00,99.04
2415.00,99.05
2414.00,99.06
2413.00,99.06
2412.00,99.05
2411.00,99.05
2410.00,99.05
2409.00,99.04
2408.00,99.04
2407.00,99.03
2406.00,99.03
2405.00,99.05
2404.00,99.07
2403.00,99.10
2402.00,99.12
2401.00,99.12
2400.00,99.12
2399.00,99.12
2398.00,99.12
2397.00,99.12
2396.00,99.12
2395.00,99.11
2394.00,99.11
2393.00,99.11
2392.00,99.10
2391.00,99.09
2390.00,99.08
2389.00,99.07
2388.00,99.06
2387.00,99.06
2386.00,99.08
2385.00,99.11
2384.00,99.15
2383.00,99.19
2382.00,99.22
2381.00,99.23
2380.00,99.23
2379.00,99.24
2378.00,99.28
2377.00,99.34
2376.00,99.40
2375.00,99.45
2374.00,99.48
2373.00,99.48
2372.00,99.46
2371.00,99.39
2370.00,99.30
2369.00,99.21
2368.00,99.14
2367.00,99.14
2366.00,99.20
2365.00,99.30
2364.00,99.38
2363.00,99.42
2362.00,99.42
2361.00,99.39
2360.00,99.37
2359.00,99.36
2358.00,99.35
2357.00,99.32
2356.00,99.33
2355.00,99.36
2354.00,99.39
2353.00,99.38
2352.00,99.34
2351.00,99.32
2350.00,99.34
2349.00,99.41
2348.00,99.52
2347.00,99.63
2346.00,99.68
2345.00,99.65
2344.00,99.58
2343.00,99.50
2342.00,99.41
2341.00,99.34
2340.00,99.29
2339.00,99.27
2338.00,99.24
2337.00,99.20
2336.00,99.17
2335.00,99.17
2334.00,99.20
2333.00,99.23
2332.00,99.25
2331.00,99.25
2330.00,99.23
2329.00,99.20
2328.00,99.16
2327.00,99.12
2326.00,99.10
2325.00,99.08
2324.00,99.05
2323.00,99.00
2322.00,98.93
2321.00,98.86
2320.00,98.84
2319.00,98.86
2318.00,98.89
2317.00,98.91
2316.00,98.90
2315.00,98.89
2314.00,98.88
2313.00,98.87
2312.00,98.86
2311.00,98.86
2310.00,98.87
2309.00,98.86
2308.00,98.84
2307.00,98.82
2306.00,98.81
2305.00,98.80
2304.00,98.79
2303.00,98.77
2302.00,98.75
2301.00,98.73
2300.00,98.71
2299.00,98.70
2298.00,98.70
2297.00,98.71
2296.00,98.71
2295.00,98.70
2294.00,98.67
2293.00,98.64
2292.00,98.61
2291.00,98.59
2290.00,98.57
2289.00,98.57
2288.00,98.58
2287.00,98.59
2286.00,98.57
2285.00,98.54
2284.00,98.50
2283.00,98.47
2282.00,98.46
2281.00,98.48
2280.00,98.50
2279.00,98.50
2278.00,98.49
2277.00,98.45
2276.00,98.43
2275.00,98.42
2274.00,98.41
2273.00,98.41
2272.00,98.40
2271.00,98.40
2270.00,98.39
2269.00,98.39
2268.00,98.42
2267.00,98.46
2266.00,98.50
2265.00,98.52
2264.00,98.51
2263.00,98.49
2262.00,98.47
2261.00,98.46
2260.00,98.45
2259.00,98.43
2258.00,98.40
2257.00,98.37
2256.00,98.37
2255.00,98.37
2254.00,98.35
2253.00,98.31
2252.00,98.28
2251.00,98.27
2250.00,98.26
2249.00,98.24
2248.00,98.23
2247.00,98.23
2246.00,98.22
2245.00,98.21
2244.00,98.20
2243.00,98.21
2242.00,98.22
2241.00,98.21
2240.00,98.19
2239.00,98.19
2238.00,98.19
2237.00,98.19
2236.00,98.18
2235.00,98.15
2234.00,98.11
2233.00,98.08
2232.00,98.09
2231.00,98.11
2230.00,98.11
2229.00,98.11
2228.00,98.11
2227.00,98.14
2226.00,98.16
2225.00,98.17
2224.00,98.16
2223.00,98.16
2222.00,98.17
2221.00,98.19
2220.00,98.21
2219.00,98.20
2218.00,98.15
2217.00,98.06
2216.00,97.99
2215.00,97.97
2214.00,97.99
2213.00,98.02
2212.00,98.03
2211.00,98.03
2210.00,98.02
2209.00,97.99
2208.00,97.95
2207.00,97.91
2206.00,97.90
2205.00,97.92
2204.00,98.00
2203.00,98.10
2202.00,98.18
2201.00,98.20
2200.00,98.20
2199.00,98.17
2198.00,98.15
2197.00,98.11
2196.00,98.07
2195.00,98.04
2194.00,98.03
2193.00,98.02
2192.00,98.03
2191.00,98.01
2190.00,97.95
2189.00,97.87
2188.00,97.81
2187.00,97.79
2186.00,97.80
2185.00,97.80
2184.00,97.78
2183.00,97.73
2182.00,97.68
2181.00,97.63
2180.00,97.61
2179.00,97.62
2178.00,97.63
2177.00,97.63
2176.00,97.64
2175.00,97.70
2174.00,97.78
2173.00,97.84
2172.00,97.86
2171.00,97.85
2170.00,97.82
2169.00,97.78
2168.00,97.77
2167.00,97.79
2166.00,97.82
2165.00,97.82
2164.00,97.80
2163.00,97.77
2162.00,97.73
2161.00,97.72
2160.00,97.74
2159.00,97.80
2158.00,97.85
2157.00,97.88
2156.00,97.90
2155.00,97.92
2154.00,97.93
2153.00,97.90
2152.00,97.86
2151.00,97.87
2150.00,97.90
2149.00,97.94
2148.00,97.96
2147.00,97.95
2146.00,97.91
2145.00,97.83
2144.00,97.80
2143.00,97.85
2142.00,97.97
2141.00,98.09
2140.00,98.15
2139.00,98.16
2138.00,98.14
2137.00,98.13
2136.00,98.15
2135.00,98.20
2134.00,98.27
2133.00,98.35
2132.00,98.42
2131.00,98.47
2130.00,98.48
2129.00,98.47
2128.00,98.44
2127.00,98.42
2126.00,98.41
2125.00,98.39
2124.00,98.38
2123.00,98.39
2122.00,98.41
2121.00,98.42
2120.00,98.42
2119.00,98.40
2118.00,98.37
2117.00,98.33
2116.00,98.30
2115.00,98.28
2114.00,98.26
2113.00,98.24
2112.00,98.23
2111.00,98.25
2110.00,98.27
2109.00,98.27
2108.00,98.25
2107.00,98.23
2106.00,98.23
2105.00,98.27
2104.00,98.33
2103.00,98.37
2102.00,98.35
2101.00,98.28
2100.00,98.21
2099.00,98.18
2098.00,98.19
2097.00,98.21
2096.00,98.25
2095.00,98.30
2094.00,98.35
2093.00,98.38
2092.00,98.40
2091.00,98.41
2090.00,98.41
2089.00,98.40
2088.00,98.39
2087.00,98.40
2086.00,98.40
2085.00,98.37
2084.00,98.33
2083.00,98.30
2082.00,98.28
2081.00,98.27
2080.00,98.26
2079.00,98.26
2078.00,98.28
2077.00,98.29
2076.00,98.29
2075.00,98.30
2074.00,98.31
2073.00,98.33
2072.00,98.34
2071.00,98.37
2070.00,98.38
2069.00,98.38
2068.00,98.39
2067.00,98.42
2066.00,98.49
2065.00,98.57
2064.00,98.62
2063.00,98.63
2062.00,98.59
2061.00,98.53
2060.00,98.50
2059.00,98.50
2058.00,98.54
2057.00,98.59
2056.00,98.64
2055.00,98.67
2054.00,98.67
2053.00,98.62
2052.00,98.53
2051.00,98.44
2050.00,98.38
2049.00,98.32
2048.00,98.27
2047.00,98.23
2046.00,98.19
2045.00,98.16
2044.00,98.12
2043.00,98.09
2042.00,98.05
2041.00,98.00
2040.00,97.98
2039.00,97.98
2038.00,97.99
2037.00,98.01
2036.00,98.06
2035.00,98.14
2034.00,98.20
2033.00,98.23
2032.00,98.22
2031.00,98.22
2030.00,98.23
2029.00,98.25
2028.00,98.30
2027.00,98.38
2026.00,98.44
2025.00,98.44
2024.00,98.42
2023.00,98.43
2022.00,98.47
2021.00,98.49
2020.00,98.49
2019.00,98.46
2018.00,98.44
2017.00,98.41
2016.00,98.37
2015.00,98.33
2014.00,98.31
2013.00,98.30
2012.00,98.31
2011.00,98.31
2010.00,98.29
2009.00,98.26
2008.00,98.27
2007.00,98.33
2006.00,98.41
2005.00,98.47
2004.00,98.50
2003.00,98.50
2002.00,98.50
2001.00,98.51
2000.00,98.54
1999.00,98.58
1998.00,98.63
1997.00,98.65
1996.00,98.68
1995.00,98.71
1994.00,98.72
1993.00,98.70
1992.00,98.67
1991.00,98.64
1990.00,98.62
1989.00,98.60
1988.00,98.58
1987.00,98.55
1986.00,98.52
1985.00,98.47
1984.00,98.42
1983.00,98.40
1982.00,98.38
1981.00,98.34
1980.00,98.31
1979.00,98.28
1978.00,98.24
1977.00,98.20
1976.00,98.22
1975.00,98.30
1974.00,98.36
1973.00,98.37
1972.00,98.36
1971.00,98.40
1970.00,98.45
1969.00,98.46
1968.00,98.45
1967.00,98.46
1966.00,98.50
1965.00,98.54
1964.00,98.59
1963.00,98.63
1962.00,98.64
1961.00,98.62
1960.00,98.61
1959.00,98.65
1958.00,98.72
1957.00,98.79
1956.00,98.82
1955.00,98.83
1954.00,98.83
1953.00,98.83
1952.00,98.84
1951.00,98.88
1950.00,98.90
1949.00,98.89
1948.00,98.88
1947.00,98.89
1946.00,98.92
1945.00,98.93
1944.00,98.91
1943.00,98.88
1942.00,98.86
1941.00,98.85
1940.00,98.85
1939.00,98.87
1938.00,98.88
1937.00,98.89
1936.00,98.89
1935.00,98.89
1934.00,98.89
1933.00,98.87
1932.00,98.86
1931.00,98.84
1930.00,98.82
1929.00,98.81
1928.00,98.83
1927.00,98.89
1926.00,98.94
1925.00,98.96
1924.00,98.96
1923.00,98.96
1922.00,98.98
1921.00,98.98
1920.00,98.97
1919.00,98.99
1918.00,99.02
1917.00,99.04
1916.00,99.03
1915.00,99.02
1914.00,99.00
1913.00,98.99
1912.00,98.99
1911.00,98.99
1910.00,99.00
1909.00,99.00
1908.00,98.99
1907.00,98.99
1906.00,98.98
1905.00,98.98
1904.00,98.99
1903.00,99.02
1902.00,99.05
1901.00,99.05
1900.00,99.03
1899.00,99.00
1898.00,99.00
1897.00,99.01
1896.00,99.02
1895.00,99.03
1894.00,99.01
1893.00,98.98
1892.00,98.96
1891.00,98.97
1890.00,99.01
1889.00,99.03
1888.00,99.05
1887.00,99.06
1886.00,99.07
1885.00,99.05
1884.00,99.03
1883.00,99.00
1882.00,98.97
1881.00,98.95
1880.00,98.95
1879.00,98.97
1878.00,98.99
1877.00,98.99
1876.00,98.98
1875.00,98.99
1874.00,99.00
1873.00,99.00
1872.00,99.01
1871.00,99.01
1870.00,99.01
1869.00,99.00
1868.00,99.00
1867.00,99.01
1866.00,99.02
1865.00,99.02
1864.00,99.02
1863.00,99.03
1862.00,99.05
1861.00,99.06
1860.00,99.08
1859.00,99.09
1858.00,99.10
1857.00,99.09
1856.00,99.07
1855.00,99.06
1854.00,99.07
1853.00,99.08
1852.00,99.08
1851.00,99.08
1850.00,99.07
1849.00,99.06
1848.00,99.05
1847.00,99.06
1846.00,99.08
1845.00,99.11
1844.00,99.14
1843.00,99.15
1842.00,99.12
1841.00,99.05
1840.00,98.98
1839.00,98.94
1838.00,98.93
1837.00,98.93
1836.00,98.94
1835.00,98.94
1834.00,98.94
1833.00,98.92
1832.00,98.88
1831.00,98.87
1830.00,98.87
1829.00,98.88
1828.00,98.87
1827.00,98.87
1826.00,98.86
1825.00,98.87
1824.00,98.87
1823.00,98.87
1822.00,98.86
1821.00,98.86
1820.00,98.86
1819.00,98.88
1818.00,98.89
1817.00,98.87
1816.00,98.85
1815.00,98.84
1814.00,98.84
1813.00,98.84
1812.00,98.84
1811.00,98.84
1810.00,98.84
1809.00,98.82
1808.00,98.81
1807.00,98.80
1806.00,98.79
1805.00,98.78
1804.00,98.78
1803.00,98.78
1802.00,98.78
1801.00,98.76
1800.00,98.75
1799.00,98.76
1798.00,98.76
1797.00,98.76
1796.00,98.74
1795.00,98.73
1794.00,98.73
1793.00,98.72
1792.00,98.70
1791.00,98.68
1790.00,98.65
1789.00,98.61
1788.00,98.57
1787.00,98.55
1786.00,98.52
1785.00,98.48
1784.00,98.43
1783.00,98.38
1782.00,98.34
1781.00,98.32
1780.00,98.29
1779.00,98.27
1778.00,98.24
1777.00,98.19
1776.00,98.15
1775.00,98.12
1774.00,98.10
1773.00,98.06
1772.00,98.01
1771.00,97.96
1770.00,97.93
1769.00,97.89
1768.00,97.83
1767.00,97.75
1766.00,97.65
1765.00,97.55
1764.00,97.45
1763.00,97.39
1762.00,97.37
1761.00,97.34
1760.00,97.28
1759.00,97.21
1758.00,97.14
1757.00,97.04
1756.00,96.94
1755.00,96.84
1754.00,96.76
1753.00,96.66
1752.00,96.52
1751.00,96.34
1750.00,96.12
1749.00,95.86
1748.00,95.60
1747.00,95.38
1746.00,95.18
1745.00,94.96
1744.00,94.71
1743.00,94.44
1742.00,94.16
1741.00,93.85
1740.00,93.54
1739.00,93.30
1738.00,93.14
1737.00,93.06
1736.00,93.01
1735.00,93.04
1734.00,93.11
1733.00,93.12
1732.00,93.09
1731.00,93.11
1730.00,93.22
1729.00,93.37
1728.00,93.51
1727.00,93.63
1726.00,93.73
1725.00,93.81
1724.00,93.86
1723.00,93.91
1722.00,93.94
1721.00,93.92
1720.00,93.89
1719.00,93.87
1718.00,93.84
1717.00,93.70
1716.00,93.49
1715.00,93.28
1714.00,93.12
1713.00,92.95
1712.00,92.76
1711.00,92.58
1710.00,92.39
1709.00,92.16
1708.00,91.89
1707.00,91.60
1706.00,91.29
1705.00,90.96
1704.00,90.66
1703.00,90.39
1702.00,90.06
1701.00,89.58
1700.00,89.05
1699.00,88.66
1698.00,88.35
1697.00,87.92
1696.00,87.31
1695.00,86.67
1694.00,86.13
1693.00,85.65
1692.00,85.21
1691.00,84.76
1690.00,84.30
1689.00,83.86
1688.00,83.50
1687.00,83.21
1686.00,82.87
1685.00,82.32
1684.00,81.62
1683.00,81.04
1682.00,80.62
1681.00,80.23
1680.00,79.83
1679.00,79.44
1678.00,79.06
1677.00,78.66
1676.00,78.18
1675.00,77.70
1674.00,77.30
1673.00,76.94
1672.00,76.57
1671.00,76.15
1670.00,75.66
1669.00,75.17
1668.00,74.74
1667.00,74.40
1666.00,74.09
1665.00,73.75
1664.00,73.32
1663.00,72.85
1662.00,72.38
1661.00,71.95
1660.00,71.53
1659.00,71.14
1658.00,70.78
1657.00,70.48
1656.00,70.21
1655.00,69.92
1654.00,69.43
1653.00,68.74
1652.00,68.19
1651.00,67.83
1650.00,67.56
1649.00,67.30
1648.00,67.01
1647.00,66.69
1646.00,66.44
1645.00,66.27
1644.00,66.12
1643.00,66.00
1642.00,65.90
1641.00,65.80
1640.00,65.70
1639.00,65.61
1638.00,65.54
1637.00,65.44
1636.00,65.30
1635.00,65.20
1634.00,65.18
1633.00,65.18
1632.00,65.16
1631.00,65.15
1630.00,65.14
1629.00,65.14
1628.00,65.16
1627.00,65.22
1626.00,65.32
1625.00,65.44
1624.00,65.58
1623.00,65.77
1622.00,65.98
1621.00,66.21
1620.00,66.45
1619.00,66.72
1618.00,67.02
1617.00,67.35
1616.00,67.66
1615.00,67.92
1614.00,68.16
1613.00,68.41
1612.00,68.69
1611.00,69.00
1610.00,69.30
1609.00,69.59
1608.00,69.86
1607.00,70.12
1606.00,70.32
1605.00,70.50
1604.00,70.65
1603.00,70.79
1602.00,70.89
1601.00,70.98
1600.00,71.04
1599.00,71.08
1598.00,71.07
1597.00,71.02
1596.00,70.96
1595.00,70.88
1594.00,70.77
1593.00,70.65
1592.00,70.53
1591.00,70.38
1590.00,70.19
1589.00,69.96
1588.00,69.73
1587.00,69.47
1586.00,69.19
1585.00,68.89
1584.00,68.58
1583.00,68.25
1582.00,67.88
1581.00,67.52
1580.00,67.19
1579.00,66.89
1578.00,66.55
1577.00,66.07
1576.00,65.48
1575.00,64.93
1574.00,64.49
1573.00,64.11
1572.00,63.73
1571.00,63.28
1570.00,62.73
1569.00,62.19
1568.00,61.76
1567.00,61.37
1566.00,60.96
1565.00,60.53
1564.00,60.13
1563.00,59.84
1562.00,59.62
1561.00,59.37
1560.00,58.91
1559.00,58.19
1558.00,57.60
1557.00,57.28
1556.00,57.03
1555.00,56.75
1554.00,56.44
1553.00,56.16
1552.00,55.91
1551.00,55.69
1550.00,55.51
1549.00,55.36
1548.00,55.25
1547.00,55.19
1546.00,55.16
1545.00,55.18
1544.00,55.23
1543.00,55.30
1542.00,55.41
1541.00,55.59
1540.00,55.84
1539.00,56.14
1538.00,56.41
1537.00,56.62
1536.00,56.80
1535.00,57.04
1534.00,57.39
1533.00,57.80
1532.00,58.19
1531.00,58.55
1530.00,58.89
1529.00,59.24
1528.00,59.61
1527.00,60.01
1526.00,60.43
1525.00,60.81
1524.00,61.15
1523.00,61.49
1522.00,61.86
1521.00,62.22
1520.00,62.47
1519.00,62.66
1518.00,62.87
1517.00,63.15
1516.00,63.47
1515.00,63.80
1514.00,64.15
1513.00,64.53
1512.00,64.94
1511.00,65.36
1510.00,65.79
1509.00,66.25
1508.00,66.78
1507.00,67.42
1506.00,68.10
1505.00,68.65
1504.00,69.04
1503.00,69.41
1502.00,69.84
1501.00,70.32
1500.00,70.82
1499.00,71.34
1498.00,71.93
1497.00,72.56
1496.00,73.17
1495.00,73.68
1494.00,74.12
1493.00,74.54
1492.00,74.97
1491.00,75.48
1490.00,76.06
1489.00,76.62
1488.00,77.08
1487.00,77.48
1486.00,77.86
1485.00,78.18
1484.00,78.43
1483.00,78.63
1482.00,78.82
1481.00,78.97
1480.00,79.05
1479.00,79.07
1478.00,79.02
1477.00,78.91
1476.00,78.71
1475.00,78.43
1474.00,78.05
1473.00,77.56
1472.00,77.03
1471.00,76.61
1470.00,76.30
1469.00,76.04
1468.00,75.79
1467.00,75.57
1466.00,75.41
1465.00,75.30
1464.00,75.23
1463.00,75.23
1462.00,75.28
1461.00,75.35
1460.00,75.40
1459.00,75.41
1458.00,75.35
1457.00,75.20
1456.00,75.03
1455.00,74.91
1454.00,74.86
1453.00,74.85
1452.00,74.87
1451.00,74.90
1450.00,74.94
1449.00,74.99
1448.00,75.03
1447.00,75.05
1446.00,75.09
1445.00,75.13
1444.00,75.16
1443.00,75.21
1442.00,75.27
1441.00,75.34
1440.00,75.40
1439.00,75.46
1438.00,75.52
1437.00,75.60
1436.00,75.66
1435.00,75.70
1434.00,75.74
1433.00,75.76
1432.00,75.75
1431.00,75.70
1430.00,75.63
1429.00,75.54
1428.00,75.41
1427.00,75.23
1426.00,75.01
1425.00,74.74
1424.00,74.42
1423.00,74.12
1422.00,73.88
1421.00,73.65
1420.00,73.33
1419.00,72.95
1418.00,72.60
1417.00,72.31
1416.00,72.06
1415.00,71.81
1414.00,71.56
1413.00,71.29
1412.00,70.97
1411.00,70.63
1410.00,70.28
1409.00,69.93
1408.00,69.56
1407.00,69.20
1406.00,68.82
1405.00,68.43
1404.00,68.03
1403.00,67.67
1402.00,67.35
1401.00,67.04
1400.00,66.72
1399.00,66.42
1398.00,66.17
1397.00,65.95
1396.00,65.74
1395.00,65.56
1394.00,65.45
1393.00,65.39
1392.00,65.37
1391.00,65.41
1390.00,65.51
1389.00,65.64
1388.00,65.79
1387.00,65.95
1386.00,66.11
1385.00,66.28
1384.00,66.49
1383.00,66.76
1382.00,67.09
1381.00,67.44
1380.00,67.80
1379.00,68.17
1378.00,68.55
1377.00,68.94
1376.00,69.34
1375.00,69.77
1374.00,70.22
1373.00,70.63
1372.00,71.00
1371.00,71.35
1370.00,71.70
1369.00,72.06
1368.00,72.42
1367.00,72.77
1366.00,73.14
1365.00,73.54
1364.00,73.98
1363.00,74.47
1362.00,74.93
1361.00,75.32
1360.00,75.63
1359.00,75.90
1358.00,76.15
1357.00,76.37
1356.00,76.58
1355.00,76.78
1354.00,76.96
1353.00,77.10
1352.00,77.22
1351.00,77.33
1350.00,77.44
1349.00,77.54
1348.00,77.63
1347.00,77.70
1346.00,77.77
1345.00,77.82
1344.00,77.88
1343.00,77.95
1342.00,78.02
1341.00,78.11
1340.00,78.18
1339.00,78.26
1338.00,78.34
1337.00,78.41
1336.00,78.48
1335.00,78.54
1334.00,78.60
1333.00,78.65
1332.00,78.70
1331.00,78.75
1330.00,78.79
1329.00,78.81
1328.00,78.80
1327.00,78.77
1326.00,78.72
1325.00,78.65
1324.00,78.56
1323.00,78.48
1322.00,78.40
1321.00,78.32
1320.00,78.25
1319.00,78.18
1318.00,78.12
1317.00,78.08
1316.00,78.04
1315.00,78.00
1314.00,77.97
1313.00,77.94
1312.00,77.90
1311.00,77.86
1310.00,77.82
1309.00,77.79
1308.00,77.75
1307.00,77.71
1306.00,77.66
1305.00,77.59
1304.00,77.51
1303.00,77.41
1302.00,77.30
1301.00,77.17
1300.00,77.03
1299.00,76.89
1298.00,76.77
1297.00,76.67
1296.00,76.61
1295.00,76.59
1294.00,76.63
1293.00,76.72
1292.00,76.84
1291.00,77.00
1290.00,77.18
1289.00,77.37
1288.00,77.55
1287.00,77.71
1286.00,77.86
1285.00,78.00
1284.00,78.12
1283.00,78.23
1282.00,78.33
1281.00,78.42
1280.00,78.49
1279.00,78.56
1278.00,78.62
1277.00,78.67
1276.00,78.72
1275.00,78.77
1274.00,78.81
1273.00,78.85
1272.00,78.86
1271.00,78.87
1270.00,78.86
1269.00,78.86
1268.00,78.87
1267.00,78.87
1266.00,78.86
1265.00,78.84
1264.00,78.82
1263.00,78.80
1262.00,78.79
1261.00,78.76
1260.00,78.71
1259.00,78.65
1258.00,78.57
1257.00,78.49
1256.00,78.42
1255.00,78.35
1254.00,78.29
1253.00,78.22
1252.00,78.14
1251.00,78.08
1250.00,78.03
1249.00,77.98
1248.00,77.92
1247.00,77.86
1246.00,77.80
1245.00,77.75
1244.00,77.70
1243.00,77.66
1242.00,77.62
1241.00,77.59
1240.00,77.55
1239.00,77.51
1238.00,77.48
1237.00,77.46
1236.00,77.45
1235.00,77.46
1234.00,77.50
1233.00,77.55
1232.00,77.62
1231.00,77.70
1230.00,77.80
1229.00,77.90
1228.00,78.02
1227.00,78.15
1226.00,78.28
1225.00,78.41
1224.00,78.54
1223.00,78.69
1222.00,78.84
1221.00,79.01
1220.00,79.17
1219.00,79.34
1218.00,79.50
1217.00,79.65
1216.00,79.77
1215.00,79.88
1214.00,79.99
1213.00,80.08
1212.00,80.16
1211.00,80.24
1210.00,80.32
1209.00,80.39
1208.00,80.45
1207.00,80.51
1206.00,80.56
1205.00,80.62
1204.00,80.67
1203.00,80.71
1202.00,80.76
1201.00,80.81
1200.00,80.86
1199.00,80.89
1198.00,80.92
1197.00,80.94
1196.00,80.98
1195.00,81.02
1194.00,81.06
1193.00,81.07
1192.00,81.08
1191.00,81.08
1190.00,81.09
1189.00,81.10
1188.00,81.10
1187.00,81.07
1186.00,81.05
1185.00,81.02
1184.00,80.99
1183.00,80.96
1182.00,80.92
1181.00,80.88
1180.00,80.82
1179.00,80.74
1178.00,80.63
1177.00,80.52
1176.00,80.42
1175.00,80.36
1174.00,80.36
1173.00,80.39
1172.00,80.44
1171.00,80.52
1170.00,80.62
1169.00,80.74
1168.00,80.87
1167.00,80.99
1166.00,81.12
1165.00,81.24
1164.00,81.34
1163.00,81.42
1162.00,81.48
1161.00,81.54
1160.00,81.61
1159.00,81.70
1158.00,81.81
1157.00,81.93
1156.00,82.05
1155.00,82.18
1154.00,82.33
1153.00,82.49
1152.00,82.66
1151.00,82.82
1150.00,82.98
1149.00,83.13
1148.00,83.29
1147.00,83.45
1146.00,83.63
1145.00,83.78
1144.00,83.90
1143.00,83.98
1142.00,84.05
1141.00,84.10
1140.00,84.14
1139.00,84.15
1138.00,84.15
1137.00,84.14
1136.00,84.12
1135.00,84.06
1134.00,83.99
1133.00,83.92
1132.00,83.86
1131.00,83.82
1130.00,83.80
1129.00,83.79
1128.00,83.79
1127.00,83.78
1126.00,83.75
1125.00,83.71
1124.00,83.66
1123.00,83.63
1122.00,83.62
1121.00,83.63
1120.00,83.63
1119.00,83.62
1118.00,83.61
1117.00,83.61
1116.00,83.61
1115.00,83.58
1114.00,83.55
1113.00,83.52
1112.00,83.51
1111.00,83.52
1110.00,83.55
1109.00,83.57
1108.00,83.58
1107.00,83.59
1106.00,83.60
1105.00,83.62
1104.00,83.64
1103.00,83.64
1102.00,83.62
1101.00,83.59
1100.00,83.54
1099.00,83.51
1098.00,83.49
1097.00,83.50
1096.00,83.51
1095.00,83.52
1094.00,83.51
1093.00,83.49
1092.00,83.48
1091.00,83.45
1090.00,83.40
1089.00,83.33
1088.00,83.24
1087.00,83.15
1086.00,83.08
1085.00,83.04
1084.00,83.02
1083.00,82.99
1082.00,82.94
1081.00,82.87
1080.00,82.80
1079.00,82.74
1078.00,82.72
1077.00,82.71
1076.00,82.70
1075.00,82.70
1074.00,82.72
1073.00,82.76
1072.00,82.79
1071.00,82.83
1070.00,82.87
1069.00,82.92
1068.00,82.96
1067.00,83.00
1066.00,83.06
1065.00,83.13
1064.00,83.21
1063.00,83.29
1062.00,83.38
1061.00,83.46
1060.00,83.52
1059.00,83.56
1058.00,83.60
1057.00,83.64
1056.00,83.68
1055.00,83.72
1054.00,83.76
1053.00,83.80
1052.00,83.85
1051.00,83.89
1050.00,83.92
1049.00,83.92
1048.00,83.91
1047.00,83.90
1046.00,83.91
1045.00,83.93
1044.00,83.97
1043.00,84.02
1042.00,84.09
1041.00,84.16
1040.00,84.23
1039.00,84.29
1038.00,84.37
1037.00,84.48
1036.00,84.59
1035.00,84.69
1034.00,84.78
1033.00,84.85
1032.00,84.91
1031.00,84.98
1030.00,85.05
1029.00,85.13
1028.00,85.21
1027.00,85.30
1026.00,85.42
1025.00,85.56
1024.00,85.73
1023.00,85.90
1022.00,86.04
1021.00,86.16
1020.00,86.25
1019.00,86.31
1018.00,86.34
1017.00,86.36
1016.00,86.38
1015.00,86.41
1014.00,86.44
1013.00,86.47
1012.00,86.50
1011.00,86.54
1010.00,86.59
1009.00,86.65
1008.00,86.72
1007.00,86.79
1006.00,86.86
1005.00,86.91
1004.00,86.95
1003.00,86.97
1002.00,86.97
1001.00,86.96
1000.00,86.95
999.00,86.94
998.00,86.94
997.00,86.95
996.00,86.99
995.00,87.05
994.00,87.14
993.00,87.22
992.00,87.30
991.00,87.38
990.00,87.45
989.00,87.51
988.00,87.57
987.00,87.62
986.00,87.66
985.00,87.70
984.00,87.74
983.00,87.78
982.00,87.84
981.00,87.89
980.00,87.94
979.00,87.97
978.00,87.99
977.00,88.00
976.00,88.00
975.00,88.00
974.00,88.00
973.00,87.99
972.00,87.97
971.00,87.95
970.00,87.94
969.00,87.93
968.00,87.92
967.00,87.91
966.00,87.91
965.00,87.92
964.00,87.91
963.00,87.90
962.00,87.89
961.00,87.91
960.00,87.96
959.00,88.03
958.00,88.10
957.00,88.17
956.00,88.22
955.00,88.25
954.00,88.29
953.00,88.34
952.00,88.36
951.00,88.38
950.00,88.39
949.00,88.40
948.00,88.41
947.00,88.40
946.00,88.36
945.00,88.30
944.00,88.23
943.00,88.14
942.00,88.06
941.00,87.97
940.00,87.90
939.00,87.85
938.00,87.80
937.00,87.74
936.00,87.66
935.00,87.58
934.00,87.52
933.00,87.48
932.00,87.44
931.00,87.40
930.00,87.36
929.00,87.33
928.00,87.30
927.00,87.28
926.00,87.27
925.00,87.27
924.00,87.29
923.00,87.32
922.00,87.37
921.00,87.44
920.00,87.50
919.00,87.56
918.00,87.60
917.00,87.65
916.00,87.71
915.00,87.78
914.00,87.84
913.00,87.86
912.00,87.83
911.00,87.79
910.00,87.75
909.00,87.75
908.00,87.76
907.00,87.77
906.00,87.75
905.00,87.71
904.00,87.65
903.00,87.57
902.00,87.49
901.00,87.42
900.00,87.34
899.00,87.27
898.00,87.19
897.00,87.11
896.00,87.02
895.00,86.92
894.00,86.82
893.00,86.72
892.00,86.62
891.00,86.50
890.00,86.38
889.00,86.28
888.00,86.18
887.00,86.08
886.00,85.96
885.00,85.82
884.00,85.67
883.00,85.52
882.00,85.40
881.00,85.30
880.00,85.24
879.00,85.18
878.00,85.11
877.00,85.02
876.00,84.94
875.00,84.87
874.00,84.85
873.00,84.86
872.00,84.88
871.00,84.91
870.00,84.93
869.00,84.94
868.00,84.92
867.00,84.89
866.00,84.84
865.00,84.80
864.00,84.75
863.00,84.72
862.00,84.69
861.00,84.65
860.00,84.59
859.00,84.51
858.00,84.42
857.00,84.33
856.00,84.24
855.00,84.15
854.00,84.04
853.00,83.93
852.00,83.82
851.00,83.72
850.00,83.63
849.00,83.52
848.00,83.41
847.00,83.30
846.00,83.19
845.00,83.06
844.00,82.93
843.00,82.80
842.00,82.70
841.00,82.60
840.00,82.47
839.00,82.33
838.00,82.20
837.00,82.09
836.00,82.01
835.00,81.94
834.00,81.85
833.00,81.70
832.00,81.53
831.00,81.36
830.00,81.24
829.00,81.17
828.00,81.10
827.00,81.02
826.00,80.93
825.00,80.83
824.00,80.72
823.00,80.61
822.00,80.51
821.00,80.40
820.00,80.30
819.00,80.20
818.00,80.10
817.00,80.00
816.00,79.89
815.00,79.78
814.00,79.68
813.00,79.58
812.00,79.46
811.00,79.33
810.00,79.21
809.00,79.10
808.00,79.00
807.00,78.91
806.00,78.80
805.00,78.66
804.00,78.49
803.00,78.33
802.00,78.19
801.00,78.09
800.00,77.98
799.00,77.87
798.00,77.77
797.00,77.68
796.00,77.59
795.00,77.50
794.00,77.41
793.00,77.30
792.00,77.17
791.00,77.03
790.00,76.93
789.00,76.86
788.00,76.80
787.00,76.73
786.00,76.63
785.00,76.50
784.00,76.36
783.00,76.22
782.00,76.10
781.00,76.00
780.00,75.90
779.00,75.80
778.00,75.67
777.00,75.50
776.00,75.32
775.00,75.17
774.00,75.06
773.00,74.96
772.00,74.85
771.00,74.74
770.00,74.64
769.00,74.56
768.00,74.45
767.00,74.32
766.00,74.18
765.00,74.06
764.00,73.98
763.00,73.92
762.00,73.86
761.00,73.76
760.00,73.62
759.00,73.49
758.00,73.37
757.00,73.27
756.00,73.17
755.00,73.07
754.00,72.95
753.00,72.78
752.00,72.59
751.00,72.40
750.00,72.26
749.00,72.11
748.00,71.95
747.00,71.79
746.00,71.65
745.00,71.53
744.00,71.41
743.00,71.28
742.00,71.15
741.00,71.00
740.00,70.83
739.00,70.67
738.00,70.53
737.00,70.40
736.00,70.28
735.00,70.18
734.00,70.09
733.00,69.97
732.00,69.81
731.00,69.64
730.00,69.48
729.00,69.34
728.00,69.21
727.00,69.08
726.00,68.94
725.00,68.79
724.00,68.60
723.00,68.39
722.00,68.15
721.00,67.89
720.00,67.66
719.00,67.51
718.00,67.46
717.00,67.48
716.00,67.49
715.00,67.46
714.00,67.38
713.00,67.27
712.00,67.14
711.00,67.00
710.00,66.84
709.00,66.65
708.00,66.45
707.00,66.25
706.00,66.07
705.00,65.92
704.00,65.81
703.00,65.73
702.00,65.63
701.00,65.51
700.00,65.37
699.00,65.28
698.00,65.27
697.00,65.26
696.00,65.23
695.00,65.19
694.00,65.20
693.00,65.22
692.00,65.23
691.00,65.20
690.00,65.16
689.00,65.11
688.00,65.04
687.00,64.97
686.00,64.87
685.00,64.74
684.00,64.58
683.00,64.42
682.00,64.25
681.00,64.06
680.00,63.84
679.00,63.62
678.00,63.41
677.00,63.15
676.00,62.81
675.00,62.47
674.00,62.19
673.00,61.96
672.00,61.76
671.00,61.58
670.00,61.34
669.00,60.94
668.00,60.51
667.00,60.35
666.00,60.37
665.00,60.36
664.00,60.27
663.00,60.16
662.00,60.11
661.00,60.10
660.00,60.09
659.00,60.08
658.00,60.09
657.00,60.10
656.00,60.11
655.00,60.15
654.00,60.22
653.00,60.25
652.00,60.24
651.00,60.20
650.00,60.17
649.00,60.10
648.00,59.99
647.00,59.91
646.00,59.88
645.00,59.80
644.00,59.62
643.00,59.40
642.00,59.22
641.00,59.01
640.00,58.71
639.00,58.37
638.00,58.11
637.00,57.90
636.00,57.69
635.00,57.48
634.00,57.31
633.00,57.19
632.00,57.15
631.00,57.23
630.00,57.32
629.00,57.26
628.00,57.05
627.00,56.90
626.00,56.94
625.00,57.01
624.00,56.98
623.00,56.94
622.00,57.09
621.00,57.40
620.00,57.75
619.00,58.10
618.00,58.41
617.00,58.53
616.00,58.45
615.00,58.33
614.00,58.23
613.00,57.99
612.00,57.56
611.00,57.10
610.00,56.77
609.00,56.43
608.00,55.98
607.00,55.53
606.00,55.20
605.00,54.90
604.00,54.39
603.00,53.62
602.00,52.76
601.00,52.03
600.00,51.69
599.00,51.83
598.00,52.17
597.00,52.26
596.00,52.05
595.00,51.87
594.00,51.97
593.00,52.22
592.00,52.46
591.00,52.79
590.00,53.29
589.00,53.83
588.00,54.37
587.00,55.04
586.00,55.80
585.00,56.38
584.00,56.73
583.00,57.05
582.00,57.44
581.00,57.72
580.00,57.99
579.00,58.59
578.00,59.39
577.00,59.70
576.00,59.21
575.00,58.36
574.00,57.56
573.00,56.70
572.00,55.74
571.00,54.98
570.00,54.44
569.00,53.66
568.00,52.49
567.00,51.44
566.00,50.77
565.00,50.13
564.00,49.48
563.00,49.37
562.00,49.93
561.00,50.48
560.00,50.56
559.00,50.52
558.00,50.70
557.00,50.82
556.00,50.75
555.00,50.98
554.00,51.79
553.00,52.74
552.00,53.47
551.00,54.21
550.00,55.09
