Created as New Dataset,12.3 Red Wool Lincoln sheep
cm-1,%T
4000.00,102.75
3999.00,102.74
3998.00,102.73
3997.00,102.73
3996.00,102.75
3995.00,102.76
3994.00,102.77
3993.00,102.76
3992.00,102.74
3991.00,102.73
3990.00,102.74
3989.00,102.75
3988.00,102.76
3987.00,102.76
3986.00,102.75
3985.00,102.73
3984.00,102.72
3983.00,102.72
3982.00,102.73
3981.00,102.75
3980.00,102.77
3979.00,102.79
3978.00,102.79
3977.00,102.78
3976.00,102.77
3975.00,102.76
3974.00,102.77
3973.00,102.78
3972.00,102.79
3971.00,102.79
3970.00,102.78
3969.00,102.78
3968.00,102.79
3967.00,102.81
3966.00,102.81
3965.00,102.81
3964.00,102.80
3963.00,102.79
3962.00,102.79
3961.00,102.79
3960.00,102.80
3959.00,102.80
3958.00,102.80
3957.00,102.79
3956.00,102.77
3955.00,102.74
3954.00,102.72
3953.00,102.70
3952.00,102.69
3951.00,102.70
3950.00,102.70
3949.00,102.71
3948.00,102.71
3947.00,102.70
3946.00,102.67
3945.00,102.65
3944.00,102.65
3943.00,102.68
3942.00,102.71
3941.00,102.73
3940.00,102.73
3939.00,102.74
3938.00,102.77
3937.00,102.80
3936.00,102.80
3935.00,102.77
3934.00,102.74
3933.00,102.71
3932.00,102.69
3931.00,102.68
3930.00,102.67
3929.00,102.68
3928.00,102.69
3927.00,102.70
3926.00,102.71
3925.00,102.73
3924.00,102.74
3923.00,102.74
3922.00,102.74
3921.00,102.73
3920.00,102.71
3919.00,102.68
3918.00,102.64
3917.00,102.63
3916.00,102.64
3915.00,102.65
3914.00,102.65
3913.00,102.66
3912.00,102.69
3911.00,102.71
3910.00,102.71
3909.00,102.70
3908.00,102.68
3907.00,102.65
3906.00,102.63
3905.00,102.61
3904.00,102.59
3903.00,102.55
3902.00,102.50
3901.00,102.47
3900.00,102.49
3899.00,102.54
3898.00,102.60
3897.00,102.63
3896.00,102.66
3895.00,102.68
3894.00,102.69
3893.00,102.68
3892.00,102.66
3891.00,102.66
3890.00,102.66
3889.00,102.62
3888.00,102.56
3887.00,102.55
3886.00,102.61
3885.00,102.66
3884.00,102.63
3883.00,102.54
3882.00,102.46
3881.00,102.48
3880.00,102.55
3879.00,102.62
3878.00,102.62
3877.00,102.60
3876.00,102.59
3875.00,102.64
3874.00,102.69
3873.00,102.66
3872.00,102.57
3871.00,102.52
3870.00,102.57
3869.00,102.65
3868.00,102.64
3867.00,102.56
3866.00,102.50
3865.00,102.52
3864.00,102.56
3863.00,102.57
3862.00,102.58
3861.00,102.60
3860.00,102.63
3859.00,102.65
3858.00,102.66
3857.00,102.64
3856.00,102.60
3855.00,102.57
3854.00,102.57
3853.00,102.58
3852.00,102.57
3851.00,102.56
3850.00,102.55
3849.00,102.57
3848.00,102.61
3847.00,102.64
3846.00,102.66
3845.00,102.67
3844.00,102.69
3843.00,102.69
3842.00,102.69
3841.00,102.66
3840.00,102.64
3839.00,102.63
3838.00,102.62
3837.00,102.60
3836.00,102.58
3835.00,102.58
3834.00,102.57
3833.00,102.59
3832.00,102.61
3831.00,102.63
3830.00,102.63
3829.00,102.60
3828.00,102.59
3827.00,102.62
3826.00,102.67
3825.00,102.69
3824.00,102.64
3823.00,102.58
3822.00,102.57
3821.00,102.62
3820.00,102.65
3819.00,102.60
3818.00,102.52
3817.00,102.51
3816.00,102.58
3815.00,102.64
3814.00,102.63
3813.00,102.60
3812.00,102.60
3811.00,102.64
3810.00,102.66
3809.00,102.63
3808.00,102.61
3807.00,102.64
3806.00,102.67
3805.00,102.63
3804.00,102.55
3803.00,102.50
3802.00,102.54
3801.00,102.61
3800.00,102.62
3799.00,102.55
3798.00,102.48
3797.00,102.47
3796.00,102.51
3795.00,102.55
3794.00,102.56
3793.00,102.57
3792.00,102.61
3791.00,102.64
3790.00,102.65
3789.00,102.65
3788.00,102.64
3787.00,102.64
3786.00,102.63
3785.00,102.64
3784.00,102.65
3783.00,102.65
3782.00,102.63
3781.00,102.62
3780.00,102.64
3779.00,102.67
3778.00,102.68
3777.00,102.66
3776.00,102.64
3775.00,102.64
3774.00,102.65
3773.00,102.63
3772.00,102.60
3771.00,102.60
3770.00,102.62
3769.00,102.63
3768.00,102.60
3767.00,102.53
3766.00,102.48
3765.00,102.49
3764.00,102.51
3763.00,102.51
3762.00,102.51
3761.00,102.52
3760.00,102.53
3759.00,102.51
3758.00,102.48
3757.00,102.47
3756.00,102.48
3755.00,102.50
3754.00,102.53
3753.00,102.57
3752.00,102.58
3751.00,102.54
3750.00,102.51
3749.00,102.53
3748.00,102.52
3747.00,102.46
3746.00,102.40
3745.00,102.44
3744.00,102.53
3743.00,102.55
3742.00,102.48
3741.00,102.42
3740.00,102.43
3739.00,102.46
3738.00,102.45
3737.00,102.42
3736.00,102.38
3735.00,102.35
3734.00,102.32
3733.00,102.34
3732.00,102.41
3731.00,102.48
3730.00,102.51
3729.00,102.49
3728.00,102.48
3727.00,102.50
3726.00,102.51
3725.00,102.49
3724.00,102.44
3723.00,102.41
3722.00,102.40
3721.00,102.39
3720.00,102.39
3719.00,102.40
3718.00,102.44
3717.00,102.49
3716.00,102.50
3715.00,102.49
3714.00,102.47
3713.00,102.46
3712.00,102.45
3711.00,102.42
3710.00,102.40
3709.00,102.39
3708.00,102.41
3707.00,102.44
3706.00,102.46
3705.00,102.46
3704.00,102.45
3703.00,102.43
3702.00,102.42
3701.00,102.42
3700.00,102.42
3699.00,102.41
3698.00,102.40
3697.00,102.41
3696.00,102.42
3695.00,102.40
3694.00,102.37
3693.00,102.36
3692.00,102.36
3691.00,102.34
3690.00,102.29
3689.00,102.23
3688.00,102.22
3687.00,102.22
3686.00,102.21
3685.00,102.21
3684.00,102.23
3683.00,102.27
3682.00,102.29
3681.00,102.31
3680.00,102.33
3679.00,102.32
3678.00,102.24
3677.00,102.13
3676.00,102.08
3675.00,102.10
3674.00,102.11
3673.00,102.05
3672.00,101.99
3671.00,102.01
3670.00,102.06
3669.00,102.07
3668.00,102.03
3667.00,101.99
3666.00,101.98
3665.00,102.00
3664.00,102.01
3663.00,102.01
3662.00,102.01
3661.00,102.01
3660.00,102.00
3659.00,101.98
3658.00,101.94
3657.00,101.92
3656.00,101.91
3655.00,101.89
3654.00,101.83
3653.00,101.75
3652.00,101.70
3651.00,101.70
3650.00,101.68
3649.00,101.60
3648.00,101.51
3647.00,101.48
3646.00,101.47
3645.00,101.47
3644.00,101.47
3643.00,101.47
3642.00,101.49
3641.00,101.51
3640.00,101.51
3639.00,101.50
3638.00,101.51
3637.00,101.51
3636.00,101.50
3635.00,101.49
3634.00,101.47
3633.00,101.43
3632.00,101.34
3631.00,101.24
3630.00,101.19
3629.00,101.19
3628.00,101.19
3627.00,101.14
3626.00,101.07
3625.00,101.03
3624.00,101.02
3623.00,101.02
3622.00,100.99
3621.00,100.94
3620.00,100.88
3619.00,100.81
3618.00,100.74
3617.00,100.68
3616.00,100.63
3615.00,100.61
3614.00,100.61
3613.00,100.63
3612.00,100.62
3611.00,100.58
3610.00,100.53
3609.00,100.51
3608.00,100.53
3607.00,100.55
3606.00,100.56
3605.00,100.55
3604.00,100.53
3603.00,100.51
3602.00,100.47
3601.00,100.43
3600.00,100.37
3599.00,100.31
3598.00,100.24
3597.00,100.19
3596.00,100.14
3595.00,100.11
3594.00,100.10
3593.00,100.09
3592.00,100.06
3591.00,100.00
3590.00,99.93
3589.00,99.86
3588.00,99.82
3587.00,99.80
3586.00,99.80
3585.00,99.79
3584.00,99.78
3583.00,99.76
3582.00,99.74
3581.00,99.72
3580.00,99.71
3579.00,99.71
3578.00,99.68
3577.00,99.64
3576.00,99.57
3575.00,99.51
3574.00,99.46
3573.00,99.43
3572.00,99.40
3571.00,99.36
3570.00,99.30
3569.00,99.24
3568.00,99.18
3567.00,99.13
3566.00,99.08
3565.00,99.03
3564.00,99.00
3563.00,98.99
3562.00,98.98
3561.00,98.97
3560.00,98.95
3559.00,98.92
3558.00,98.90
3557.00,98.88
3556.00,98.86
3555.00,98.83
3554.00,98.79
3553.00,98.74
3552.00,98.70
3551.00,98.66
3550.00,98.61
3549.00,98.57
3548.00,98.52
3547.00,98.48
3546.00,98.44
3545.00,98.40
3544.00,98.36
3543.00,98.33
3542.00,98.31
3541.00,98.31
3540.00,98.30
3539.00,98.28
3538.00,98.23
3537.00,98.19
3536.00,98.14
3535.00,98.10
3534.00,98.07
3533.00,98.05
3532.00,98.02
3531.00,97.98
3530.00,97.94
3529.00,97.89
3528.00,97.83
3527.00,97.77
3526.00,97.71
3525.00,97.66
3524.00,97.63
3523.00,97.62
3522.00,97.61
3521.00,97.60
3520.00,97.57
3519.00,97.55
3518.00,97.52
3517.00,97.49
3516.00,97.47
3515.00,97.45
3514.00,97.43
3513.00,97.41
3512.00,97.37
3511.00,97.33
3510.00,97.29
3509.00,97.26
3508.00,97.23
3507.00,97.20
3506.00,97.16
3505.00,97.12
3504.00,97.08
3503.00,97.05
3502.00,97.03
3501.00,97.02
3500.00,97.00
3499.00,96.98
3498.00,96.95
3497.00,96.90
3496.00,96.85
3495.00,96.81
3494.00,96.78
3493.00,96.75
3492.00,96.73
3491.00,96.70
3490.00,96.67
3489.00,96.65
3488.00,96.64
3487.00,96.63
3486.00,96.61
3485.00,96.58
3484.00,96.54
3483.00,96.52
3482.00,96.49
3481.00,96.46
3480.00,96.42
3479.00,96.40
3478.00,96.37
3477.00,96.35
3476.00,96.32
3475.00,96.28
3474.00,96.24
3473.00,96.20
3472.00,96.18
3471.00,96.17
3470.00,96.15
3469.00,96.12
3468.00,96.08
3467.00,96.05
3466.00,96.02
3465.00,95.98
3464.00,95.95
3463.00,95.92
3462.00,95.90
3461.00,95.88
3460.00,95.86
3459.00,95.83
3458.00,95.80
3457.00,95.77
3456.00,95.75
3455.00,95.74
3454.00,95.72
3453.00,95.70
3452.00,95.67
3451.00,95.64
3450.00,95.62
3449.00,95.61
3448.00,95.59
3447.00,95.56
3446.00,95.51
3445.00,95.46
3444.00,95.42
3443.00,95.40
3442.00,95.39
3441.00,95.38
3440.00,95.36
3439.00,95.33
3438.00,95.28
3437.00,95.24
3436.00,95.19
3435.00,95.16
3434.00,95.13
3433.00,95.10
3432.00,95.08
3431.00,95.06
3430.00,95.04
3429.00,95.01
3428.00,94.99
3427.00,94.97
3426.00,94.95
3425.00,94.91
3424.00,94.88
3423.00,94.85
3422.00,94.82
3421.00,94.80
3420.00,94.77
3419.00,94.76
3418.00,94.74
3417.00,94.73
3416.00,94.70
3415.00,94.67
3414.00,94.62
3413.00,94.58
3412.00,94.56
3411.00,94.55
3410.00,94.53
3409.00,94.50
3408.00,94.46
3407.00,94.42
3406.00,94.38
3405.00,94.36
3404.00,94.35
3403.00,94.34
3402.00,94.33
3401.00,94.31
3400.00,94.27
3399.00,94.23
3398.00,94.20
3397.00,94.17
3396.00,94.15
3395.00,94.12
3394.00,94.09
3393.00,94.06
3392.00,94.04
3391.00,94.03
3390.00,94.02
3389.00,94.01
3388.00,93.98
3387.00,93.95
3386.00,93.92
3385.00,93.89
3384.00,93.85
3383.00,93.82
3382.00,93.79
3381.00,93.76
3380.00,93.75
3379.00,93.73
3378.00,93.71
3377.00,93.67
3376.00,93.63
3375.00,93.60
3374.00,93.57
3373.00,93.54
3372.00,93.51
3371.00,93.49
3370.00,93.46
3369.00,93.44
3368.00,93.41
3367.00,93.38
3366.00,93.35
3365.00,93.30
3364.00,93.27
3363.00,93.25
3362.00,93.23
3361.00,93.21
3360.00,93.18
3359.00,93.15
3358.00,93.11
3357.00,93.06
3356.00,93.01
3355.00,92.96
3354.00,92.93
3353.00,92.89
3352.00,92.86
3351.00,92.83
3350.00,92.80
3349.00,92.76
3348.00,92.72
3347.00,92.68
3346.00,92.63
3345.00,92.60
3344.00,92.59
3343.00,92.59
3342.00,92.59
3341.00,92.58
3340.00,92.57
3339.00,92.54
3338.00,92.50
3337.00,92.46
3336.00,92.40
3335.00,92.35
3334.00,92.29
3333.00,92.24
3332.00,92.20
3331.00,92.17
3330.00,92.15
3329.00,92.13
3328.00,92.10
3327.00,92.05
3326.00,92.01
3325.00,91.97
3324.00,91.93
3323.00,91.90
3322.00,91.85
3321.00,91.80
3320.00,91.74
3319.00,91.68
3318.00,91.64
3317.00,91.60
3316.00,91.57
3315.00,91.55
3314.00,91.52
3313.00,91.49
3312.00,91.45
3311.00,91.41
3310.00,91.37
3309.00,91.33
3308.00,91.30
3307.00,91.29
3306.00,91.27
3305.00,91.24
3304.00,91.20
3303.00,91.15
3302.00,91.10
3301.00,91.06
3300.00,91.02
3299.00,90.98
3298.00,90.94
3297.00,90.90
3296.00,90.86
3295.00,90.84
3294.00,90.82
3293.00,90.79
3292.00,90.75
3291.00,90.71
3290.00,90.68
3289.00,90.66
3288.00,90.66
3287.00,90.66
3286.00,90.65
3285.00,90.64
3284.00,90.61
3283.00,90.59
3282.00,90.56
3281.00,90.54
3280.00,90.54
3279.00,90.56
3278.00,90.58
3277.00,90.59
3276.00,90.58
3275.00,90.56
3274.00,90.54
3273.00,90.53
3272.00,90.53
3271.00,90.55
3270.00,90.57
3269.00,90.60
3268.00,90.63
3267.00,90.65
3266.00,90.67
3265.00,90.69
3264.00,90.71
3263.00,90.74
3262.00,90.76
3261.00,90.78
3260.00,90.80
3259.00,90.83
3258.00,90.87
3257.00,90.92
3256.00,90.97
3255.00,91.03
3254.00,91.09
3253.00,91.14
3252.00,91.19
3251.00,91.22
3250.00,91.26
3249.00,91.29
3248.00,91.33
3247.00,91.37
3246.00,91.40
3245.00,91.42
3244.00,91.45
3243.00,91.48
3242.00,91.52
3241.00,91.56
3240.00,91.60
3239.00,91.63
3238.00,91.66
3237.00,91.68
3236.00,91.69
3235.00,91.70
3234.00,91.73
3233.00,91.79
3232.00,91.85
3231.00,91.90
3230.00,91.94
3229.00,91.96
3228.00,91.98
3227.00,91.99
3226.00,92.01
3225.00,92.03
3224.00,92.06
3223.00,92.08
3222.00,92.10
3221.00,92.12
3220.00,92.15
3219.00,92.17
3218.00,92.20
3217.00,92.24
3216.00,92.28
3215.00,92.33
3214.00,92.37
3213.00,92.40
3212.00,92.42
3211.00,92.44
3210.00,92.46
3209.00,92.47
3208.00,92.50
3207.00,92.53
3206.00,92.57
3205.00,92.62
3204.00,92.65
3203.00,92.68
3202.00,92.70
3201.00,92.72
3200.00,92.75
3199.00,92.77
3198.00,92.80
3197.00,92.85
3196.00,92.90
3195.00,92.95
3194.00,92.98
3193.00,93.00
3192.00,93.03
3191.00,93.06
3190.00,93.10
3189.00,93.16
3188.00,93.22
3187.00,93.27
3186.00,93.31
3185.00,93.34
3184.00,93.37
3183.00,93.41
3182.00,93.44
3181.00,93.47
3180.00,93.51
3179.00,93.57
3178.00,93.63
3177.00,93.69
3176.00,93.74
3175.00,93.77
3174.00,93.80
3173.00,93.83
3172.00,93.88
3171.00,93.93
3170.00,93.99
3169.00,94.04
3168.00,94.09
3167.00,94.13
3166.00,94.17
3165.00,94.23
3164.00,94.28
3163.00,94.34
3162.00,94.39
3161.00,94.44
3160.00,94.49
3159.00,94.53
3158.00,94.58
3157.00,94.61
3156.00,94.64
3155.00,94.67
3154.00,94.72
3153.00,94.77
3152.00,94.82
3151.00,94.86
3150.00,94.90
3149.00,94.95
3148.00,95.01
3147.00,95.06
3146.00,95.11
3145.00,95.13
3144.00,95.14
3143.00,95.15
3142.00,95.18
3141.00,95.22
3140.00,95.27
3139.00,95.32
3138.00,95.36
3137.00,95.40
3136.00,95.43
3135.00,95.47
3134.00,95.50
3133.00,95.51
3132.00,95.53
3131.00,95.56
3130.00,95.59
3129.00,95.61
3128.00,95.64
3127.00,95.66
3126.00,95.69
3125.00,95.71
3124.00,95.72
3123.00,95.74
3122.00,95.76
3121.00,95.78
3120.00,95.80
3119.00,95.83
3118.00,95.86
3117.00,95.89
3116.00,95.91
3115.00,95.93
3114.00,95.93
3113.00,95.91
3112.00,95.89
3111.00,95.88
3110.00,95.88
3109.00,95.89
3108.00,95.90
3107.00,95.93
3106.00,95.96
3105.00,95.97
3104.00,95.97
3103.00,95.96
3102.00,95.95
3101.00,95.95
3100.00,95.97
3099.00,95.99
3098.00,95.99
3097.00,95.98
3096.00,95.95
3095.00,95.91
3094.00,95.88
3093.00,95.86
3092.00,95.87
3091.00,95.89
3090.00,95.90
3089.00,95.91
3088.00,95.90
3087.00,95.87
3086.00,95.84
3085.00,95.82
3084.00,95.81
3083.00,95.79
3082.00,95.77
3081.00,95.75
3080.00,95.73
3079.00,95.71
3078.00,95.71
3077.00,95.70
3076.00,95.70
3075.00,95.70
3074.00,95.69
3073.00,95.69
3072.00,95.68
3071.00,95.68
3070.00,95.69
3069.00,95.70
3068.00,95.72
3067.00,95.73
3066.00,95.74
3065.00,95.74
3064.00,95.74
3063.00,95.74
3062.00,95.75
3061.00,95.77
3060.00,95.80
3059.00,95.83
3058.00,95.86
3057.00,95.88
3056.00,95.92
3055.00,95.95
3054.00,95.99
3053.00,96.01
3052.00,96.02
3051.00,96.03
3050.00,96.04
3049.00,96.06
3048.00,96.09
3047.00,96.12
3046.00,96.15
3045.00,96.18
3044.00,96.22
3043.00,96.26
3042.00,96.29
3041.00,96.32
3040.00,96.33
3039.00,96.35
3038.00,96.38
3037.00,96.43
3036.00,96.48
3035.00,96.53
3034.00,96.57
3033.00,96.61
3032.00,96.64
3031.00,96.66
3030.00,96.69
3029.00,96.71
3028.00,96.73
3027.00,96.76
3026.00,96.79
3025.00,96.84
3024.00,96.89
3023.00,96.93
3022.00,96.95
3021.00,96.96
3020.00,96.97
3019.00,96.98
3018.00,97.00
3017.00,97.02
3016.00,97.05
3015.00,97.08
3014.00,97.10
3013.00,97.11
3012.00,97.12
3011.00,97.12
3010.00,97.13
3009.00,97.13
3008.00,97.13
3007.00,97.12
3006.00,97.12
3005.00,97.12
3004.00,97.12
3003.00,97.13
3002.00,97.12
3001.00,97.10
3000.00,97.07
2999.00,97.05
2998.00,97.03
2997.00,97.01
2996.00,96.99
2995.00,96.96
2994.00,96.92
2993.00,96.87
2992.00,96.81
2991.00,96.75
2990.00,96.68
2989.00,96.61
2988.00,96.53
2987.00,96.46
2986.00,96.40
2985.00,96.33
2984.00,96.26
2983.00,96.18
2982.00,96.10
2981.00,96.01
2980.00,95.91
2979.00,95.81
2978.00,95.71
2977.00,95.60
2976.00,95.48
2975.00,95.37
2974.00,95.26
2973.00,95.15
2972.00,95.04
2971.00,94.94
2970.00,94.84
2969.00,94.74
2968.00,94.63
2967.00,94.53
2966.00,94.42
2965.00,94.30
2964.00,94.19
2963.00,94.09
2962.00,94.00
2961.00,93.92
2960.00,93.86
2959.00,93.80
2958.00,93.77
2957.00,93.76
2956.00,93.75
2955.00,93.76
2954.00,93.78
2953.00,93.80
2952.00,93.82
2951.00,93.86
2950.00,93.89
2949.00,93.91
2948.00,93.91
2947.00,93.88
2946.00,93.83
2945.00,93.75
2944.00,93.66
2943.00,93.54
2942.00,93.40
2941.00,93.25
2940.00,93.10
2939.00,92.94
2938.00,92.77
2937.00,92.58
2936.00,92.38
2935.00,92.19
2934.00,91.99
2933.00,91.79
2932.00,91.57
2931.00,91.34
2930.00,91.12
2929.00,90.90
2928.00,90.69
2927.00,90.47
2926.00,90.24
2925.00,90.00
2924.00,89.78
2923.00,89.57
2922.00,89.38
2921.00,89.21
2920.00,89.07
2919.00,88.99
2918.00,89.00
2917.00,89.13
2916.00,89.40
2915.00,89.80
2914.00,90.28
2913.00,90.81
2912.00,91.33
2911.00,91.82
2910.00,92.26
2909.00,92.64
2908.00,92.95
2907.00,93.21
2906.00,93.43
2905.00,93.62
2904.00,93.80
2903.00,93.95
2902.00,94.10
2901.00,94.22
2900.00,94.33
2899.00,94.44
2898.00,94.55
2897.00,94.66
2896.00,94.77
2895.00,94.87
2894.00,94.97
2893.00,95.05
2892.00,95.13
2891.00,95.21
2890.00,95.28
2889.00,95.34
2888.00,95.40
2887.00,95.45
2886.00,95.49
2885.00,95.54
2884.00,95.58
2883.00,95.62
2882.00,95.65
2881.00,95.68
2880.00,95.69
2879.00,95.69
2878.00,95.67
2877.00,95.65
2876.00,95.63
2875.00,95.62
2874.00,95.61
2873.00,95.61
2872.00,95.60
2871.00,95.60
2870.00,95.60
2869.00,95.62
2868.00,95.66
2867.00,95.70
2866.00,95.73
2865.00,95.74
2864.00,95.73
2863.00,95.68
2862.00,95.60
2861.00,95.47
2860.00,95.30
2859.00,95.10
2858.00,94.88
2857.00,94.63
2856.00,94.35
2855.00,94.05
2854.00,93.73
2853.00,93.41
2852.00,93.12
2851.00,92.93
2850.00,92.90
2849.00,93.07
2848.00,93.46
2847.00,94.00
2846.00,94.61
2845.00,95.22
2844.00,95.77
2843.00,96.23
2842.00,96.60
2841.00,96.90
2840.00,97.16
2839.00,97.37
2838.00,97.55
2837.00,97.69
2836.00,97.82
2835.00,97.92
2834.00,98.00
2833.00,98.08
2832.00,98.15
2831.00,98.21
2830.00,98.26
2829.00,98.31
2828.00,98.36
2827.00,98.41
2826.00,98.44
2825.00,98.47
2824.00,98.50
2823.00,98.52
2822.00,98.54
2821.00,98.58
2820.00,98.61
2819.00,98.66
2818.00,98.69
2817.00,98.73
2816.00,98.77
2815.00,98.81
2814.00,98.82
2813.00,98.83
2812.00,98.83
2811.00,98.84
2810.00,98.86
2809.00,98.89
2808.00,98.91
2807.00,98.92
2806.00,98.93
2805.00,98.95
2804.00,98.98
2803.00,99.01
2802.00,99.03
2801.00,99.05
2800.00,99.06
2799.00,99.07
2798.00,99.09
2797.00,99.11
2796.00,99.13
2795.00,99.13
2794.00,99.14
2793.00,99.15
2792.00,99.16
2791.00,99.18
2790.00,99.20
2789.00,99.23
2788.00,99.26
2787.00,99.29
2786.00,99.31
2785.00,99.33
2784.00,99.35
2783.00,99.37
2782.00,99.38
2781.00,99.39
2780.00,99.39
2779.00,99.40
2778.00,99.42
2777.00,99.45
2776.00,99.47
2775.00,99.48
2774.00,99.48
2773.00,99.48
2772.00,99.49
2771.00,99.50
2770.00,99.51
2769.00,99.52
2768.00,99.53
2767.00,99.53
2766.00,99.54
2765.00,99.56
2764.00,99.59
2763.00,99.62
2762.00,99.64
2761.00,99.65
2760.00,99.65
2759.00,99.66
2758.00,99.68
2757.00,99.69
2756.00,99.70
2755.00,99.70
2754.00,99.70
2753.00,99.69
2752.00,99.69
2751.00,99.70
2750.00,99.71
2749.00,99.73
2748.00,99.74
2747.00,99.75
2746.00,99.76
2745.00,99.78
2744.00,99.80
2743.00,99.81
2742.00,99.83
2741.00,99.84
2740.00,99.84
2739.00,99.85
2738.00,99.85
2737.00,99.86
2736.00,99.86
2735.00,99.87
2734.00,99.88
2733.00,99.88
2732.00,99.88
2731.00,99.89
2730.00,99.89
2729.00,99.90
2728.00,99.90
2727.00,99.92
2726.00,99.94
2725.00,99.96
2724.00,99.98
2723.00,99.99
2722.00,100.00
2721.00,100.00
2720.00,100.01
2719.00,100.02
2718.00,100.03
2717.00,100.03
2716.00,100.03
2715.00,100.04
2714.00,100.06
2713.00,100.08
2712.00,100.10
2711.00,100.11
2710.00,100.10
2709.00,100.09
2708.00,100.09
2707.00,100.11
2706.00,100.12
2705.00,100.13
2704.00,100.13
2703.00,100.12
2702.00,100.12
2701.00,100.13
2700.00,100.14
2699.00,100.15
2698.00,100.15
2697.00,100.14
2696.00,100.14
2695.00,100.14
2694.00,100.16
2693.00,100.19
2692.00,100.21
2691.00,100.22
2690.00,100.21
2689.00,100.19
2688.00,100.18
2687.00,100.18
2686.00,100.19
2685.00,100.20
2684.00,100.21
2683.00,100.22
2682.00,100.22
2681.00,100.22
2680.00,100.22
2679.00,100.22
2678.00,100.22
2677.00,100.22
2676.00,100.23
2675.00,100.24
2674.00,100.25
2673.00,100.26
2672.00,100.28
2671.00,100.30
2670.00,100.30
2669.00,100.30
2668.00,100.29
2667.00,100.28
2666.00,100.27
2665.00,100.27
2664.00,100.27
2663.00,100.27
2662.00,100.27
2661.00,100.27
2660.00,100.28
2659.00,100.28
2658.00,100.28
2657.00,100.29
2656.00,100.29
2655.00,100.29
2654.00,100.29
2653.00,100.29
2652.00,100.29
2651.00,100.29
2650.00,100.27
2649.00,100.26
2648.00,100.25
2647.00,100.24
2646.00,100.24
2645.00,100.25
2644.00,100.25
2643.00,100.25
2642.00,100.26
2641.00,100.27
2640.00,100.29
2639.00,100.31
2638.00,100.32
2637.00,100.31
2636.00,100.29
2635.00,100.27
2634.00,100.26
2633.00,100.26
2632.00,100.26
2631.00,100.27
2630.00,100.28
2629.00,100.28
2628.00,100.28
2627.00,100.28
2626.00,100.28
2625.00,100.29
2624.00,100.30
2623.00,100.31
2622.00,100.31
2621.00,100.31
2620.00,100.32
2619.00,100.33
2618.00,100.33
2617.00,100.32
2616.00,100.30
2615.00,100.29
2614.00,100.28
2613.00,100.28
2612.00,100.28
2611.00,100.28
2610.00,100.28
2609.00,100.28
2608.00,100.30
2607.00,100.32
2606.00,100.34
2605.00,100.35
2604.00,100.35
2603.00,100.35
2602.00,100.35
2601.00,100.35
2600.00,100.35
2599.00,100.36
2598.00,100.38
2597.00,100.38
2596.00,100.38
2595.00,100.38
2594.00,100.37
2593.00,100.36
2592.00,100.36
2591.00,100.38
2590.00,100.42
2589.00,100.46
2588.00,100.49
2587.00,100.51
2586.00,100.51
2585.00,100.50
2584.00,100.47
2583.00,100.45
2582.00,100.43
2581.00,100.43
2580.00,100.44
2579.00,100.46
2578.00,100.47
2577.00,100.48
2576.00,100.48
2575.00,100.47
2574.00,100.46
2573.00,100.47
2572.00,100.47
2571.00,100.48
2570.00,100.47
2569.00,100.45
2568.00,100.45
2567.00,100.45
2566.00,100.45
2565.00,100.44
2564.00,100.44
2563.00,100.43
2562.00,100.43
2561.00,100.42
2560.00,100.41
2559.00,100.41
2558.00,100.42
2557.00,100.41
2556.00,100.40
2555.00,100.40
2554.00,100.40
2553.00,100.41
2552.00,100.43
2551.00,100.46
2550.00,100.49
2549.00,100.49
2548.00,100.48
2547.00,100.47
2546.00,100.46
2545.00,100.45
2544.00,100.44
2543.00,100.45
2542.00,100.47
2541.00,100.48
2540.00,100.49
2539.00,100.49
2538.00,100.48
2537.00,100.47
2536.00,100.48
2535.00,100.52
2534.00,100.57
2533.00,100.59
2532.00,100.57
2531.00,100.53
2530.00,100.49
2529.00,100.49
2528.00,100.51
2527.00,100.56
2526.00,100.59
2525.00,100.61
2524.00,100.60
2523.00,100.59
2522.00,100.58
2521.00,100.58
2520.00,100.59
2519.00,100.60
2518.00,100.60
2517.00,100.59
2516.00,100.57
2515.00,100.55
2514.00,100.54
2513.00,100.54
2512.00,100.54
2511.00,100.54
2510.00,100.53
2509.00,100.52
2508.00,100.53
2507.00,100.53
2506.00,100.53
2505.00,100.52
2504.00,100.52
2503.00,100.54
2502.00,100.57
2501.00,100.59
2500.00,100.59
2499.00,100.58
2498.00,100.57
2497.00,100.55
2496.00,100.54
2495.00,100.53
2494.00,100.53
2493.00,100.53
2492.00,100.53
2491.00,100.53
2490.00,100.54
2489.00,100.56
2488.00,100.59
2487.00,100.61
2486.00,100.62
2485.00,100.62
2484.00,100.62
2483.00,100.63
2482.00,100.65
2481.00,100.66
2480.00,100.66
2479.00,100.65
2478.00,100.64
2477.00,100.63
2476.00,100.63
2475.00,100.64
2474.00,100.66
2473.00,100.67
2472.00,100.66
2471.00,100.65
2470.00,100.65
2469.00,100.65
2468.00,100.65
2467.00,100.65
2466.00,100.65
2465.00,100.66
2464.00,100.67
2463.00,100.66
2462.00,100.65
2461.00,100.63
2460.00,100.61
2459.00,100.60
2458.00,100.59
2457.00,100.60
2456.00,100.63
2455.00,100.67
2454.00,100.69
2453.00,100.69
2452.00,100.66
2451.00,100.64
2450.00,100.64
2449.00,100.66
2448.00,100.67
2447.00,100.69
2446.00,100.68
2445.00,100.68
2444.00,100.67
2443.00,100.67
2442.00,100.68
2441.00,100.68
2440.00,100.68
2439.00,100.68
2438.00,100.69
2437.00,100.70
2436.00,100.69
2435.00,100.67
2434.00,100.66
2433.00,100.66
2432.00,100.66
2431.00,100.67
2430.00,100.69
2429.00,100.71
2428.00,100.71
2427.00,100.71
2426.00,100.70
2425.00,100.69
2424.00,100.69
2423.00,100.69
2422.00,100.70
2421.00,100.72
2420.00,100.73
2419.00,100.74
2418.00,100.75
2417.00,100.75
2416.00,100.76
2415.00,100.77
2414.00,100.77
2413.00,100.76
2412.00,100.75
2411.00,100.73
2410.00,100.71
2409.00,100.72
2408.00,100.74
2407.00,100.77
2406.00,100.79
2405.00,100.80
2404.00,100.81
2403.00,100.82
2402.00,100.83
2401.00,100.82
2400.00,100.81
2399.00,100.81
2398.00,100.81
2397.00,100.82
2396.00,100.83
2395.00,100.84
2394.00,100.84
2393.00,100.84
2392.00,100.83
2391.00,100.83
2390.00,100.83
2389.00,100.84
2388.00,100.85
2387.00,100.87
2386.00,100.90
2385.00,100.94
2384.00,100.98
2383.00,101.02
2382.00,101.06
2381.00,101.10
2380.00,101.15
2379.00,101.20
2378.00,101.23
2377.00,101.23
2376.00,101.18
2375.00,101.13
2374.00,101.08
2373.00,101.06
2372.00,101.07
2371.00,101.10
2370.00,101.15
2369.00,101.19
2368.00,101.20
2367.00,101.19
2366.00,101.18
2365.00,101.17
2364.00,101.18
2363.00,101.18
2362.00,101.17
2361.00,101.12
2360.00,101.07
2359.00,101.02
2358.00,100.99
2357.00,101.00
2356.00,101.04
2355.00,101.09
2354.00,101.14
2353.00,101.16
2352.00,101.19
2351.00,101.24
2350.00,101.32
2349.00,101.42
2348.00,101.53
2347.00,101.58
2346.00,101.52
2345.00,101.37
2344.00,101.22
2343.00,101.13
2342.00,101.12
2341.00,101.13
2340.00,101.13
2339.00,101.12
2338.00,101.10
2337.00,101.08
2336.00,101.06
2335.00,101.05
2334.00,101.06
2333.00,101.06
2332.00,101.05
2331.00,101.04
2330.00,101.02
2329.00,100.99
2328.00,100.95
2327.00,100.91
2326.00,100.86
2325.00,100.81
2324.00,100.77
2323.00,100.75
2322.00,100.76
2321.00,100.77
2320.00,100.79
2319.00,100.82
2318.00,100.84
2317.00,100.86
2316.00,100.86
2315.00,100.84
2314.00,100.84
2313.00,100.84
2312.00,100.83
2311.00,100.82
2310.00,100.79
2309.00,100.77
2308.00,100.77
2307.00,100.79
2306.00,100.80
2305.00,100.79
2304.00,100.78
2303.00,100.76
2302.00,100.74
2301.00,100.71
2300.00,100.67
2299.00,100.65
2298.00,100.67
2297.00,100.69
2296.00,100.71
2295.00,100.71
2294.00,100.68
2293.00,100.65
2292.00,100.60
2291.00,100.56
2290.00,100.52
2289.00,100.49
2288.00,100.47
2287.00,100.47
2286.00,100.48
2285.00,100.48
2284.00,100.48
2283.00,100.50
2282.00,100.52
2281.00,100.54
2280.00,100.55
2279.00,100.57
2278.00,100.57
2277.00,100.57
2276.00,100.56
2275.00,100.56
2274.00,100.54
2273.00,100.50
2272.00,100.46
2271.00,100.43
2270.00,100.42
2269.00,100.41
2268.00,100.39
2267.00,100.36
2266.00,100.34
2265.00,100.33
2264.00,100.34
2263.00,100.35
2262.00,100.36
2261.00,100.37
2260.00,100.39
2259.00,100.41
2258.00,100.42
2257.00,100.38
2256.00,100.33
2255.00,100.30
2254.00,100.28
2253.00,100.28
2252.00,100.27
2251.00,100.25
2250.00,100.23
2249.00,100.20
2248.00,100.19
2247.00,100.18
2246.00,100.19
2245.00,100.20
2244.00,100.21
2243.00,100.23
2242.00,100.26
2241.00,100.30
2240.00,100.32
2239.00,100.31
2238.00,100.26
2237.00,100.21
2236.00,100.18
2235.00,100.18
2234.00,100.18
2233.00,100.19
2232.00,100.19
2231.00,100.20
2230.00,100.20
2229.00,100.18
2228.00,100.16
2227.00,100.17
2226.00,100.19
2225.00,100.22
2224.00,100.24
2223.00,100.25
2222.00,100.25
2221.00,100.22
2220.00,100.18
2219.00,100.14
2218.00,100.12
2217.00,100.10
2216.00,100.09
2215.00,100.07
2214.00,100.04
2213.00,100.00
2212.00,99.97
2211.00,99.98
2210.00,100.02
2209.00,100.07
2208.00,100.13
2207.00,100.18
2206.00,100.22
2205.00,100.22
2204.00,100.19
2203.00,100.15
2202.00,100.11
2201.00,100.07
2200.00,100.06
2199.00,100.05
2198.00,100.06
2197.00,100.04
2196.00,100.01
2195.00,99.96
2194.00,99.89
2193.00,99.84
2192.00,99.82
2191.00,99.85
2190.00,99.87
2189.00,99.85
2188.00,99.80
2187.00,99.76
2186.00,99.75
2185.00,99.78
2184.00,99.85
2183.00,99.94
2182.00,100.02
2181.00,100.04
2180.00,100.00
2179.00,99.90
2178.00,99.79
2177.00,99.70
2176.00,99.68
2175.00,99.74
2174.00,99.84
2173.00,99.93
2172.00,99.95
2171.00,99.92
2170.00,99.85
2169.00,99.79
2168.00,99.75
2167.00,99.72
2166.00,99.67
2165.00,99.64
2164.00,99.64
2163.00,99.68
2162.00,99.71
2161.00,99.73
2160.00,99.77
2159.00,99.84
2158.00,99.92
2157.00,99.96
2156.00,99.98
2155.00,100.00
2154.00,100.02
2153.00,100.03
2152.00,100.03
2151.00,100.03
2150.00,100.03
2149.00,100.03
2148.00,100.05
2147.00,100.08
2146.00,100.11
2145.00,100.12
2144.00,100.15
2143.00,100.20
2142.00,100.25
2141.00,100.26
2140.00,100.26
2139.00,100.27
2138.00,100.27
2137.00,100.25
2136.00,100.21
2135.00,100.20
2134.00,100.21
2133.00,100.24
2132.00,100.27
2131.00,100.31
2130.00,100.34
2129.00,100.35
2128.00,100.35
2127.00,100.35
2126.00,100.34
2125.00,100.33
2124.00,100.32
2123.00,100.30
2122.00,100.28
2121.00,100.26
2120.00,100.24
2119.00,100.24
2118.00,100.24
2117.00,100.24
2116.00,100.23
2115.00,100.23
2114.00,100.23
2113.00,100.23
2112.00,100.23
2111.00,100.22
2110.00,100.20
2109.00,100.20
2108.00,100.21
2107.00,100.24
2106.00,100.27
2105.00,100.28
2104.00,100.27
2103.00,100.25
2102.00,100.24
2101.00,100.24
2100.00,100.26
2099.00,100.28
2098.00,100.30
2097.00,100.31
2096.00,100.32
2095.00,100.32
2094.00,100.30
2093.00,100.27
2092.00,100.26
2091.00,100.27
2090.00,100.29
2089.00,100.28
2088.00,100.25
2087.00,100.23
2086.00,100.23
2085.00,100.23
2084.00,100.20
2083.00,100.16
2082.00,100.12
2081.00,100.09
2080.00,100.08
2079.00,100.08
2078.00,100.09
2077.00,100.10
2076.00,100.11
2075.00,100.11
2074.00,100.09
2073.00,100.07
2072.00,100.06
2071.00,100.07
2070.00,100.07
2069.00,100.06
2068.00,100.04
2067.00,100.06
2066.00,100.08
2065.00,100.10
2064.00,100.11
2063.00,100.14
2062.00,100.16
2061.00,100.15
2060.00,100.12
2059.00,100.10
2058.00,100.12
2057.00,100.14
2056.00,100.16
2055.00,100.14
2054.00,100.10
2053.00,100.04
2052.00,99.98
2051.00,99.95
2050.00,99.95
2049.00,99.96
2048.00,99.98
2047.00,100.00
2046.00,100.01
2045.00,99.99
2044.00,99.95
2043.00,99.91
2042.00,99.88
2041.00,99.85
2040.00,99.84
2039.00,99.83
2038.00,99.84
2037.00,99.85
2036.00,99.85
2035.00,99.85
2034.00,99.83
2033.00,99.78
2032.00,99.73
2031.00,99.74
2030.00,99.82
2029.00,99.89
2028.00,99.92
2027.00,99.92
2026.00,99.91
2025.00,99.90
2024.00,99.89
2023.00,99.88
2022.00,99.85
2021.00,99.85
2020.00,99.88
2019.00,99.94
2018.00,99.98
2017.00,99.95
2016.00,99.89
2015.00,99.85
2014.00,99.83
2013.00,99.80
2012.00,99.75
2011.00,99.73
2010.00,99.76
2009.00,99.83
2008.00,99.91
2007.00,100.00
2006.00,100.08
2005.00,100.12
2004.00,100.14
2003.00,100.14
2002.00,100.14
2001.00,100.12
2000.00,100.09
1999.00,100.06
1998.00,100.01
1997.00,99.97
1996.00,99.95
1995.00,99.96
1994.00,99.99
1993.00,100.01
1992.00,100.02
1991.00,100.05
1990.00,100.10
1989.00,100.12
1988.00,100.08
1987.00,100.01
1986.00,99.95
1985.00,99.92
1984.00,99.91
1983.00,99.89
1982.00,99.85
1981.00,99.79
1980.00,99.75
1979.00,99.75
1978.00,99.79
1977.00,99.79
1976.00,99.75
1975.00,99.71
1974.00,99.70
1973.00,99.74
1972.00,99.80
1971.00,99.86
1970.00,99.93
1969.00,100.01
1968.00,100.08
1967.00,100.13
1966.00,100.16
1965.00,100.17
1964.00,100.14
1963.00,100.11
1962.00,100.10
1961.00,100.11
1960.00,100.16
1959.00,100.21
1958.00,100.25
1957.00,100.26
1956.00,100.25
1955.00,100.23
1954.00,100.18
1953.00,100.13
1952.00,100.12
1951.00,100.16
1950.00,100.21
1949.00,100.23
1948.00,100.24
1947.00,100.25
1946.00,100.25
1945.00,100.24
1944.00,100.22
1943.00,100.22
1942.00,100.22
1941.00,100.20
1940.00,100.17
1939.00,100.17
1938.00,100.20
1937.00,100.25
1936.00,100.29
1935.00,100.32
1934.00,100.33
1933.00,100.34
1932.00,100.36
1931.00,100.39
1930.00,100.41
1929.00,100.40
1928.00,100.37
1927.00,100.35
1926.00,100.35
1925.00,100.36
1924.00,100.37
1923.00,100.39
1922.00,100.39
1921.00,100.37
1920.00,100.34
1919.00,100.35
1918.00,100.37
1917.00,100.39
1916.00,100.39
1915.00,100.38
1914.00,100.37
1913.00,100.35
1912.00,100.33
1911.00,100.32
1910.00,100.32
1909.00,100.33
1908.00,100.36
1907.00,100.40
1906.00,100.42
1905.00,100.41
1904.00,100.39
1903.00,100.37
1902.00,100.38
1901.00,100.39
1900.00,100.41
1899.00,100.43
1898.00,100.44
1897.00,100.43
1896.00,100.43
1895.00,100.43
1894.00,100.44
1893.00,100.44
1892.00,100.43
1891.00,100.42
1890.00,100.41
1889.00,100.40
1888.00,100.40
1887.00,100.42
1886.00,100.46
1885.00,100.47
1884.00,100.47
1883.00,100.46
1882.00,100.45
1881.00,100.42
1880.00,100.39
1879.00,100.37
1878.00,100.38
1877.00,100.40
1876.00,100.44
1875.00,100.47
1874.00,100.48
1873.00,100.46
1872.00,100.43
1871.00,100.44
1870.00,100.46
1869.00,100.48
1868.00,100.48
1867.00,100.48
1866.00,100.47
1865.00,100.45
1864.00,100.43
1863.00,100.43
1862.00,100.44
1861.00,100.44
1860.00,100.42
1859.00,100.41
1858.00,100.41
1857.00,100.42
1856.00,100.43
1855.00,100.45
1854.00,100.45
1853.00,100.43
1852.00,100.41
1851.00,100.42
1850.00,100.44
1849.00,100.45
1848.00,100.43
1847.00,100.41
1846.00,100.41
1845.00,100.42
1844.00,100.44
1843.00,100.46
1842.00,100.46
1841.00,100.46
1840.00,100.46
1839.00,100.48
1838.00,100.49
1837.00,100.47
1836.00,100.44
1835.00,100.42
1834.00,100.42
1833.00,100.43
1832.00,100.43
1831.00,100.43
1830.00,100.43
1829.00,100.41
1828.00,100.41
1827.00,100.43
1826.00,100.44
1825.00,100.43
1824.00,100.41
1823.00,100.40
1822.00,100.39
1821.00,100.38
1820.00,100.37
1819.00,100.37
1818.00,100.39
1817.00,100.40
1816.00,100.40
1815.00,100.40
1814.00,100.41
1813.00,100.41
1812.00,100.39
1811.00,100.37
1810.00,100.37
1809.00,100.36
1808.00,100.34
1807.00,100.33
1806.00,100.33
1805.00,100.32
1804.00,100.32
1803.00,100.32
1802.00,100.33
1801.00,100.32
1800.00,100.31
1799.00,100.30
1798.00,100.30
1797.00,100.27
1796.00,100.24
1795.00,100.23
1794.00,100.23
1793.00,100.24
1792.00,100.24
1791.00,100.24
1790.00,100.24
1789.00,100.21
1788.00,100.18
1787.00,100.15
1786.00,100.14
1785.00,100.12
1784.00,100.11
1783.00,100.10
1782.00,100.09
1781.00,100.07
1780.00,100.03
1779.00,99.99
1778.00,99.97
1777.00,99.96
1776.00,99.96
1775.00,99.96
1774.00,99.95
1773.00,99.92
1772.00,99.87
1771.00,99.83
1770.00,99.82
1769.00,99.80
1768.00,99.77
1767.00,99.73
1766.00,99.70
1765.00,99.66
1764.00,99.62
1763.00,99.58
1762.00,99.55
1761.00,99.50
1760.00,99.45
1759.00,99.41
1758.00,99.38
1757.00,99.31
1756.00,99.22
1755.00,99.13
1754.00,99.05
1753.00,98.98
1752.00,98.89
1751.00,98.77
1750.00,98.64
1749.00,98.49
1748.00,98.33
1747.00,98.19
1746.00,98.05
1745.00,97.90
1744.00,97.74
1743.00,97.59
1742.00,97.47
1741.00,97.36
1740.00,97.24
1739.00,97.13
1738.00,97.05
1737.00,96.97
1736.00,96.90
1735.00,96.86
1734.00,96.84
1733.00,96.82
1732.00,96.80
1731.00,96.80
1730.00,96.82
1729.00,96.83
1728.00,96.84
1727.00,96.85
1726.00,96.87
1725.00,96.87
1724.00,96.85
1723.00,96.85
1722.00,96.85
1721.00,96.83
1720.00,96.79
1719.00,96.77
1718.00,96.75
1717.00,96.70
1716.00,96.60
1715.00,96.52
1714.00,96.46
1713.00,96.38
1712.00,96.29
1711.00,96.18
1710.00,96.06
1709.00,95.93
1708.00,95.76
1707.00,95.59
1706.00,95.39
1705.00,95.17
1704.00,94.94
1703.00,94.75
1702.00,94.54
1701.00,94.22
1700.00,93.80
1699.00,93.45
1698.00,93.19
1697.00,92.88
1696.00,92.46
1695.00,92.03
1694.00,91.66
1693.00,91.33
1692.00,91.00
1691.00,90.66
1690.00,90.30
1689.00,89.93
1688.00,89.57
1687.00,89.25
1686.00,88.94
1685.00,88.55
1684.00,88.06
1683.00,87.65
1682.00,87.35
1681.00,87.07
1680.00,86.75
1679.00,86.44
1678.00,86.14
1677.00,85.83
1676.00,85.49
1675.00,85.13
1674.00,84.82
1673.00,84.55
1672.00,84.28
1671.00,83.99
1670.00,83.65
1669.00,83.28
1668.00,82.92
1667.00,82.62
1666.00,82.35
1665.00,82.07
1664.00,81.74
1663.00,81.38
1662.00,81.01
1661.00,80.65
1660.00,80.31
1659.00,79.97
1658.00,79.65
1657.00,79.35
1656.00,79.04
1655.00,78.73
1654.00,78.37
1653.00,77.94
1652.00,77.58
1651.00,77.34
1650.00,77.14
1649.00,76.95
1648.00,76.75
1647.00,76.55
1646.00,76.39
1645.00,76.25
1644.00,76.12
1643.00,76.00
1642.00,75.91
1641.00,75.83
1640.00,75.75
1639.00,75.67
1638.00,75.60
1637.00,75.54
1636.00,75.51
1635.00,75.49
1634.00,75.48
1633.00,75.45
1632.00,75.41
1631.00,75.39
1630.00,75.40
1629.00,75.44
1628.00,75.50
1627.00,75.57
1626.00,75.65
1625.00,75.76
1624.00,75.92
1623.00,76.14
1622.00,76.39
1621.00,76.62
1620.00,76.82
1619.00,77.04
1618.00,77.36
1617.00,77.79
1616.00,78.25
1615.00,78.64
1614.00,78.97
1613.00,79.28
1612.00,79.64
1611.00,80.05
1610.00,80.48
1609.00,80.93
1608.00,81.36
1607.00,81.77
1606.00,82.13
1605.00,82.47
1604.00,82.83
1603.00,83.17
1602.00,83.49
1601.00,83.79
1600.00,84.10
1599.00,84.39
1598.00,84.65
1597.00,84.89
1596.00,85.14
1595.00,85.38
1594.00,85.59
1593.00,85.78
1592.00,85.96
1591.00,86.11
1590.00,86.24
1589.00,86.35
1588.00,86.46
1587.00,86.54
1586.00,86.60
1585.00,86.64
1584.00,86.67
1583.00,86.69
1582.00,86.68
1581.00,86.65
1580.00,86.61
1579.00,86.55
1578.00,86.47
1577.00,86.38
1576.00,86.30
1575.00,86.21
1574.00,86.10
1573.00,85.99
1572.00,85.88
1571.00,85.75
1570.00,85.57
1569.00,85.36
1568.00,85.18
1567.00,84.99
1566.00,84.77
1565.00,84.53
1564.00,84.30
1563.00,84.09
1562.00,83.88
1561.00,83.67
1560.00,83.37
1559.00,82.91
1558.00,82.47
1557.00,82.18
1556.00,81.93
1555.00,81.66
1554.00,81.35
1553.00,81.04
1552.00,80.74
1551.00,80.45
1550.00,80.13
1549.00,79.82
1548.00,79.55
1547.00,79.31
1546.00,79.09
1545.00,78.87
1544.00,78.66
1543.00,78.47
1542.00,78.30
1541.00,78.11
1540.00,77.95
1539.00,77.85
1538.00,77.77
1537.00,77.69
1536.00,77.61
1535.00,77.55
1534.00,77.50
1533.00,77.46
1532.00,77.41
1531.00,77.38
1530.00,77.36
1529.00,77.35
1528.00,77.38
1527.00,77.41
1526.00,77.45
1525.00,77.47
1524.00,77.50
1523.00,77.54
1522.00,77.58
1521.00,77.61
1520.00,77.61
1519.00,77.59
1518.00,77.58
1517.00,77.61
1516.00,77.68
1515.00,77.77
1514.00,77.89
1513.00,78.05
1512.00,78.25
1511.00,78.46
1510.00,78.65
1509.00,78.85
1508.00,79.15
1507.00,79.60
1506.00,80.07
1505.00,80.41
1504.00,80.65
1503.00,80.87
1502.00,81.14
1501.00,81.45
1500.00,81.78
1499.00,82.13
1498.00,82.51
1497.00,82.93
1496.00,83.34
1495.00,83.70
1494.00,84.02
1493.00,84.33
1492.00,84.67
1491.00,85.06
1490.00,85.49
1489.00,85.88
1488.00,86.19
1487.00,86.46
1486.00,86.71
1485.00,86.92
1484.00,87.10
1483.00,87.24
1482.00,87.37
1481.00,87.45
1480.00,87.49
1479.00,87.49
1478.00,87.45
1477.00,87.35
1476.00,87.17
1475.00,86.95
1474.00,86.67
1473.00,86.34
1472.00,86.01
1471.00,85.76
1470.00,85.57
1469.00,85.41
1468.00,85.26
1467.00,85.12
1466.00,85.01
1465.00,84.92
1464.00,84.85
1463.00,84.82
1462.00,84.81
1461.00,84.81
1460.00,84.81
1459.00,84.79
1458.00,84.73
1457.00,84.64
1456.00,84.56
1455.00,84.49
1454.00,84.46
1453.00,84.45
1452.00,84.47
1451.00,84.51
1450.00,84.56
1449.00,84.60
1448.00,84.65
1447.00,84.69
1446.00,84.74
1445.00,84.79
1444.00,84.86
1443.00,84.94
1442.00,85.03
1441.00,85.12
1440.00,85.21
1439.00,85.31
1438.00,85.46
1437.00,85.67
1436.00,85.87
1435.00,86.03
1434.00,86.14
1433.00,86.24
1432.00,86.35
1431.00,86.48
1430.00,86.60
1429.00,86.72
1428.00,86.79
1427.00,86.83
1426.00,86.85
1425.00,86.86
1424.00,86.85
1423.00,86.83
1422.00,86.80
1421.00,86.79
1420.00,86.79
1419.00,86.76
1418.00,86.72
1417.00,86.65
1416.00,86.59
1415.00,86.52
1414.00,86.48
1413.00,86.44
1412.00,86.40
1411.00,86.35
1410.00,86.31
1409.00,86.26
1408.00,86.22
1407.00,86.17
1406.00,86.11
1405.00,86.06
1404.00,86.00
1403.00,85.94
1402.00,85.88
1401.00,85.83
1400.00,85.79
1399.00,85.76
1398.00,85.73
1397.00,85.69
1396.00,85.66
1395.00,85.63
1394.00,85.60
1393.00,85.59
1392.00,85.56
1391.00,85.54
1390.00,85.53
1389.00,85.53
1388.00,85.54
1387.00,85.54
1386.00,85.55
1385.00,85.55
1384.00,85.57
1383.00,85.61
1382.00,85.68
1381.00,85.76
1380.00,85.83
1379.00,85.91
1378.00,86.00
1377.00,86.09
1376.00,86.19
1375.00,86.32
1374.00,86.44
1373.00,86.53
1372.00,86.59
1371.00,86.64
1370.00,86.68
1369.00,86.75
1368.00,86.83
1367.00,86.91
1366.00,87.01
1365.00,87.11
1364.00,87.23
1363.00,87.36
1362.00,87.48
1361.00,87.58
1360.00,87.66
1359.00,87.74
1358.00,87.80
1357.00,87.86
1356.00,87.91
1355.00,87.95
1354.00,87.98
1353.00,88.00
1352.00,88.01
1351.00,88.01
1350.00,88.02
1349.00,88.02
1348.00,88.02
1347.00,88.02
1346.00,88.02
1345.00,88.02
1344.00,88.01
1343.00,88.00
1342.00,88.00
1341.00,88.01
1340.00,88.04
1339.00,88.06
1338.00,88.07
1337.00,88.08
1336.00,88.08
1335.00,88.08
1334.00,88.08
1333.00,88.08
1332.00,88.08
1331.00,88.07
1330.00,88.05
1329.00,88.03
1328.00,88.00
1327.00,87.97
1326.00,87.94
1325.00,87.91
1324.00,87.87
1323.00,87.84
1322.00,87.81
1321.00,87.76
1320.00,87.70
1319.00,87.65
1318.00,87.61
1317.00,87.59
1316.00,87.56
1315.00,87.53
1314.00,87.51
1313.00,87.48
1312.00,87.46
1311.00,87.43
1310.00,87.41
1309.00,87.41
1308.00,87.41
1307.00,87.40
1306.00,87.39
1305.00,87.38
1304.00,87.36
1303.00,87.36
1302.00,87.37
1301.00,87.37
1300.00,87.37
1299.00,87.37
1298.00,87.36
1297.00,87.35
1296.00,87.34
1295.00,87.32
1294.00,87.32
1293.00,87.33
1292.00,87.34
1291.00,87.34
1290.00,87.33
1289.00,87.31
1288.00,87.29
1287.00,87.28
1286.00,87.27
1285.00,87.27
1284.00,87.25
1283.00,87.24
1282.00,87.22
1281.00,87.20
1280.00,87.17
1279.00,87.14
1278.00,87.12
1277.00,87.10
1276.00,87.08
1275.00,87.05
1274.00,87.00
1273.00,86.95
1272.00,86.91
1271.00,86.88
1270.00,86.84
1269.00,86.79
1268.00,86.74
1267.00,86.69
1266.00,86.65
1265.00,86.60
1264.00,86.55
1263.00,86.49
1262.00,86.43
1261.00,86.38
1260.00,86.32
1259.00,86.26
1258.00,86.18
1257.00,86.10
1256.00,86.00
1255.00,85.90
1254.00,85.81
1253.00,85.73
1252.00,85.66
1251.00,85.58
1250.00,85.50
1249.00,85.43
1248.00,85.36
1247.00,85.29
1246.00,85.23
1245.00,85.17
1244.00,85.11
1243.00,85.06
1242.00,85.02
1241.00,84.99
1240.00,84.97
1239.00,84.96
1238.00,84.95
1237.00,84.94
1236.00,84.93
1235.00,84.93
1234.00,84.94
1233.00,84.97
1232.00,85.02
1231.00,85.07
1230.00,85.12
1229.00,85.17
1228.00,85.22
1227.00,85.29
1226.00,85.38
1225.00,85.50
1224.00,85.61
1223.00,85.72
1222.00,85.82
1221.00,85.91
1220.00,86.00
1219.00,86.08
1218.00,86.18
1217.00,86.28
1216.00,86.40
1215.00,86.51
1214.00,86.60
1213.00,86.66
1212.00,86.70
1211.00,86.75
1210.00,86.81
1209.00,86.88
1208.00,86.92
1207.00,86.94
1206.00,86.95
1205.00,86.97
1204.00,87.00
1203.00,87.04
1202.00,87.09
1201.00,87.14
1200.00,87.19
1199.00,87.25
1198.00,87.30
1197.00,87.36
1196.00,87.40
1195.00,87.45
1194.00,87.48
1193.00,87.52
1192.00,87.54
1191.00,87.57
1190.00,87.58
1189.00,87.58
1188.00,87.57
1187.00,87.57
1186.00,87.56
1185.00,87.56
1184.00,87.54
1183.00,87.53
1182.00,87.53
1181.00,87.52
1180.00,87.49
1179.00,87.45
1178.00,87.40
1177.00,87.35
1176.00,87.30
1175.00,87.26
1174.00,87.25
1173.00,87.25
1172.00,87.26
1171.00,87.29
1170.00,87.34
1169.00,87.40
1168.00,87.47
1167.00,87.54
1166.00,87.61
1165.00,87.66
1164.00,87.70
1163.00,87.74
1162.00,87.78
1161.00,87.83
1160.00,87.88
1159.00,87.94
1158.00,88.01
1157.00,88.09
1156.00,88.17
1155.00,88.24
1154.00,88.32
1153.00,88.39
1152.00,88.48
1151.00,88.58
1150.00,88.68
1149.00,88.78
1148.00,88.87
1147.00,88.94
1146.00,88.99
1145.00,89.03
1144.00,89.07
1143.00,89.11
1142.00,89.14
1141.00,89.16
1140.00,89.17
1139.00,89.18
1138.00,89.19
1137.00,89.20
1136.00,89.21
1135.00,89.21
1134.00,89.18
1133.00,89.15
1132.00,89.11
1131.00,89.07
1130.00,89.02
1129.00,88.97
1128.00,88.92
1127.00,88.87
1126.00,88.84
1125.00,88.82
1124.00,88.78
1123.00,88.73
1122.00,88.67
1121.00,88.62
1120.00,88.57
1119.00,88.55
1118.00,88.55
1117.00,88.55
1116.00,88.54
1115.00,88.52
1114.00,88.49
1113.00,88.48
1112.00,88.48
1111.00,88.47
1110.00,88.45
1109.00,88.40
1108.00,88.35
1107.00,88.32
1106.00,88.29
1105.00,88.27
1104.00,88.26
1103.00,88.27
1102.00,88.30
1101.00,88.32
1100.00,88.30
1099.00,88.25
1098.00,88.18
1097.00,88.12
1096.00,88.11
1095.00,88.11
1094.00,88.11
1093.00,88.08
1092.00,88.02
1091.00,87.96
1090.00,87.90
1089.00,87.83
1088.00,87.75
1087.00,87.67
1086.00,87.59
1085.00,87.52
1084.00,87.46
1083.00,87.39
1082.00,87.33
1081.00,87.27
1080.00,87.21
1079.00,87.16
1078.00,87.12
1077.00,87.11
1076.00,87.12
1075.00,87.15
1074.00,87.18
1073.00,87.19
1072.00,87.20
1071.00,87.21
1070.00,87.22
1069.00,87.24
1068.00,87.25
1067.00,87.28
1066.00,87.32
1065.00,87.35
1064.00,87.36
1063.00,87.36
1062.00,87.36
1061.00,87.37
1060.00,87.40
1059.00,87.44
1058.00,87.47
1057.00,87.48
1056.00,87.46
1055.00,87.43
1054.00,87.40
1053.00,87.37
1052.00,87.35
1051.00,87.34
1050.00,87.36
1049.00,87.37
1048.00,87.36
1047.00,87.34
1046.00,87.32
1045.00,87.32
1044.00,87.35
1043.00,87.40
1042.00,87.46
1041.00,87.53
1040.00,87.61
1039.00,87.72
1038.00,87.84
1037.00,87.96
1036.00,88.05
1035.00,88.13
1034.00,88.21
1033.00,88.31
1032.00,88.41
1031.00,88.50
1030.00,88.59
1029.00,88.67
1028.00,88.74
1027.00,88.80
1026.00,88.88
1025.00,88.96
1024.00,89.05
1023.00,89.14
1022.00,89.23
1021.00,89.33
1020.00,89.43
1019.00,89.53
1018.00,89.61
1017.00,89.67
1016.00,89.72
1015.00,89.79
1014.00,89.88
1013.00,89.98
1012.00,90.06
1011.00,90.13
1010.00,90.19
1009.00,90.26
1008.00,90.34
1007.00,90.42
1006.00,90.50
1005.00,90.57
1004.00,90.63
1003.00,90.68
1002.00,90.73
1001.00,90.78
1000.00,90.84
999.00,90.90
998.00,90.96
997.00,91.01
996.00,91.06
995.00,91.10
994.00,91.13
993.00,91.17
992.00,91.21
991.00,91.25
990.00,91.30
989.00,91.33
988.00,91.35
987.00,91.38
986.00,91.42
985.00,91.46
984.00,91.50
983.00,91.53
982.00,91.56
981.00,91.60
980.00,91.64
979.00,91.69
978.00,91.73
977.00,91.77
976.00,91.80
975.00,91.83
974.00,91.87
973.00,91.93
972.00,92.00
971.00,92.06
970.00,92.10
969.00,92.14
968.00,92.16
967.00,92.18
966.00,92.21
965.00,92.24
964.00,92.27
963.00,92.28
962.00,92.30
961.00,92.33
960.00,92.37
959.00,92.41
958.00,92.43
957.00,92.45
956.00,92.47
955.00,92.47
954.00,92.46
953.00,92.46
952.00,92.47
951.00,92.49
950.00,92.51
949.00,92.54
948.00,92.55
947.00,92.55
946.00,92.55
945.00,92.53
944.00,92.49
943.00,92.44
942.00,92.40
941.00,92.38
940.00,92.40
939.00,92.42
938.00,92.43
937.00,92.40
936.00,92.35
935.00,92.30
934.00,92.27
933.00,92.26
932.00,92.26
931.00,92.27
930.00,92.29
929.00,92.33
928.00,92.36
927.00,92.36
926.00,92.35
925.00,92.33
924.00,92.33
923.00,92.34
922.00,92.36
921.00,92.38
920.00,92.39
919.00,92.40
918.00,92.43
917.00,92.47
916.00,92.51
915.00,92.55
914.00,92.58
913.00,92.61
912.00,92.64
911.00,92.66
910.00,92.65
909.00,92.64
908.00,92.62
907.00,92.58
906.00,92.55
905.00,92.54
904.00,92.55
903.00,92.56
902.00,92.57
901.00,92.58
900.00,92.58
899.00,92.57
898.00,92.55
897.00,92.54
896.00,92.53
895.00,92.52
894.00,92.50
893.00,92.49
892.00,92.48
891.00,92.46
890.00,92.45
889.00,92.44
888.00,92.44
887.00,92.44
886.00,92.44
885.00,92.43
884.00,92.41
883.00,92.37
882.00,92.33
881.00,92.29
880.00,92.26
879.00,92.23
878.00,92.19
877.00,92.15
876.00,92.09
875.00,92.04
874.00,92.02
873.00,92.03
872.00,92.06
871.00,92.07
870.00,92.06
869.00,92.05
868.00,92.06
867.00,92.10
866.00,92.14
865.00,92.15
864.00,92.12
863.00,92.06
862.00,92.00
861.00,91.96
860.00,91.93
859.00,91.93
858.00,91.92
857.00,91.89
856.00,91.84
855.00,91.78
854.00,91.73
853.00,91.69
852.00,91.66
851.00,91.63
850.00,91.60
849.00,91.56
848.00,91.53
847.00,91.49
846.00,91.44
845.00,91.38
844.00,91.32
843.00,91.26
842.00,91.18
841.00,91.11
840.00,91.03
839.00,90.97
838.00,90.91
837.00,90.85
836.00,90.80
835.00,90.75
834.00,90.72
833.00,90.69
832.00,90.65
831.00,90.60
830.00,90.54
829.00,90.48
828.00,90.46
827.00,90.47
826.00,90.50
825.00,90.53
824.00,90.54
823.00,90.52
822.00,90.47
821.00,90.40
820.00,90.33
819.00,90.28
818.00,90.25
817.00,90.21
816.00,90.16
815.00,90.08
814.00,90.02
813.00,89.96
812.00,89.92
811.00,89.87
810.00,89.79
809.00,89.70
808.00,89.61
807.00,89.54
806.00,89.49
805.00,89.44
804.00,89.37
803.00,89.29
802.00,89.20
801.00,89.13
800.00,89.11
799.00,89.11
798.00,89.11
797.00,89.06
796.00,88.96
795.00,88.84
794.00,88.76
793.00,88.70
792.00,88.65
791.00,88.57
790.00,88.47
789.00,88.36
788.00,88.27
787.00,88.22
786.00,88.20
785.00,88.18
784.00,88.15
783.00,88.10
782.00,88.04
781.00,87.98
780.00,87.91
779.00,87.83
778.00,87.73
777.00,87.65
776.00,87.58
775.00,87.53
774.00,87.47
773.00,87.42
772.00,87.39
771.00,87.37
770.00,87.36
769.00,87.33
768.00,87.27
767.00,87.20
766.00,87.14
765.00,87.07
764.00,86.98
763.00,86.88
762.00,86.79
761.00,86.73
760.00,86.69
759.00,86.67
758.00,86.66
757.00,86.62
756.00,86.53
755.00,86.41
754.00,86.28
753.00,86.14
752.00,86.01
751.00,85.89
750.00,85.82
749.00,85.78
748.00,85.76
747.00,85.72
746.00,85.66
745.00,85.60
744.00,85.52
743.00,85.47
742.00,85.43
741.00,85.42
740.00,85.41
739.00,85.39
738.00,85.35
737.00,85.31
736.00,85.26
735.00,85.18
734.00,85.08
733.00,84.96
732.00,84.80
731.00,84.63
730.00,84.48
729.00,84.37
728.00,84.28
727.00,84.19
726.00,84.08
725.00,83.95
724.00,83.82
723.00,83.70
722.00,83.58
721.00,83.42
720.00,83.25
719.00,83.14
718.00,83.13
717.00,83.17
716.00,83.21
715.00,83.22
714.00,83.21
713.00,83.16
712.00,83.08
711.00,83.01
710.00,82.95
709.00,82.88
708.00,82.76
707.00,82.58
706.00,82.41
705.00,82.29
704.00,82.21
703.00,82.14
702.00,82.06
701.00,82.00
700.00,81.94
699.00,81.88
698.00,81.84
697.00,81.82
696.00,81.80
695.00,81.77
694.00,81.70
693.00,81.62
692.00,81.54
691.00,81.50
690.00,81.46
689.00,81.42
688.00,81.37
687.00,81.35
686.00,81.34
685.00,81.29
684.00,81.19
683.00,81.09
682.00,81.03
681.00,81.00
680.00,80.95
679.00,80.85
678.00,80.75
677.00,80.68
676.00,80.65
675.00,80.62
674.00,80.57
673.00,80.50
672.00,80.40
671.00,80.27
670.00,80.14
669.00,80.03
668.00,79.88
667.00,79.75
666.00,79.70
665.00,79.66
664.00,79.57
663.00,79.46
662.00,79.36
661.00,79.26
660.00,79.17
659.00,79.12
658.00,79.08
657.00,79.05
656.00,79.04
655.00,79.03
654.00,79.00
653.00,78.94
652.00,78.92
651.00,78.98
650.00,79.02
649.00,78.93
648.00,78.73
647.00,78.57
646.00,78.56
645.00,78.61
644.00,78.60
643.00,78.51
642.00,78.43
641.00,78.40
640.00,78.39
639.00,78.37
638.00,78.32
637.00,78.24
636.00,78.16
635.00,78.10
634.00,78.03
633.00,77.95
632.00,77.88
631.00,77.85
630.00,77.84
629.00,77.74
628.00,77.47
627.00,77.15
626.00,76.93
625.00,76.88
624.00,76.91
623.00,76.87
622.00,76.74
621.00,76.59
620.00,76.55
619.00,76.65
618.00,76.74
617.00,76.64
616.00,76.42
615.00,76.29
614.00,76.33
613.00,76.46
612.00,76.63
611.00,76.86
610.00,77.05
609.00,77.03
608.00,76.79
607.00,76.52
606.00,76.34
605.00,76.18
604.00,76.07
603.00,76.15
602.00,76.48
601.00,76.83
600.00,76.89
599.00,76.62
598.00,76.19
597.00,75.78
596.00,75.50
595.00,75.45
594.00,75.66
593.00,75.98
592.00,76.14
591.00,76.04
590.00,75.76
589.00,75.46
588.00,75.25
587.00,75.12
586.00,74.99
585.00,74.80
584.00,74.66
583.00,74.71
582.00,74.86
581.00,74.88
580.00,74.76
579.00,74.79
578.00,75.07
577.00,75.35
576.00,75.44
575.00,75.50
574.00,75.62
573.00,75.66
572.00,75.53
571.00,75.38
570.00,75.24
569.00,74.92
568.00,74.48
567.00,74.37
566.00,74.72
565.00,75.00
564.00,74.74
563.00,74.17
562.00,73.92
561.00,74.18
560.00,74.69
559.00,75.16
558.00,75.46
557.00,75.49
556.00,75.16
555.00,74.51
554.00,73.77
553.00,73.28
552.00,73.33
551.00,74.14
550.00,75.37
