Created as New Dataset,15.3 Red Wool sheep very fine
cm-1,%T
4000.00,96.97
3999.00,96.94
3998.00,96.92
3997.00,96.92
3996.00,96.93
3995.00,96.95
3994.00,96.96
3993.00,96.97
3992.00,96.97
3991.00,96.98
3990.00,96.99
3989.00,97.01
3988.00,97.02
3987.00,97.02
3986.00,97.00
3985.00,96.98
3984.00,96.97
3983.00,96.97
3982.00,96.99
3981.00,97.00
3980.00,97.00
3979.00,96.98
3978.00,96.96
3977.00,96.93
3976.00,96.91
3975.00,96.88
3974.00,96.87
3973.00,96.87
3972.00,96.89
3971.00,96.91
3970.00,96.93
3969.00,96.95
3968.00,96.95
3967.00,96.95
3966.00,96.95
3965.00,96.95
3964.00,96.94
3963.00,96.93
3962.00,96.92
3961.00,96.92
3960.00,96.93
3959.00,96.94
3958.00,96.95
3957.00,96.96
3956.00,96.96
3955.00,96.96
3954.00,96.94
3953.00,96.91
3952.00,96.89
3951.00,96.90
3950.00,96.92
3949.00,96.96
3948.00,96.98
3947.00,96.97
3946.00,96.94
3945.00,96.91
3944.00,96.91
3943.00,96.93
3942.00,96.96
3941.00,96.97
3940.00,96.97
3939.00,96.97
3938.00,96.97
3937.00,96.98
3936.00,96.98
3935.00,96.98
3934.00,96.97
3933.00,96.96
3932.00,96.95
3931.00,96.94
3930.00,96.89
3929.00,96.89
3928.00,96.88
3927.00,96.87
3926.00,96.87
3925.00,96.89
3924.00,96.91
3923.00,96.93
3922.00,96.92
3921.00,96.91
3920.00,96.90
3919.00,96.89
3918.00,96.89
3917.00,96.91
3916.00,96.92
3915.00,96.92
3914.00,96.93
3913.00,96.96
3912.00,97.00
3911.00,97.04
3910.00,97.07
3909.00,97.05
3908.00,97.00
3907.00,96.92
3906.00,96.86
3905.00,96.84
3904.00,96.84
3903.00,96.84
3902.00,96.83
3901.00,96.82
3900.00,96.83
3899.00,96.85
3898.00,96.89
3897.00,96.92
3896.00,96.93
3895.00,96.94
3894.00,96.93
3893.00,96.92
3892.00,96.92
3891.00,96.93
3890.00,96.92
3889.00,96.90
3888.00,96.88
3887.00,96.89
3886.00,96.93
3885.00,96.95
3884.00,96.94
3883.00,96.90
3882.00,96.88
3881.00,96.88
3880.00,96.90
3879.00,96.89
3878.00,96.87
3877.00,96.85
3876.00,96.85
3875.00,96.87
3874.00,96.88
3873.00,96.86
3872.00,96.82
3871.00,96.82
3870.00,96.85
3869.00,96.86
3868.00,96.85
3867.00,96.82
3866.00,96.83
3865.00,96.86
3864.00,96.89
3863.00,96.90
3862.00,96.90
3861.00,96.90
3860.00,96.91
3859.00,96.92
3858.00,96.91
3857.00,96.88
3856.00,96.85
3855.00,96.83
3854.00,96.83
3853.00,96.80
3852.00,96.77
3851.00,96.76
3850.00,96.79
3849.00,96.83
3848.00,96.87
3847.00,96.90
3846.00,96.91
3845.00,96.93
3844.00,96.93
3843.00,96.93
3842.00,96.91
3841.00,96.87
3840.00,96.85
3839.00,96.83
3838.00,96.82
3837.00,96.80
3836.00,96.79
3835.00,96.79
3834.00,96.81
3833.00,96.86
3832.00,96.90
3831.00,96.93
3830.00,96.92
3829.00,96.89
3828.00,96.87
3827.00,96.88
3826.00,96.89
3825.00,96.89
3824.00,96.87
3823.00,96.85
3822.00,96.86
3821.00,96.88
3820.00,96.86
3819.00,96.80
3818.00,96.76
3817.00,96.77
3816.00,96.82
3815.00,96.85
3814.00,96.86
3813.00,96.87
3812.00,96.89
3811.00,96.90
3810.00,96.89
3809.00,96.88
3808.00,96.88
3807.00,96.89
3806.00,96.89
3805.00,96.85
3804.00,96.81
3803.00,96.80
3802.00,96.84
3801.00,96.86
3800.00,96.84
3799.00,96.80
3798.00,96.79
3797.00,96.83
3796.00,96.88
3795.00,96.90
3794.00,96.90
3793.00,96.90
3792.00,96.90
3791.00,96.90
3790.00,96.90
3789.00,96.89
3788.00,96.88
3787.00,96.87
3786.00,96.87
3785.00,96.87
3784.00,96.88
3783.00,96.88
3782.00,96.88
3781.00,96.90
3780.00,96.92
3779.00,96.93
3778.00,96.92
3777.00,96.91
3776.00,96.91
3775.00,96.93
3774.00,96.94
3773.00,96.93
3772.00,96.91
3771.00,96.90
3770.00,96.91
3769.00,96.91
3768.00,96.90
3767.00,96.90
3766.00,96.90
3765.00,96.91
3764.00,96.90
3763.00,96.88
3762.00,96.87
3761.00,96.88
3760.00,96.88
3759.00,96.86
3758.00,96.83
3757.00,96.81
3756.00,96.78
3755.00,96.75
3754.00,96.72
3753.00,96.68
3752.00,96.63
3751.00,96.59
3750.00,96.58
3749.00,96.58
3748.00,96.56
3747.00,96.52
3746.00,96.52
3745.00,96.59
3744.00,96.67
3743.00,96.72
3742.00,96.74
3741.00,96.73
3740.00,96.72
3739.00,96.71
3738.00,96.70
3737.00,96.71
3736.00,96.72
3735.00,96.69
3734.00,96.65
3733.00,96.65
3732.00,96.67
3731.00,96.71
3730.00,96.72
3729.00,96.71
3728.00,96.71
3727.00,96.73
3726.00,96.73
3725.00,96.73
3724.00,96.72
3723.00,96.73
3722.00,96.74
3721.00,96.74
3720.00,96.73
3719.00,96.72
3718.00,96.73
3717.00,96.75
3716.00,96.75
3715.00,96.73
3714.00,96.70
3713.00,96.67
3712.00,96.65
3711.00,96.63
3710.00,96.63
3709.00,96.63
3708.00,96.64
3707.00,96.64
3706.00,96.66
3705.00,96.67
3704.00,96.68
3703.00,96.69
3702.00,96.69
3701.00,96.68
3700.00,96.67
3699.00,96.66
3698.00,96.66
3697.00,96.68
3696.00,96.68
3695.00,96.68
3694.00,96.66
3693.00,96.64
3692.00,96.63
3691.00,96.62
3690.00,96.62
3689.00,96.62
3688.00,96.62
3687.00,96.61
3686.00,96.61
3685.00,96.63
3684.00,96.66
3683.00,96.68
3682.00,96.70
3681.00,96.71
3680.00,96.70
3679.00,96.66
3678.00,96.60
3677.00,96.53
3676.00,96.48
3675.00,96.44
3674.00,96.40
3673.00,96.37
3672.00,96.38
3671.00,96.44
3670.00,96.50
3669.00,96.51
3668.00,96.50
3667.00,96.49
3666.00,96.49
3665.00,96.50
3664.00,96.52
3663.00,96.52
3662.00,96.53
3661.00,96.52
3660.00,96.49
3659.00,96.45
3658.00,96.41
3657.00,96.39
3656.00,96.39
3655.00,96.38
3654.00,96.35
3653.00,96.31
3652.00,96.27
3651.00,96.23
3650.00,96.17
3649.00,96.12
3648.00,96.12
3647.00,96.14
3646.00,96.18
3645.00,96.19
3644.00,96.20
3643.00,96.20
3642.00,96.21
3641.00,96.20
3640.00,96.17
3639.00,96.13
3638.00,96.10
3637.00,96.09
3636.00,96.08
3635.00,96.08
3634.00,96.07
3633.00,96.04
3632.00,95.98
3631.00,95.90
3630.00,95.85
3629.00,95.80
3628.00,95.77
3627.00,95.75
3626.00,95.76
3625.00,95.77
3624.00,95.78
3623.00,95.77
3622.00,95.75
3621.00,95.71
3620.00,95.69
3619.00,95.67
3618.00,95.65
3617.00,95.63
3616.00,95.61
3615.00,95.59
3614.00,95.58
3613.00,95.57
3612.00,95.55
3611.00,95.54
3610.00,95.51
3609.00,95.49
3608.00,95.47
3607.00,95.45
3606.00,95.45
3605.00,95.46
3604.00,95.46
3603.00,95.46
3602.00,95.45
3601.00,95.44
3600.00,95.42
3599.00,95.40
3598.00,95.37
3597.00,95.33
3596.00,95.29
3595.00,95.26
3594.00,95.23
3593.00,95.21
3592.00,95.20
3591.00,95.19
3590.00,95.18
3589.00,95.16
3588.00,95.15
3587.00,95.13
3586.00,95.10
3585.00,95.07
3584.00,95.06
3583.00,95.05
3582.00,95.05
3581.00,95.05
3580.00,95.05
3579.00,95.05
3578.00,95.04
3577.00,95.01
3576.00,94.98
3575.00,94.94
3574.00,94.91
3573.00,94.88
3572.00,94.85
3571.00,94.81
3570.00,94.77
3569.00,94.72
3568.00,94.66
3567.00,94.62
3566.00,94.60
3565.00,94.60
3564.00,94.61
3563.00,94.61
3562.00,94.61
3561.00,94.59
3560.00,94.57
3559.00,94.55
3558.00,94.53
3557.00,94.50
3556.00,94.46
3555.00,94.43
3554.00,94.40
3553.00,94.38
3552.00,94.36
3551.00,94.34
3550.00,94.32
3549.00,94.28
3548.00,94.24
3547.00,94.20
3546.00,94.15
3545.00,94.11
3544.00,94.09
3543.00,94.09
3542.00,94.11
3541.00,94.12
3540.00,94.11
3539.00,94.10
3538.00,94.08
3537.00,94.06
3536.00,94.06
3535.00,94.06
3534.00,94.05
3533.00,94.02
3532.00,93.99
3531.00,93.94
3530.00,93.88
3529.00,93.83
3528.00,93.79
3527.00,93.76
3526.00,93.74
3525.00,93.73
3524.00,93.73
3523.00,93.73
3522.00,93.73
3521.00,93.72
3520.00,93.70
3519.00,93.67
3518.00,93.65
3517.00,93.64
3516.00,93.63
3515.00,93.60
3514.00,93.56
3513.00,93.52
3512.00,93.48
3511.00,93.47
3510.00,93.48
3509.00,93.49
3508.00,93.50
3507.00,93.49
3506.00,93.46
3505.00,93.44
3504.00,93.41
3503.00,93.39
3502.00,93.36
3501.00,93.33
3500.00,93.32
3499.00,93.32
3498.00,93.34
3497.00,93.36
3496.00,93.38
3495.00,93.38
3494.00,93.37
3493.00,93.33
3492.00,93.30
3491.00,93.29
3490.00,93.27
3489.00,93.24
3488.00,93.19
3487.00,93.15
3486.00,93.12
3485.00,93.10
3484.00,93.09
3483.00,93.07
3482.00,93.04
3481.00,93.02
3480.00,93.01
3479.00,93.00
3478.00,92.98
3477.00,92.95
3476.00,92.91
3475.00,92.88
3474.00,92.86
3473.00,92.86
3472.00,92.86
3471.00,92.87
3470.00,92.87
3469.00,92.86
3468.00,92.83
3467.00,92.79
3466.00,92.76
3465.00,92.73
3464.00,92.72
3463.00,92.70
3462.00,92.68
3461.00,92.67
3460.00,92.65
3459.00,92.64
3458.00,92.64
3457.00,92.63
3456.00,92.64
3455.00,92.63
3454.00,92.61
3453.00,92.58
3452.00,92.54
3451.00,92.52
3450.00,92.51
3449.00,92.50
3448.00,92.48
3447.00,92.46
3446.00,92.44
3445.00,92.41
3444.00,92.39
3443.00,92.35
3442.00,92.32
3441.00,92.29
3440.00,92.28
3439.00,92.28
3438.00,92.29
3437.00,92.28
3436.00,92.27
3435.00,92.25
3434.00,92.23
3433.00,92.21
3432.00,92.18
3431.00,92.15
3430.00,92.12
3429.00,92.09
3428.00,92.07
3427.00,92.06
3426.00,92.05
3425.00,92.03
3424.00,92.00
3423.00,91.97
3422.00,91.94
3421.00,91.91
3420.00,91.89
3419.00,91.88
3418.00,91.88
3417.00,91.88
3416.00,91.88
3415.00,91.88
3414.00,91.87
3413.00,91.86
3412.00,91.84
3411.00,91.82
3410.00,91.79
3409.00,91.75
3408.00,91.71
3407.00,91.67
3406.00,91.64
3405.00,91.62
3404.00,91.62
3403.00,91.61
3402.00,91.60
3401.00,91.59
3400.00,91.57
3399.00,91.56
3398.00,91.54
3397.00,91.51
3396.00,91.47
3395.00,91.44
3394.00,91.43
3393.00,91.42
3392.00,91.42
3391.00,91.41
3390.00,91.39
3389.00,91.36
3388.00,91.35
3387.00,91.34
3386.00,91.34
3385.00,91.35
3384.00,91.35
3383.00,91.34
3382.00,91.33
3381.00,91.30
3380.00,91.27
3379.00,91.24
3378.00,91.22
3377.00,91.19
3376.00,91.16
3375.00,91.13
3374.00,91.10
3373.00,91.08
3372.00,91.06
3371.00,91.04
3370.00,91.02
3369.00,90.99
3368.00,90.97
3367.00,90.94
3366.00,90.92
3365.00,90.90
3364.00,90.88
3363.00,90.85
3362.00,90.82
3361.00,90.79
3360.00,90.78
3359.00,90.76
3358.00,90.75
3357.00,90.74
3356.00,90.71
3355.00,90.69
3354.00,90.66
3353.00,90.64
3352.00,90.61
3351.00,90.58
3350.00,90.54
3349.00,90.50
3348.00,90.46
3347.00,90.43
3346.00,90.43
3345.00,90.43
3344.00,90.43
3343.00,90.42
3342.00,90.41
3341.00,90.39
3340.00,90.38
3339.00,90.36
3338.00,90.33
3337.00,90.29
3336.00,90.25
3335.00,90.22
3334.00,90.20
3333.00,90.18
3332.00,90.17
3331.00,90.14
3330.00,90.12
3329.00,90.10
3328.00,90.07
3327.00,90.03
3326.00,89.97
3325.00,89.92
3324.00,89.88
3323.00,89.86
3322.00,89.85
3321.00,89.84
3320.00,89.82
3319.00,89.80
3318.00,89.77
3317.00,89.74
3316.00,89.71
3315.00,89.69
3314.00,89.66
3313.00,89.63
3312.00,89.59
3311.00,89.56
3310.00,89.52
3309.00,89.49
3308.00,89.46
3307.00,89.42
3306.00,89.37
3305.00,89.33
3304.00,89.30
3303.00,89.29
3302.00,89.28
3301.00,89.27
3300.00,89.25
3299.00,89.23
3298.00,89.21
3297.00,89.19
3296.00,89.17
3295.00,89.15
3294.00,89.13
3293.00,89.10
3292.00,89.07
3291.00,89.03
3290.00,89.00
3289.00,88.98
3288.00,88.97
3287.00,88.97
3286.00,88.96
3285.00,88.96
3284.00,88.96
3283.00,88.96
3282.00,88.96
3281.00,88.95
3280.00,88.93
3279.00,88.91
3278.00,88.88
3277.00,88.87
3276.00,88.87
3275.00,88.89
3274.00,88.91
3273.00,88.92
3272.00,88.93
3271.00,88.93
3270.00,88.93
3269.00,88.93
3268.00,88.94
3267.00,88.95
3266.00,88.97
3265.00,88.99
3264.00,89.02
3263.00,89.06
3262.00,89.10
3261.00,89.13
3260.00,89.15
3259.00,89.17
3258.00,89.20
3257.00,89.24
3256.00,89.27
3255.00,89.30
3254.00,89.31
3253.00,89.32
3252.00,89.34
3251.00,89.36
3250.00,89.39
3249.00,89.42
3248.00,89.45
3247.00,89.49
3246.00,89.53
3245.00,89.56
3244.00,89.60
3243.00,89.62
3242.00,89.64
3241.00,89.65
3240.00,89.67
3239.00,89.68
3238.00,89.71
3237.00,89.73
3236.00,89.76
3235.00,89.78
3234.00,89.81
3233.00,89.83
3232.00,89.85
3231.00,89.86
3230.00,89.87
3229.00,89.89
3228.00,89.92
3227.00,89.95
3226.00,89.99
3225.00,90.01
3224.00,90.03
3223.00,90.05
3222.00,90.06
3221.00,90.08
3220.00,90.09
3219.00,90.10
3218.00,90.12
3217.00,90.13
3216.00,90.13
3215.00,90.15
3214.00,90.16
3213.00,90.18
3212.00,90.21
3211.00,90.24
3210.00,90.27
3209.00,90.29
3208.00,90.30
3207.00,90.32
3206.00,90.35
3205.00,90.38
3204.00,90.40
3203.00,90.41
3202.00,90.42
3201.00,90.45
3200.00,90.48
3199.00,90.50
3198.00,90.52
3197.00,90.54
3196.00,90.55
3195.00,90.57
3194.00,90.58
3193.00,90.61
3192.00,90.65
3191.00,90.68
3190.00,90.70
3189.00,90.71
3188.00,90.72
3187.00,90.74
3186.00,90.77
3185.00,90.81
3184.00,90.86
3183.00,90.89
3182.00,90.92
3181.00,90.95
3180.00,90.98
3179.00,91.01
3178.00,91.04
3177.00,91.07
3176.00,91.10
3175.00,91.13
3174.00,91.16
3173.00,91.18
3172.00,91.21
3171.00,91.25
3170.00,91.28
3169.00,91.30
3168.00,91.33
3167.00,91.36
3166.00,91.38
3165.00,91.41
3164.00,91.44
3163.00,91.48
3162.00,91.51
3161.00,91.53
3160.00,91.55
3159.00,91.57
3158.00,91.61
3157.00,91.65
3156.00,91.69
3155.00,91.73
3154.00,91.76
3153.00,91.78
3152.00,91.80
3151.00,91.82
3150.00,91.86
3149.00,91.89
3148.00,91.92
3147.00,91.95
3146.00,91.97
3145.00,91.99
3144.00,92.00
3143.00,92.01
3142.00,92.02
3141.00,92.04
3140.00,92.08
3139.00,92.12
3138.00,92.15
3137.00,92.18
3136.00,92.20
3135.00,92.22
3134.00,92.25
3133.00,92.28
3132.00,92.31
3131.00,92.34
3130.00,92.37
3129.00,92.41
3128.00,92.43
3127.00,92.46
3126.00,92.48
3125.00,92.49
3124.00,92.50
3123.00,92.50
3122.00,92.49
3121.00,92.48
3120.00,92.48
3119.00,92.49
3118.00,92.50
3117.00,92.52
3116.00,92.54
3115.00,92.56
3114.00,92.56
3113.00,92.56
3112.00,92.56
3111.00,92.56
3110.00,92.57
3109.00,92.59
3108.00,92.61
3107.00,92.62
3106.00,92.63
3105.00,92.62
3104.00,92.61
3103.00,92.61
3102.00,92.61
3101.00,92.61
3100.00,92.62
3099.00,92.62
3098.00,92.62
3097.00,92.61
3096.00,92.58
3095.00,92.56
3094.00,92.55
3093.00,92.56
3092.00,92.57
3091.00,92.58
3090.00,92.57
3089.00,92.56
3088.00,92.54
3087.00,92.52
3086.00,92.51
3085.00,92.50
3084.00,92.50
3083.00,92.49
3082.00,92.49
3081.00,92.49
3080.00,92.49
3079.00,92.50
3078.00,92.50
3077.00,92.49
3076.00,92.48
3075.00,92.46
3074.00,92.46
3073.00,92.46
3072.00,92.48
3071.00,92.49
3070.00,92.49
3069.00,92.48
3068.00,92.48
3067.00,92.48
3066.00,92.48
3065.00,92.49
3064.00,92.48
3063.00,92.48
3062.00,92.50
3061.00,92.52
3060.00,92.54
3059.00,92.56
3058.00,92.58
3057.00,92.58
3056.00,92.58
3055.00,92.59
3054.00,92.60
3053.00,92.61
3052.00,92.63
3051.00,92.65
3050.00,92.68
3049.00,92.71
3048.00,92.73
3047.00,92.75
3046.00,92.78
3045.00,92.80
3044.00,92.83
3043.00,92.85
3042.00,92.87
3041.00,92.90
3040.00,92.93
3039.00,92.95
3038.00,92.97
3037.00,92.98
3036.00,92.99
3035.00,93.01
3034.00,93.03
3033.00,93.05
3032.00,93.07
3031.00,93.10
3030.00,93.12
3029.00,93.15
3028.00,93.19
3027.00,93.22
3026.00,93.26
3025.00,93.27
3024.00,93.28
3023.00,93.30
3022.00,93.32
3021.00,93.35
3020.00,93.37
3019.00,93.39
3018.00,93.41
3017.00,93.44
3016.00,93.47
3015.00,93.49
3014.00,93.51
3013.00,93.51
3012.00,93.51
3011.00,93.51
3010.00,93.53
3009.00,93.55
3008.00,93.56
3007.00,93.57
3006.00,93.58
3005.00,93.58
3004.00,93.57
3003.00,93.57
3002.00,93.57
3001.00,93.57
3000.00,93.58
2999.00,93.58
2998.00,93.59
2997.00,93.58
2996.00,93.57
2995.00,93.56
2994.00,93.54
2993.00,93.51
2992.00,93.48
2991.00,93.45
2990.00,93.43
2989.00,93.42
2988.00,93.41
2987.00,93.38
2986.00,93.33
2985.00,93.28
2984.00,93.23
2983.00,93.19
2982.00,93.17
2981.00,93.14
2980.00,93.09
2979.00,93.04
2978.00,93.01
2977.00,92.97
2976.00,92.94
2975.00,92.90
2974.00,92.86
2973.00,92.81
2972.00,92.77
2971.00,92.73
2970.00,92.68
2969.00,92.64
2968.00,92.60
2967.00,92.55
2966.00,92.49
2965.00,92.44
2964.00,92.40
2963.00,92.38
2962.00,92.37
2961.00,92.37
2960.00,92.37
2959.00,92.37
2958.00,92.36
2957.00,92.36
2956.00,92.35
2955.00,92.37
2954.00,92.40
2953.00,92.44
2952.00,92.49
2951.00,92.53
2950.00,92.56
2949.00,92.57
2948.00,92.58
2947.00,92.57
2946.00,92.57
2945.00,92.55
2944.00,92.54
2943.00,92.51
2942.00,92.47
2941.00,92.43
2940.00,92.40
2939.00,92.37
2938.00,92.34
2937.00,92.31
2936.00,92.26
2935.00,92.22
2934.00,92.19
2933.00,92.15
2932.00,92.10
2931.00,92.04
2930.00,91.97
2929.00,91.91
2928.00,91.85
2927.00,91.81
2926.00,91.77
2925.00,91.73
2924.00,91.68
2923.00,91.63
2922.00,91.57
2921.00,91.52
2920.00,91.48
2919.00,91.47
2918.00,91.50
2917.00,91.56
2916.00,91.66
2915.00,91.79
2914.00,91.94
2913.00,92.09
2912.00,92.23
2911.00,92.35
2910.00,92.46
2909.00,92.56
2908.00,92.67
2907.00,92.77
2906.00,92.86
2905.00,92.92
2904.00,92.95
2903.00,92.98
2902.00,93.00
2901.00,93.03
2900.00,93.07
2899.00,93.10
2898.00,93.14
2897.00,93.18
2896.00,93.22
2895.00,93.26
2894.00,93.30
2893.00,93.32
2892.00,93.34
2891.00,93.36
2890.00,93.37
2889.00,93.38
2888.00,93.39
2887.00,93.39
2886.00,93.40
2885.00,93.42
2884.00,93.43
2883.00,93.43
2882.00,93.43
2881.00,93.42
2880.00,93.42
2879.00,93.41
2878.00,93.40
2877.00,93.39
2876.00,93.40
2875.00,93.41
2874.00,93.43
2873.00,93.44
2872.00,93.45
2871.00,93.45
2870.00,93.47
2869.00,93.50
2868.00,93.53
2867.00,93.58
2866.00,93.63
2865.00,93.67
2864.00,93.71
2863.00,93.73
2862.00,93.74
2861.00,93.75
2860.00,93.75
2859.00,93.74
2858.00,93.70
2857.00,93.65
2856.00,93.58
2855.00,93.49
2854.00,93.39
2853.00,93.29
2852.00,93.22
2851.00,93.19
2850.00,93.21
2849.00,93.28
2848.00,93.40
2847.00,93.54
2846.00,93.70
2845.00,93.86
2844.00,94.00
2843.00,94.11
2842.00,94.19
2841.00,94.26
2840.00,94.31
2839.00,94.36
2838.00,94.41
2837.00,94.45
2836.00,94.49
2835.00,94.52
2834.00,94.55
2833.00,94.58
2832.00,94.60
2831.00,94.61
2830.00,94.62
2829.00,94.62
2828.00,94.63
2827.00,94.65
2826.00,94.68
2825.00,94.70
2824.00,94.72
2823.00,94.73
2822.00,94.74
2821.00,94.76
2820.00,94.78
2819.00,94.80
2818.00,94.81
2817.00,94.81
2816.00,94.82
2815.00,94.83
2814.00,94.83
2813.00,94.83
2812.00,94.84
2811.00,94.86
2810.00,94.87
2809.00,94.89
2808.00,94.90
2807.00,94.91
2806.00,94.93
2805.00,94.94
2804.00,94.95
2803.00,94.96
2802.00,94.97
2801.00,94.97
2800.00,94.97
2799.00,94.98
2798.00,94.98
2797.00,94.98
2796.00,94.98
2795.00,94.98
2794.00,94.98
2793.00,95.00
2792.00,95.01
2791.00,95.02
2790.00,95.02
2789.00,95.02
2788.00,95.02
2787.00,95.03
2786.00,95.05
2785.00,95.07
2784.00,95.10
2783.00,95.13
2782.00,95.15
2781.00,95.18
2780.00,95.20
2779.00,95.20
2778.00,95.20
2777.00,95.19
2776.00,95.18
2775.00,95.18
2774.00,95.19
2773.00,95.21
2772.00,95.23
2771.00,95.25
2770.00,95.26
2769.00,95.26
2768.00,95.25
2767.00,95.25
2766.00,95.26
2765.00,95.27
2764.00,95.28
2763.00,95.30
2762.00,95.31
2761.00,95.33
2760.00,95.34
2759.00,95.36
2758.00,95.36
2757.00,95.36
2756.00,95.37
2755.00,95.37
2754.00,95.39
2753.00,95.40
2752.00,95.40
2751.00,95.40
2750.00,95.40
2749.00,95.41
2748.00,95.41
2747.00,95.42
2746.00,95.42
2745.00,95.42
2744.00,95.42
2743.00,95.42
2742.00,95.43
2741.00,95.44
2740.00,95.45
2739.00,95.45
2738.00,95.45
2737.00,95.45
2736.00,95.45
2735.00,95.45
2734.00,95.46
2733.00,95.48
2732.00,95.49
2731.00,95.50
2730.00,95.50
2729.00,95.50
2728.00,95.50
2727.00,95.51
2726.00,95.52
2725.00,95.54
2724.00,95.55
2723.00,95.55
2722.00,95.55
2721.00,95.56
2720.00,95.57
2719.00,95.59
2718.00,95.61
2717.00,95.61
2716.00,95.62
2715.00,95.62
2714.00,95.63
2713.00,95.62
2712.00,95.62
2711.00,95.62
2710.00,95.63
2709.00,95.64
2708.00,95.66
2707.00,95.67
2706.00,95.68
2705.00,95.68
2704.00,95.69
2703.00,95.69
2702.00,95.70
2701.00,95.71
2700.00,95.71
2699.00,95.70
2698.00,95.70
2697.00,95.69
2696.00,95.70
2695.00,95.72
2694.00,95.74
2693.00,95.76
2692.00,95.78
2691.00,95.78
2690.00,95.77
2689.00,95.75
2688.00,95.74
2687.00,95.75
2686.00,95.77
2685.00,95.79
2684.00,95.81
2683.00,95.82
2682.00,95.82
2681.00,95.82
2680.00,95.82
2679.00,95.82
2678.00,95.83
2677.00,95.83
2676.00,95.83
2675.00,95.82
2674.00,95.81
2673.00,95.82
2672.00,95.82
2671.00,95.83
2670.00,95.83
2669.00,95.83
2668.00,95.84
2667.00,95.85
2666.00,95.86
2665.00,95.86
2664.00,95.86
2663.00,95.85
2662.00,95.84
2661.00,95.83
2660.00,95.83
2659.00,95.83
2658.00,95.84
2657.00,95.85
2656.00,95.86
2655.00,95.86
2654.00,95.86
2653.00,95.86
2652.00,95.85
2651.00,95.84
2650.00,95.83
2649.00,95.82
2648.00,95.81
2647.00,95.82
2646.00,95.82
2645.00,95.82
2644.00,95.81
2643.00,95.79
2642.00,95.78
2641.00,95.79
2640.00,95.80
2639.00,95.82
2638.00,95.83
2637.00,95.82
2636.00,95.81
2635.00,95.80
2634.00,95.79
2633.00,95.79
2632.00,95.79
2631.00,95.79
2630.00,95.78
2629.00,95.78
2628.00,95.77
2627.00,95.77
2626.00,95.77
2625.00,95.76
2624.00,95.76
2623.00,95.76
2622.00,95.76
2621.00,95.75
2620.00,95.75
2619.00,95.75
2618.00,95.74
2617.00,95.73
2616.00,95.72
2615.00,95.72
2614.00,95.73
2613.00,95.76
2612.00,95.79
2611.00,95.80
2610.00,95.79
2609.00,95.77
2608.00,95.75
2607.00,95.74
2606.00,95.75
2605.00,95.76
2604.00,95.78
2603.00,95.79
2602.00,95.80
2601.00,95.79
2600.00,95.77
2599.00,95.75
2598.00,95.74
2597.00,95.73
2596.00,95.74
2595.00,95.75
2594.00,95.76
2593.00,95.77
2592.00,95.77
2591.00,95.76
2590.00,95.75
2589.00,95.74
2588.00,95.75
2587.00,95.76
2586.00,95.78
2585.00,95.79
2584.00,95.79
2583.00,95.79
2582.00,95.77
2581.00,95.75
2580.00,95.74
2579.00,95.75
2578.00,95.77
2577.00,95.80
2576.00,95.83
2575.00,95.83
2574.00,95.80
2573.00,95.75
2572.00,95.71
2571.00,95.70
2570.00,95.71
2569.00,95.72
2568.00,95.73
2567.00,95.73
2566.00,95.73
2565.00,95.73
2564.00,95.73
2563.00,95.72
2562.00,95.71
2561.00,95.71
2560.00,95.71
2559.00,95.72
2558.00,95.74
2557.00,95.75
2556.00,95.77
2555.00,95.78
2554.00,95.79
2553.00,95.79
2552.00,95.80
2551.00,95.81
2550.00,95.82
2549.00,95.82
2548.00,95.82
2547.00,95.82
2546.00,95.82
2545.00,95.81
2544.00,95.79
2543.00,95.77
2542.00,95.75
2541.00,95.74
2540.00,95.76
2539.00,95.78
2538.00,95.79
2537.00,95.79
2536.00,95.80
2535.00,95.81
2534.00,95.83
2533.00,95.84
2532.00,95.83
2531.00,95.81
2530.00,95.79
2529.00,95.77
2528.00,95.76
2527.00,95.76
2526.00,95.78
2525.00,95.79
2524.00,95.81
2523.00,95.83
2522.00,95.84
2521.00,95.83
2520.00,95.81
2519.00,95.80
2518.00,95.80
2517.00,95.81
2516.00,95.84
2515.00,95.85
2514.00,95.86
2513.00,95.86
2512.00,95.85
2511.00,95.85
2510.00,95.86
2509.00,95.86
2508.00,95.85
2507.00,95.83
2506.00,95.82
2505.00,95.80
2504.00,95.80
2503.00,95.81
2502.00,95.84
2501.00,95.86
2500.00,95.87
2499.00,95.88
2498.00,95.89
2497.00,95.90
2496.00,95.91
2495.00,95.90
2494.00,95.89
2493.00,95.88
2492.00,95.88
2491.00,95.88
2490.00,95.89
2489.00,95.90
2488.00,95.90
2487.00,95.91
2486.00,95.90
2485.00,95.89
2484.00,95.88
2483.00,95.88
2482.00,95.87
2481.00,95.87
2480.00,95.88
2479.00,95.89
2478.00,95.91
2477.00,95.91
2476.00,95.90
2475.00,95.88
2474.00,95.87
2473.00,95.87
2472.00,95.89
2471.00,95.91
2470.00,95.93
2469.00,95.93
2468.00,95.92
2467.00,95.91
2466.00,95.91
2465.00,95.90
2464.00,95.89
2463.00,95.88
2462.00,95.86
2461.00,95.86
2460.00,95.86
2459.00,95.86
2458.00,95.86
2457.00,95.87
2456.00,95.89
2455.00,95.91
2454.00,95.92
2453.00,95.92
2452.00,95.91
2451.00,95.91
2450.00,95.92
2449.00,95.93
2448.00,95.93
2447.00,95.93
2446.00,95.93
2445.00,95.92
2444.00,95.92
2443.00,95.91
2442.00,95.92
2441.00,95.93
2440.00,95.95
2439.00,95.97
2438.00,95.98
2437.00,95.98
2436.00,95.99
2435.00,96.00
2434.00,96.02
2433.00,96.03
2432.00,96.04
2431.00,96.03
2430.00,96.03
2429.00,96.02
2428.00,96.01
2427.00,96.00
2426.00,95.99
2425.00,95.99
2424.00,95.99
2423.00,95.99
2422.00,96.00
2421.00,96.01
2420.00,96.03
2419.00,96.04
2418.00,96.05
2417.00,96.05
2416.00,96.05
2415.00,96.05
2414.00,96.05
2413.00,96.05
2412.00,96.06
2411.00,96.07
2410.00,96.08
2409.00,96.10
2408.00,96.11
2407.00,96.12
2406.00,96.12
2405.00,96.11
2404.00,96.09
2403.00,96.08
2402.00,96.07
2401.00,96.07
2400.00,96.07
2399.00,96.09
2398.00,96.10
2397.00,96.12
2396.00,96.13
2395.00,96.15
2394.00,96.17
2393.00,96.19
2392.00,96.20
2391.00,96.20
2390.00,96.20
2389.00,96.22
2388.00,96.23
2387.00,96.24
2386.00,96.24
2385.00,96.23
2384.00,96.23
2383.00,96.24
2382.00,96.25
2381.00,96.26
2380.00,96.28
2379.00,96.30
2378.00,96.33
2377.00,96.34
2376.00,96.30
2375.00,96.23
2374.00,96.16
2373.00,96.13
2372.00,96.15
2371.00,96.22
2370.00,96.29
2369.00,96.34
2368.00,96.36
2367.00,96.37
2366.00,96.35
2365.00,96.27
2364.00,96.15
2363.00,96.03
2362.00,95.97
2361.00,95.97
2360.00,96.03
2359.00,96.14
2358.00,96.26
2357.00,96.33
2356.00,96.33
2355.00,96.31
2354.00,96.29
2353.00,96.28
2352.00,96.28
2351.00,96.28
2350.00,96.28
2349.00,96.29
2348.00,96.29
2347.00,96.29
2346.00,96.28
2345.00,96.23
2344.00,96.17
2343.00,96.14
2342.00,96.18
2341.00,96.24
2340.00,96.29
2339.00,96.30
2338.00,96.29
2337.00,96.29
2336.00,96.29
2335.00,96.29
2334.00,96.31
2333.00,96.32
2332.00,96.34
2331.00,96.34
2330.00,96.33
2329.00,96.32
2328.00,96.30
2327.00,96.28
2326.00,96.25
2325.00,96.22
2324.00,96.18
2323.00,96.15
2322.00,96.14
2321.00,96.14
2320.00,96.15
2319.00,96.15
2318.00,96.14
2317.00,96.13
2316.00,96.15
2315.00,96.18
2314.00,96.19
2313.00,96.18
2312.00,96.16
2311.00,96.15
2310.00,96.17
2309.00,96.20
2308.00,96.20
2307.00,96.19
2306.00,96.15
2305.00,96.11
2304.00,96.08
2303.00,96.05
2302.00,96.03
2301.00,96.03
2300.00,96.05
2299.00,96.07
2298.00,96.08
2297.00,96.08
2296.00,96.06
2295.00,96.04
2294.00,96.03
2293.00,96.04
2292.00,96.04
2291.00,96.03
2290.00,96.01
2289.00,96.01
2288.00,96.00
2287.00,95.99
2286.00,95.95
2285.00,95.90
2284.00,95.85
2283.00,95.84
2282.00,95.86
2281.00,95.88
2280.00,95.89
2279.00,95.88
2278.00,95.86
2277.00,95.84
2276.00,95.84
2275.00,95.85
2274.00,95.85
2273.00,95.83
2272.00,95.81
2271.00,95.81
2270.00,95.81
2269.00,95.80
2268.00,95.78
2267.00,95.76
2266.00,95.75
2265.00,95.76
2264.00,95.77
2263.00,95.76
2262.00,95.74
2261.00,95.71
2260.00,95.69
2259.00,95.69
2258.00,95.69
2257.00,95.68
2256.00,95.65
2255.00,95.63
2254.00,95.61
2253.00,95.60
2252.00,95.59
2251.00,95.60
2250.00,95.61
2249.00,95.62
2248.00,95.61
2247.00,95.60
2246.00,95.58
2245.00,95.59
2244.00,95.61
2243.00,95.65
2242.00,95.68
2241.00,95.67
2240.00,95.64
2239.00,95.60
2238.00,95.56
2237.00,95.55
2236.00,95.55
2235.00,95.55
2234.00,95.55
2233.00,95.54
2232.00,95.53
2231.00,95.54
2230.00,95.56
2229.00,95.57
2228.00,95.56
2227.00,95.53
2226.00,95.51
2225.00,95.50
2224.00,95.51
2223.00,95.51
2222.00,95.50
2221.00,95.46
2220.00,95.43
2219.00,95.43
2218.00,95.44
2217.00,95.44
2216.00,95.43
2215.00,95.41
2214.00,95.41
2213.00,95.44
2212.00,95.47
2211.00,95.48
2210.00,95.43
2209.00,95.36
2208.00,95.31
2207.00,95.30
2206.00,95.33
2205.00,95.34
2204.00,95.32
2203.00,95.28
2202.00,95.23
2201.00,95.19
2200.00,95.17
2199.00,95.17
2198.00,95.19
2197.00,95.23
2196.00,95.25
2195.00,95.23
2194.00,95.20
2193.00,95.17
2192.00,95.18
2191.00,95.22
2190.00,95.25
2189.00,95.25
2188.00,95.23
2187.00,95.19
2186.00,95.15
2185.00,95.12
2184.00,95.10
2183.00,95.12
2182.00,95.14
2181.00,95.15
2180.00,95.12
2179.00,95.07
2178.00,95.03
2177.00,95.01
2176.00,95.02
2175.00,95.05
2174.00,95.07
2173.00,95.07
2172.00,95.04
2171.00,95.00
2170.00,94.96
2169.00,94.92
2168.00,94.88
2167.00,94.84
2166.00,94.84
2165.00,94.88
2164.00,94.92
2163.00,94.94
2162.00,94.94
2161.00,94.91
2160.00,94.88
2159.00,94.84
2158.00,94.82
2157.00,94.83
2156.00,94.85
2155.00,94.88
2154.00,94.91
2153.00,94.96
2152.00,95.03
2151.00,95.10
2150.00,95.19
2149.00,95.27
2148.00,95.33
2147.00,95.36
2146.00,95.36
2145.00,95.36
2144.00,95.38
2143.00,95.41
2142.00,95.44
2141.00,95.46
2140.00,95.49
2139.00,95.53
2138.00,95.58
2137.00,95.63
2136.00,95.67
2135.00,95.69
2134.00,95.69
2133.00,95.66
2132.00,95.64
2131.00,95.66
2130.00,95.70
2129.00,95.75
2128.00,95.77
2127.00,95.76
2126.00,95.75
2125.00,95.73
2124.00,95.70
2123.00,95.66
2122.00,95.65
2121.00,95.67
2120.00,95.71
2119.00,95.74
2118.00,95.75
2117.00,95.75
2116.00,95.74
2115.00,95.75
2114.00,95.77
2113.00,95.78
2112.00,95.78
2111.00,95.78
2110.00,95.77
2109.00,95.75
2108.00,95.74
2107.00,95.73
2106.00,95.72
2105.00,95.71
2104.00,95.71
2103.00,95.70
2102.00,95.70
2101.00,95.68
2100.00,95.66
2099.00,95.66
2098.00,95.67
2097.00,95.70
2096.00,95.73
2095.00,95.77
2094.00,95.79
2093.00,95.80
2092.00,95.82
2091.00,95.84
2090.00,95.87
2089.00,95.88
2088.00,95.85
2087.00,95.81
2086.00,95.79
2085.00,95.79
2084.00,95.79
2083.00,95.77
2082.00,95.72
2081.00,95.68
2080.00,95.67
2079.00,95.67
2078.00,95.67
2077.00,95.66
2076.00,95.64
2075.00,95.63
2074.00,95.65
2073.00,95.67
2072.00,95.71
2071.00,95.74
2070.00,95.77
2069.00,95.78
2068.00,95.75
2067.00,95.69
2066.00,95.62
2065.00,95.58
2064.00,95.60
2063.00,95.65
2062.00,95.71
2061.00,95.75
2060.00,95.74
2059.00,95.68
2058.00,95.60
2057.00,95.55
2056.00,95.53
2055.00,95.56
2054.00,95.58
2053.00,95.59
2052.00,95.58
2051.00,95.54
2050.00,95.48
2049.00,95.42
2048.00,95.39
2047.00,95.38
2046.00,95.36
2045.00,95.34
2044.00,95.31
2043.00,95.30
2042.00,95.30
2041.00,95.29
2040.00,95.27
2039.00,95.22
2038.00,95.18
2037.00,95.15
2036.00,95.16
2035.00,95.20
2034.00,95.25
2033.00,95.25
2032.00,95.22
2031.00,95.19
2030.00,95.18
2029.00,95.19
2028.00,95.21
2027.00,95.22
2026.00,95.20
2025.00,95.17
2024.00,95.13
2023.00,95.10
2022.00,95.10
2021.00,95.12
2020.00,95.14
2019.00,95.15
2018.00,95.15
2017.00,95.18
2016.00,95.25
2015.00,95.33
2014.00,95.39
2013.00,95.40
2012.00,95.39
2011.00,95.34
2010.00,95.30
2009.00,95.28
2008.00,95.30
2007.00,95.35
2006.00,95.39
2005.00,95.43
2004.00,95.47
2003.00,95.52
2002.00,95.55
2001.00,95.57
2000.00,95.58
1999.00,95.61
1998.00,95.64
1997.00,95.63
1996.00,95.59
1995.00,95.52
1994.00,95.45
1993.00,95.42
1992.00,95.45
1991.00,95.51
1990.00,95.56
1989.00,95.57
1988.00,95.53
1987.00,95.47
1986.00,95.43
1985.00,95.40
1984.00,95.40
1983.00,95.40
1982.00,95.40
1981.00,95.39
1980.00,95.38
1979.00,95.38
1978.00,95.37
1977.00,95.37
1976.00,95.39
1975.00,95.43
1974.00,95.46
1973.00,95.48
1972.00,95.50
1971.00,95.54
1970.00,95.56
1969.00,95.55
1968.00,95.53
1967.00,95.54
1966.00,95.58
1965.00,95.60
1964.00,95.62
1963.00,95.62
1962.00,95.65
1961.00,95.69
1960.00,95.74
1959.00,95.78
1958.00,95.80
1957.00,95.83
1956.00,95.87
1955.00,95.91
1954.00,95.93
1953.00,95.94
1952.00,95.95
1951.00,95.98
1950.00,96.00
1949.00,96.01
1948.00,96.02
1947.00,96.03
1946.00,96.05
1945.00,96.07
1944.00,96.07
1943.00,96.05
1942.00,96.03
1941.00,96.03
1940.00,96.06
1939.00,96.10
1938.00,96.13
1937.00,96.13
1936.00,96.13
1935.00,96.12
1934.00,96.12
1933.00,96.11
1932.00,96.10
1931.00,96.11
1930.00,96.13
1929.00,96.15
1928.00,96.16
1927.00,96.18
1926.00,96.21
1925.00,96.23
1924.00,96.26
1923.00,96.28
1922.00,96.30
1921.00,96.28
1920.00,96.24
1919.00,96.21
1918.00,96.20
1917.00,96.20
1916.00,96.23
1915.00,96.27
1914.00,96.31
1913.00,96.32
1912.00,96.32
1911.00,96.32
1910.00,96.34
1909.00,96.37
1908.00,96.38
1907.00,96.39
1906.00,96.41
1905.00,96.44
1904.00,96.47
1903.00,96.49
1902.00,96.50
1901.00,96.51
1900.00,96.51
1899.00,96.50
1898.00,96.48
1897.00,96.44
1896.00,96.42
1895.00,96.42
1894.00,96.44
1893.00,96.45
1892.00,96.44
1891.00,96.45
1890.00,96.48
1889.00,96.52
1888.00,96.55
1887.00,96.55
1886.00,96.54
1885.00,96.51
1884.00,96.50
1883.00,96.51
1882.00,96.53
1881.00,96.56
1880.00,96.57
1879.00,96.58
1878.00,96.57
1877.00,96.57
1876.00,96.57
1875.00,96.59
1874.00,96.60
1873.00,96.58
1872.00,96.55
1871.00,96.52
1870.00,96.51
1869.00,96.52
1868.00,96.56
1867.00,96.60
1866.00,96.63
1865.00,96.63
1864.00,96.62
1863.00,96.61
1862.00,96.62
1861.00,96.62
1860.00,96.63
1859.00,96.66
1858.00,96.68
1857.00,96.69
1856.00,96.68
1855.00,96.67
1854.00,96.66
1853.00,96.65
1852.00,96.64
1851.00,96.63
1850.00,96.62
1849.00,96.63
1848.00,96.64
1847.00,96.65
1846.00,96.65
1845.00,96.65
1844.00,96.64
1843.00,96.64
1842.00,96.66
1841.00,96.67
1840.00,96.69
1839.00,96.71
1838.00,96.72
1837.00,96.72
1836.00,96.71
1835.00,96.72
1834.00,96.73
1833.00,96.76
1832.00,96.78
1831.00,96.80
1830.00,96.82
1829.00,96.81
1828.00,96.79
1827.00,96.78
1826.00,96.79
1825.00,96.80
1824.00,96.81
1823.00,96.81
1822.00,96.80
1821.00,96.80
1820.00,96.80
1819.00,96.80
1818.00,96.81
1817.00,96.82
1816.00,96.84
1815.00,96.86
1814.00,96.87
1813.00,96.87
1812.00,96.86
1811.00,96.86
1810.00,96.87
1809.00,96.87
1808.00,96.87
1807.00,96.88
1806.00,96.89
1805.00,96.91
1804.00,96.91
1803.00,96.92
1802.00,96.92
1801.00,96.91
1800.00,96.91
1799.00,96.91
1798.00,96.91
1797.00,96.91
1796.00,96.91
1795.00,96.90
1794.00,96.91
1793.00,96.91
1792.00,96.91
1791.00,96.90
1790.00,96.89
1789.00,96.88
1788.00,96.87
1787.00,96.88
1786.00,96.90
1785.00,96.92
1784.00,96.92
1783.00,96.91
1782.00,96.90
1781.00,96.89
1780.00,96.89
1779.00,96.90
1778.00,96.90
1777.00,96.89
1776.00,96.87
1775.00,96.84
1774.00,96.82
1773.00,96.84
1772.00,96.88
1771.00,96.91
1770.00,96.92
1769.00,96.91
1768.00,96.91
1767.00,96.92
1766.00,96.92
1765.00,96.91
1764.00,96.89
1763.00,96.88
1762.00,96.88
1761.00,96.89
1760.00,96.89
1759.00,96.89
1758.00,96.89
1757.00,96.90
1756.00,96.91
1755.00,96.90
1754.00,96.88
1753.00,96.86
1752.00,96.84
1751.00,96.84
1750.00,96.83
1749.00,96.82
1748.00,96.80
1747.00,96.79
1746.00,96.78
1745.00,96.76
1744.00,96.73
1743.00,96.72
1742.00,96.71
1741.00,96.70
1740.00,96.68
1739.00,96.68
1738.00,96.65
1737.00,96.60
1736.00,96.55
1735.00,96.53
1734.00,96.54
1733.00,96.54
1732.00,96.52
1731.00,96.52
1730.00,96.52
1729.00,96.52
1728.00,96.50
1727.00,96.47
1726.00,96.44
1725.00,96.40
1724.00,96.36
1723.00,96.32
1722.00,96.28
1721.00,96.23
1720.00,96.16
1719.00,96.09
1718.00,96.02
1717.00,95.96
1716.00,95.90
1715.00,95.88
1714.00,95.85
1713.00,95.80
1712.00,95.70
1711.00,95.60
1710.00,95.49
1709.00,95.38
1708.00,95.25
1707.00,95.10
1706.00,94.94
1705.00,94.75
1704.00,94.56
1703.00,94.41
1702.00,94.25
1701.00,94.00
1700.00,93.63
1699.00,93.29
1698.00,93.02
1697.00,92.75
1696.00,92.44
1695.00,92.16
1694.00,91.94
1693.00,91.73
1692.00,91.51
1691.00,91.27
1690.00,91.01
1689.00,90.74
1688.00,90.47
1687.00,90.24
1686.00,90.02
1685.00,89.71
1684.00,89.34
1683.00,89.06
1682.00,88.88
1681.00,88.70
1680.00,88.49
1679.00,88.30
1678.00,88.14
1677.00,87.97
1676.00,87.75
1675.00,87.48
1674.00,87.23
1673.00,87.02
1672.00,86.82
1671.00,86.58
1670.00,86.29
1669.00,85.98
1668.00,85.71
1667.00,85.51
1666.00,85.35
1665.00,85.18
1664.00,84.93
1663.00,84.63
1662.00,84.31
1661.00,84.04
1660.00,83.80
1659.00,83.57
1658.00,83.36
1657.00,83.17
1656.00,82.99
1655.00,82.80
1654.00,82.46
1653.00,81.93
1652.00,81.52
1651.00,81.35
1650.00,81.27
1649.00,81.16
1648.00,80.95
1647.00,80.69
1646.00,80.50
1645.00,80.40
1644.00,80.35
1643.00,80.31
1642.00,80.26
1641.00,80.20
1640.00,80.14
1639.00,80.10
1638.00,80.06
1637.00,80.00
1636.00,79.88
1635.00,79.77
1634.00,79.73
1633.00,79.74
1632.00,79.77
1631.00,79.80
1630.00,79.81
1629.00,79.81
1628.00,79.81
1627.00,79.85
1626.00,79.93
1625.00,80.04
1624.00,80.16
1623.00,80.27
1622.00,80.41
1621.00,80.55
1620.00,80.71
1619.00,80.86
1618.00,81.03
1617.00,81.25
1616.00,81.51
1615.00,81.78
1614.00,82.06
1613.00,82.35
1612.00,82.64
1611.00,82.93
1610.00,83.22
1609.00,83.49
1608.00,83.76
1607.00,84.03
1606.00,84.30
1605.00,84.57
1604.00,84.83
1603.00,85.08
1602.00,85.31
1601.00,85.54
1600.00,85.77
1599.00,85.97
1598.00,86.16
1597.00,86.34
1596.00,86.51
1595.00,86.66
1594.00,86.80
1593.00,86.94
1592.00,87.09
1591.00,87.22
1590.00,87.33
1589.00,87.42
1588.00,87.51
1587.00,87.59
1586.00,87.64
1585.00,87.68
1584.00,87.71
1583.00,87.73
1582.00,87.73
1581.00,87.72
1580.00,87.71
1579.00,87.67
1578.00,87.59
1577.00,87.49
1576.00,87.41
1575.00,87.35
1574.00,87.29
1573.00,87.24
1572.00,87.17
1571.00,87.07
1570.00,86.92
1569.00,86.76
1568.00,86.64
1567.00,86.54
1566.00,86.42
1565.00,86.28
1564.00,86.13
1563.00,86.01
1562.00,85.90
1561.00,85.80
1560.00,85.55
1559.00,85.09
1558.00,84.71
1557.00,84.54
1556.00,84.42
1555.00,84.27
1554.00,84.07
1553.00,83.86
1552.00,83.67
1551.00,83.49
1550.00,83.29
1549.00,83.10
1548.00,82.95
1547.00,82.81
1546.00,82.64
1545.00,82.44
1544.00,82.25
1543.00,82.09
1542.00,81.93
1541.00,81.72
1540.00,81.51
1539.00,81.38
1538.00,81.35
1537.00,81.37
1536.00,81.39
1535.00,81.38
1534.00,81.29
1533.00,81.17
1532.00,81.10
1531.00,81.08
1530.00,81.08
1529.00,81.07
1528.00,81.05
1527.00,81.03
1526.00,81.01
1525.00,81.01
1524.00,81.02
1523.00,81.02
1522.00,80.97
1521.00,80.89
1520.00,80.85
1519.00,80.84
1518.00,80.80
1517.00,80.74
1516.00,80.71
1515.00,80.75
1514.00,80.84
1513.00,80.94
1512.00,81.05
1511.00,81.15
1510.00,81.25
1509.00,81.35
1508.00,81.47
1507.00,81.64
1506.00,81.87
1505.00,82.10
1504.00,82.31
1503.00,82.52
1502.00,82.75
1501.00,82.99
1500.00,83.22
1499.00,83.44
1498.00,83.65
1497.00,83.88
1496.00,84.13
1495.00,84.40
1494.00,84.66
1493.00,84.90
1492.00,85.14
1491.00,85.37
1490.00,85.62
1489.00,85.88
1488.00,86.14
1487.00,86.38
1486.00,86.61
1485.00,86.82
1484.00,87.00
1483.00,87.15
1482.00,87.30
1481.00,87.42
1480.00,87.52
1479.00,87.61
1478.00,87.66
1477.00,87.66
1476.00,87.61
1475.00,87.55
1474.00,87.48
1473.00,87.38
1472.00,87.24
1471.00,87.13
1470.00,87.06
1469.00,87.02
1468.00,87.00
1467.00,86.99
1466.00,86.98
1465.00,86.97
1464.00,86.95
1463.00,86.93
1462.00,86.92
1461.00,86.92
1460.00,86.89
1459.00,86.82
1458.00,86.68
1457.00,86.51
1456.00,86.41
1455.00,86.38
1454.00,86.38
1453.00,86.38
1452.00,86.37
1451.00,86.36
1450.00,86.35
1449.00,86.34
1448.00,86.33
1447.00,86.33
1446.00,86.37
1445.00,86.43
1444.00,86.48
1443.00,86.53
1442.00,86.59
1441.00,86.65
1440.00,86.72
1439.00,86.80
1438.00,86.89
1437.00,86.97
1436.00,87.03
1435.00,87.09
1434.00,87.18
1433.00,87.28
1432.00,87.40
1431.00,87.50
1430.00,87.59
1429.00,87.67
1428.00,87.74
1427.00,87.79
1426.00,87.83
1425.00,87.85
1424.00,87.86
1423.00,87.86
1422.00,87.87
1421.00,87.89
1420.00,87.89
1419.00,87.85
1418.00,87.81
1417.00,87.78
1416.00,87.76
1415.00,87.74
1414.00,87.72
1413.00,87.70
1412.00,87.67
1411.00,87.63
1410.00,87.59
1409.00,87.55
1408.00,87.50
1407.00,87.45
1406.00,87.39
1405.00,87.33
1404.00,87.27
1403.00,87.22
1402.00,87.21
1401.00,87.19
1400.00,87.15
1399.00,87.10
1398.00,87.05
1397.00,87.02
1396.00,87.01
1395.00,87.00
1394.00,86.98
1393.00,86.98
1392.00,86.97
1391.00,86.98
1390.00,86.99
1389.00,86.99
1388.00,86.99
1387.00,87.00
1386.00,87.03
1385.00,87.08
1384.00,87.14
1383.00,87.21
1382.00,87.27
1381.00,87.35
1380.00,87.42
1379.00,87.50
1378.00,87.58
1377.00,87.66
1376.00,87.73
1375.00,87.79
1374.00,87.83
1373.00,87.87
1372.00,87.92
1371.00,87.96
1370.00,88.02
1369.00,88.07
1368.00,88.14
1367.00,88.20
1366.00,88.27
1365.00,88.34
1364.00,88.39
1363.00,88.44
1362.00,88.49
1361.00,88.55
1360.00,88.60
1359.00,88.66
1358.00,88.70
1357.00,88.74
1356.00,88.76
1355.00,88.78
1354.00,88.79
1353.00,88.79
1352.00,88.80
1351.00,88.80
1350.00,88.80
1349.00,88.81
1348.00,88.82
1347.00,88.82
1346.00,88.80
1345.00,88.79
1344.00,88.79
1343.00,88.79
1342.00,88.79
1341.00,88.78
1340.00,88.77
1339.00,88.77
1338.00,88.79
1337.00,88.82
1336.00,88.85
1335.00,88.87
1334.00,88.88
1333.00,88.90
1332.00,88.91
1331.00,88.93
1330.00,88.93
1329.00,88.92
1328.00,88.92
1327.00,88.91
1326.00,88.89
1325.00,88.88
1324.00,88.87
1323.00,88.85
1322.00,88.84
1321.00,88.82
1320.00,88.79
1319.00,88.75
1318.00,88.71
1317.00,88.67
1316.00,88.64
1315.00,88.61
1314.00,88.58
1313.00,88.56
1312.00,88.55
1311.00,88.55
1310.00,88.54
1309.00,88.54
1308.00,88.54
1307.00,88.54
1306.00,88.53
1305.00,88.52
1304.00,88.52
1303.00,88.52
1302.00,88.52
1301.00,88.52
1300.00,88.52
1299.00,88.52
1298.00,88.52
1297.00,88.53
1296.00,88.54
1295.00,88.54
1294.00,88.54
1293.00,88.52
1292.00,88.51
1291.00,88.51
1290.00,88.51
1289.00,88.51
1288.00,88.50
1287.00,88.49
1286.00,88.48
1285.00,88.48
1284.00,88.49
1283.00,88.50
1282.00,88.50
1281.00,88.50
1280.00,88.48
1279.00,88.45
1278.00,88.41
1277.00,88.38
1276.00,88.35
1275.00,88.33
1274.00,88.32
1273.00,88.30
1272.00,88.29
1271.00,88.28
1270.00,88.27
1269.00,88.26
1268.00,88.24
1267.00,88.21
1266.00,88.17
1265.00,88.13
1264.00,88.09
1263.00,88.05
1262.00,88.01
1261.00,87.96
1260.00,87.91
1259.00,87.86
1258.00,87.82
1257.00,87.78
1256.00,87.74
1255.00,87.69
1254.00,87.63
1253.00,87.57
1252.00,87.52
1251.00,87.49
1250.00,87.46
1249.00,87.41
1248.00,87.34
1247.00,87.26
1246.00,87.19
1245.00,87.13
1244.00,87.09
1243.00,87.06
1242.00,87.04
1241.00,87.02
1240.00,86.99
1239.00,86.95
1238.00,86.92
1237.00,86.91
1236.00,86.91
1235.00,86.93
1234.00,86.95
1233.00,86.98
1232.00,87.00
1231.00,87.03
1230.00,87.05
1229.00,87.08
1228.00,87.12
1227.00,87.17
1226.00,87.23
1225.00,87.30
1224.00,87.37
1223.00,87.44
1222.00,87.50
1221.00,87.56
1220.00,87.62
1219.00,87.69
1218.00,87.75
1217.00,87.82
1216.00,87.88
1215.00,87.94
1214.00,88.00
1213.00,88.05
1212.00,88.09
1211.00,88.13
1210.00,88.18
1209.00,88.23
1208.00,88.28
1207.00,88.34
1206.00,88.40
1205.00,88.46
1204.00,88.52
1203.00,88.56
1202.00,88.60
1201.00,88.64
1200.00,88.66
1199.00,88.69
1198.00,88.74
1197.00,88.78
1196.00,88.82
1195.00,88.86
1194.00,88.90
1193.00,88.95
1192.00,89.00
1191.00,89.03
1190.00,89.05
1189.00,89.07
1188.00,89.09
1187.00,89.12
1186.00,89.15
1185.00,89.18
1184.00,89.21
1183.00,89.22
1182.00,89.23
1181.00,89.24
1180.00,89.24
1179.00,89.23
1178.00,89.21
1177.00,89.17
1176.00,89.14
1175.00,89.11
1174.00,89.09
1173.00,89.09
1172.00,89.10
1171.00,89.13
1170.00,89.16
1169.00,89.19
1168.00,89.23
1167.00,89.27
1166.00,89.33
1165.00,89.38
1164.00,89.41
1163.00,89.41
1162.00,89.41
1161.00,89.42
1160.00,89.45
1159.00,89.50
1158.00,89.55
1157.00,89.61
1156.00,89.65
1155.00,89.69
1154.00,89.72
1153.00,89.74
1152.00,89.76
1151.00,89.79
1150.00,89.84
1149.00,89.89
1148.00,89.94
1147.00,89.99
1146.00,90.05
1145.00,90.10
1144.00,90.15
1143.00,90.19
1142.00,90.22
1141.00,90.24
1140.00,90.26
1139.00,90.27
1138.00,90.28
1137.00,90.29
1136.00,90.27
1135.00,90.24
1134.00,90.22
1133.00,90.21
1132.00,90.21
1131.00,90.20
1130.00,90.16
1129.00,90.11
1128.00,90.07
1127.00,90.04
1126.00,90.03
1125.00,90.04
1124.00,90.05
1123.00,90.05
1122.00,90.04
1121.00,90.04
1120.00,90.04
1119.00,90.04
1118.00,90.04
1117.00,90.05
1116.00,90.06
1115.00,90.07
1114.00,90.08
1113.00,90.08
1112.00,90.06
1111.00,90.02
1110.00,89.99
1109.00,89.97
1108.00,89.96
1107.00,89.94
1106.00,89.91
1105.00,89.89
1104.00,89.89
1103.00,89.91
1102.00,89.95
1101.00,89.98
1100.00,89.99
1099.00,89.99
1098.00,89.98
1097.00,89.96
1096.00,89.93
1095.00,89.90
1094.00,89.89
1093.00,89.88
1092.00,89.86
1091.00,89.83
1090.00,89.80
1089.00,89.77
1088.00,89.73
1087.00,89.68
1086.00,89.62
1085.00,89.56
1084.00,89.52
1083.00,89.49
1082.00,89.46
1081.00,89.42
1080.00,89.39
1079.00,89.37
1078.00,89.34
1077.00,89.32
1076.00,89.30
1075.00,89.29
1074.00,89.29
1073.00,89.29
1072.00,89.30
1071.00,89.32
1070.00,89.35
1069.00,89.38
1068.00,89.42
1067.00,89.46
1066.00,89.51
1065.00,89.54
1064.00,89.56
1063.00,89.56
1062.00,89.56
1061.00,89.58
1060.00,89.61
1059.00,89.64
1058.00,89.64
1057.00,89.63
1056.00,89.63
1055.00,89.64
1054.00,89.67
1053.00,89.70
1052.00,89.71
1051.00,89.72
1050.00,89.72
1049.00,89.73
1048.00,89.76
1047.00,89.80
1046.00,89.85
1045.00,89.89
1044.00,89.91
1043.00,89.92
1042.00,89.94
1041.00,89.98
1040.00,90.03
1039.00,90.07
1038.00,90.11
1037.00,90.14
1036.00,90.17
1035.00,90.19
1034.00,90.22
1033.00,90.26
1032.00,90.33
1031.00,90.40
1030.00,90.47
1029.00,90.52
1028.00,90.56
1027.00,90.60
1026.00,90.64
1025.00,90.68
1024.00,90.72
1023.00,90.76
1022.00,90.81
1021.00,90.87
1020.00,90.92
1019.00,90.97
1018.00,91.02
1017.00,91.07
1016.00,91.13
1015.00,91.18
1014.00,91.22
1013.00,91.26
1012.00,91.30
1011.00,91.34
1010.00,91.38
1009.00,91.41
1008.00,91.45
1007.00,91.48
1006.00,91.53
1005.00,91.57
1004.00,91.63
1003.00,91.69
1002.00,91.75
1001.00,91.80
1000.00,91.83
999.00,91.86
998.00,91.88
997.00,91.89
996.00,91.89
995.00,91.90
994.00,91.91
993.00,91.94
992.00,91.97
991.00,92.01
990.00,92.04
989.00,92.07
988.00,92.07
987.00,92.08
986.00,92.10
985.00,92.12
984.00,92.13
983.00,92.13
982.00,92.12
981.00,92.12
980.00,92.15
979.00,92.19
978.00,92.22
977.00,92.23
976.00,92.23
975.00,92.24
974.00,92.25
973.00,92.27
972.00,92.30
971.00,92.33
970.00,92.35
969.00,92.35
968.00,92.34
967.00,92.33
966.00,92.32
965.00,92.33
964.00,92.35
963.00,92.38
962.00,92.41
961.00,92.42
960.00,92.40
959.00,92.40
958.00,92.42
957.00,92.44
956.00,92.46
955.00,92.45
954.00,92.43
953.00,92.42
952.00,92.42
951.00,92.43
950.00,92.44
949.00,92.44
948.00,92.43
947.00,92.42
946.00,92.41
945.00,92.40
944.00,92.40
943.00,92.40
942.00,92.42
941.00,92.44
940.00,92.44
939.00,92.42
938.00,92.40
937.00,92.37
936.00,92.36
935.00,92.34
934.00,92.32
933.00,92.29
932.00,92.27
931.00,92.25
930.00,92.23
929.00,92.22
928.00,92.22
927.00,92.24
926.00,92.27
925.00,92.30
924.00,92.31
923.00,92.30
922.00,92.30
921.00,92.31
920.00,92.33
919.00,92.36
918.00,92.40
917.00,92.44
916.00,92.47
915.00,92.50
914.00,92.51
913.00,92.51
912.00,92.49
911.00,92.47
910.00,92.46
909.00,92.46
908.00,92.47
907.00,92.47
906.00,92.47
905.00,92.48
904.00,92.48
903.00,92.47
902.00,92.45
901.00,92.45
900.00,92.45
899.00,92.45
898.00,92.44
897.00,92.44
896.00,92.43
895.00,92.42
894.00,92.39
893.00,92.36
892.00,92.34
891.00,92.33
890.00,92.32
889.00,92.33
888.00,92.36
887.00,92.37
886.00,92.37
885.00,92.35
884.00,92.34
883.00,92.32
882.00,92.29
881.00,92.24
880.00,92.21
879.00,92.20
878.00,92.21
877.00,92.21
876.00,92.20
875.00,92.20
874.00,92.20
873.00,92.22
872.00,92.22
871.00,92.20
870.00,92.16
869.00,92.12
868.00,92.11
867.00,92.13
866.00,92.17
865.00,92.19
864.00,92.18
863.00,92.13
862.00,92.07
861.00,92.03
860.00,92.02
859.00,92.03
858.00,92.02
857.00,91.98
856.00,91.92
855.00,91.85
854.00,91.81
853.00,91.81
852.00,91.82
851.00,91.82
850.00,91.79
849.00,91.73
848.00,91.65
847.00,91.60
846.00,91.57
845.00,91.56
844.00,91.54
843.00,91.51
842.00,91.49
841.00,91.47
840.00,91.45
839.00,91.41
838.00,91.36
837.00,91.32
836.00,91.28
835.00,91.25
834.00,91.21
833.00,91.18
832.00,91.14
831.00,91.09
830.00,91.03
829.00,90.98
828.00,90.96
827.00,90.96
826.00,90.98
825.00,91.01
824.00,91.02
823.00,91.02
822.00,90.99
821.00,90.94
820.00,90.88
819.00,90.83
818.00,90.79
817.00,90.77
816.00,90.75
815.00,90.75
814.00,90.76
813.00,90.74
812.00,90.68
811.00,90.60
810.00,90.52
809.00,90.46
808.00,90.42
807.00,90.39
806.00,90.35
805.00,90.32
804.00,90.29
803.00,90.28
802.00,90.26
801.00,90.22
800.00,90.17
799.00,90.10
798.00,90.03
797.00,89.97
796.00,89.93
795.00,89.89
794.00,89.85
793.00,89.83
792.00,89.83
791.00,89.84
790.00,89.83
789.00,89.80
788.00,89.74
787.00,89.68
786.00,89.64
785.00,89.60
784.00,89.54
783.00,89.46
782.00,89.38
781.00,89.33
780.00,89.33
779.00,89.33
778.00,89.32
777.00,89.28
776.00,89.24
775.00,89.20
774.00,89.16
773.00,89.11
772.00,89.06
771.00,89.01
770.00,88.98
769.00,88.95
768.00,88.93
767.00,88.90
766.00,88.85
765.00,88.79
764.00,88.73
763.00,88.68
762.00,88.63
761.00,88.57
760.00,88.51
759.00,88.48
758.00,88.46
757.00,88.43
756.00,88.36
755.00,88.27
754.00,88.17
753.00,88.08
752.00,88.00
751.00,87.93
750.00,87.88
749.00,87.84
748.00,87.81
747.00,87.78
746.00,87.76
745.00,87.75
744.00,87.73
743.00,87.71
742.00,87.69
741.00,87.65
740.00,87.59
739.00,87.52
738.00,87.47
737.00,87.47
736.00,87.48
735.00,87.49
734.00,87.46
733.00,87.39
732.00,87.31
731.00,87.23
730.00,87.17
729.00,87.12
728.00,87.08
727.00,87.03
726.00,86.98
725.00,86.91
724.00,86.83
723.00,86.77
722.00,86.72
721.00,86.67
720.00,86.61
719.00,86.52
718.00,86.45
717.00,86.39
716.00,86.36
715.00,86.33
714.00,86.28
713.00,86.21
712.00,86.15
711.00,86.11
710.00,86.06
709.00,85.97
708.00,85.86
707.00,85.75
706.00,85.67
705.00,85.58
704.00,85.49
703.00,85.43
702.00,85.40
701.00,85.38
700.00,85.32
699.00,85.24
698.00,85.14
697.00,85.07
696.00,85.02
695.00,84.97
694.00,84.92
693.00,84.87
692.00,84.84
691.00,84.85
690.00,84.90
689.00,84.92
688.00,84.87
687.00,84.78
686.00,84.68
685.00,84.61
684.00,84.56
683.00,84.52
682.00,84.46
681.00,84.40
680.00,84.36
679.00,84.33
678.00,84.28
677.00,84.18
676.00,84.07
675.00,83.99
674.00,83.96
673.00,83.94
672.00,83.91
671.00,83.84
670.00,83.75
669.00,83.59
668.00,83.41
667.00,83.34
666.00,83.42
665.00,83.51
664.00,83.54
663.00,83.52
662.00,83.46
661.00,83.38
660.00,83.31
659.00,83.26
658.00,83.23
657.00,83.19
656.00,83.15
655.00,83.14
654.00,83.16
653.00,83.15
652.00,83.05
651.00,82.86
650.00,82.67
649.00,82.56
648.00,82.57
647.00,82.68
646.00,82.81
645.00,82.87
644.00,82.87
643.00,82.83
642.00,82.80
641.00,82.77
640.00,82.69
639.00,82.57
638.00,82.42
637.00,82.27
636.00,82.17
635.00,82.13
634.00,82.11
633.00,82.03
632.00,81.89
631.00,81.78
630.00,81.75
629.00,81.78
628.00,81.81
627.00,81.84
626.00,81.88
625.00,81.91
624.00,81.90
623.00,81.83
622.00,81.67
621.00,81.41
620.00,81.12
619.00,80.92
618.00,80.84
617.00,80.72
616.00,80.48
615.00,80.21
614.00,80.03
613.00,80.00
612.00,80.10
611.00,80.35
610.00,80.69
609.00,81.01
608.00,81.26
607.00,81.54
606.00,81.87
605.00,82.12
604.00,82.12
603.00,81.82
602.00,81.36
601.00,80.87
600.00,80.47
599.00,80.23
598.00,80.16
597.00,80.20
596.00,80.35
595.00,80.64
594.00,81.07
593.00,81.53
592.00,81.91
591.00,82.09
590.00,81.93
589.00,81.38
588.00,80.61
587.00,79.99
586.00,79.79
585.00,79.96
584.00,80.27
583.00,80.52
582.00,80.61
581.00,80.57
580.00,80.55
579.00,80.72
578.00,81.02
577.00,81.16
576.00,80.91
575.00,80.28
574.00,79.48
573.00,78.86
572.00,78.78
571.00,79.41
570.00,80.26
569.00,80.52
568.00,80.00
567.00,79.22
566.00,78.68
565.00,78.39
564.00,78.21
563.00,78.21
562.00,78.44
561.00,78.71
560.00,78.91
559.00,79.09
558.00,79.24
557.00,79.18
556.00,78.89
555.00,78.66
554.00,78.71
553.00,78.92
552.00,79.06
551.00,79.04
550.00,78.88
