Created as New Dataset,15.1 Red Wool sheep natural black roving
cm-1,%T
4000.00,101.50
3999.00,101.50
3998.00,101.49
3997.00,101.49
3996.00,101.49
3995.00,101.49
3994.00,101.49
3993.00,101.49
3992.00,101.50
3991.00,101.51
3990.00,101.51
3989.00,101.50
3988.00,101.49
3987.00,101.47
3986.00,101.46
3985.00,101.47
3984.00,101.47
3983.00,101.49
3982.00,101.50
3981.00,101.52
3980.00,101.52
3979.00,101.53
3978.00,101.52
3977.00,101.51
3976.00,101.49
3975.00,101.48
3974.00,101.46
3973.00,101.45
3972.00,101.45
3971.00,101.44
3970.00,101.44
3969.00,101.44
3968.00,101.45
3967.00,101.46
3966.00,101.47
3965.00,101.48
3964.00,101.49
3963.00,101.50
3962.00,101.50
3961.00,101.50
3960.00,101.49
3959.00,101.49
3958.00,101.48
3957.00,101.48
3956.00,101.48
3955.00,101.48
3954.00,101.48
3953.00,101.48
3952.00,101.47
3951.00,101.47
3950.00,101.47
3949.00,101.47
3948.00,101.48
3947.00,101.49
3946.00,101.47
3945.00,101.45
3944.00,101.45
3943.00,101.46
3942.00,101.48
3941.00,101.49
3940.00,101.48
3939.00,101.47
3938.00,101.47
3937.00,101.47
3936.00,101.48
3935.00,101.50
3934.00,101.52
3933.00,101.53
3932.00,101.53
3931.00,101.51
3930.00,101.47
3929.00,101.44
3928.00,101.42
3927.00,101.40
3926.00,101.41
3925.00,101.43
3924.00,101.44
3923.00,101.45
3922.00,101.45
3921.00,101.46
3920.00,101.47
3919.00,101.48
3918.00,101.46
3917.00,101.45
3916.00,101.44
3915.00,101.44
3914.00,101.45
3913.00,101.46
3912.00,101.48
3911.00,101.49
3910.00,101.49
3909.00,101.48
3908.00,101.47
3907.00,101.45
3906.00,101.44
3905.00,101.46
3904.00,101.48
3903.00,101.49
3902.00,101.46
3901.00,101.42
3900.00,101.40
3899.00,101.41
3898.00,101.43
3897.00,101.46
3896.00,101.49
3895.00,101.50
3894.00,101.49
3893.00,101.47
3892.00,101.47
3891.00,101.48
3890.00,101.47
3889.00,101.43
3888.00,101.38
3887.00,101.36
3886.00,101.40
3885.00,101.43
3884.00,101.40
3883.00,101.35
3882.00,101.32
3881.00,101.34
3880.00,101.39
3879.00,101.42
3878.00,101.41
3877.00,101.38
3876.00,101.38
3875.00,101.41
3874.00,101.42
3873.00,101.39
3872.00,101.33
3871.00,101.32
3870.00,101.37
3869.00,101.40
3868.00,101.36
3867.00,101.29
3866.00,101.26
3865.00,101.29
3864.00,101.32
3863.00,101.32
3862.00,101.31
3861.00,101.33
3860.00,101.37
3859.00,101.40
3858.00,101.40
3857.00,101.38
3856.00,101.35
3855.00,101.34
3854.00,101.34
3853.00,101.31
3852.00,101.26
3851.00,101.23
3850.00,101.25
3849.00,101.31
3848.00,101.38
3847.00,101.43
3846.00,101.44
3845.00,101.44
3844.00,101.43
3843.00,101.43
3842.00,101.41
3841.00,101.37
3840.00,101.34
3839.00,101.32
3838.00,101.33
3837.00,101.34
3836.00,101.34
3835.00,101.34
3834.00,101.34
3833.00,101.36
3832.00,101.40
3831.00,101.43
3830.00,101.44
3829.00,101.41
3828.00,101.38
3827.00,101.38
3826.00,101.40
3825.00,101.39
3824.00,101.33
3823.00,101.26
3822.00,101.25
3821.00,101.28
3820.00,101.29
3819.00,101.25
3818.00,101.20
3817.00,101.21
3816.00,101.28
3815.00,101.34
3814.00,101.36
3813.00,101.36
3812.00,101.38
3811.00,101.40
3810.00,101.40
3809.00,101.38
3808.00,101.39
3807.00,101.44
3806.00,101.46
3805.00,101.42
3804.00,101.32
3803.00,101.26
3802.00,101.28
3801.00,101.34
3800.00,101.35
3799.00,101.33
3798.00,101.31
3797.00,101.33
3796.00,101.36
3795.00,101.38
3794.00,101.38
3793.00,101.38
3792.00,101.39
3791.00,101.40
3790.00,101.40
3789.00,101.40
3788.00,101.39
3787.00,101.38
3786.00,101.38
3785.00,101.39
3784.00,101.39
3783.00,101.38
3782.00,101.36
3781.00,101.34
3780.00,101.33
3779.00,101.34
3778.00,101.35
3777.00,101.35
3776.00,101.36
3775.00,101.38
3774.00,101.39
3773.00,101.38
3772.00,101.36
3771.00,101.36
3770.00,101.38
3769.00,101.37
3768.00,101.34
3767.00,101.29
3766.00,101.29
3765.00,101.32
3764.00,101.34
3763.00,101.34
3762.00,101.32
3761.00,101.32
3760.00,101.33
3759.00,101.34
3758.00,101.34
3757.00,101.35
3756.00,101.35
3755.00,101.33
3754.00,101.31
3753.00,101.29
3752.00,101.27
3751.00,101.22
3750.00,101.18
3749.00,101.16
3748.00,101.13
3747.00,101.08
3746.00,101.07
3745.00,101.15
3744.00,101.25
3743.00,101.28
3742.00,101.25
3741.00,101.23
3740.00,101.25
3739.00,101.28
3738.00,101.29
3737.00,101.29
3736.00,101.28
3735.00,101.23
3734.00,101.18
3733.00,101.17
3732.00,101.22
3731.00,101.29
3730.00,101.32
3729.00,101.31
3728.00,101.31
3727.00,101.33
3726.00,101.33
3725.00,101.29
3724.00,101.25
3723.00,101.22
3722.00,101.22
3721.00,101.24
3720.00,101.25
3719.00,101.26
3718.00,101.28
3717.00,101.29
3716.00,101.29
3715.00,101.28
3714.00,101.28
3713.00,101.28
3712.00,101.28
3711.00,101.25
3710.00,101.22
3709.00,101.20
3708.00,101.20
3707.00,101.21
3706.00,101.23
3705.00,101.23
3704.00,101.22
3703.00,101.23
3702.00,101.25
3701.00,101.28
3700.00,101.28
3699.00,101.27
3698.00,101.26
3697.00,101.26
3696.00,101.26
3695.00,101.26
3694.00,101.24
3693.00,101.22
3692.00,101.19
3691.00,101.12
3690.00,101.04
3689.00,101.00
3688.00,101.01
3687.00,101.04
3686.00,101.06
3685.00,101.09
3684.00,101.12
3683.00,101.15
3682.00,101.14
3681.00,101.12
3680.00,101.10
3679.00,101.07
3678.00,101.02
3677.00,101.00
3676.00,101.03
3675.00,101.08
3674.00,101.08
3673.00,101.01
3672.00,100.96
3671.00,100.97
3670.00,101.00
3669.00,101.02
3668.00,101.00
3667.00,100.98
3666.00,100.98
3665.00,101.00
3664.00,101.00
3663.00,100.99
3662.00,100.99
3661.00,100.99
3660.00,100.99
3659.00,100.97
3658.00,100.94
3657.00,100.92
3656.00,100.92
3655.00,100.90
3654.00,100.86
3653.00,100.80
3652.00,100.78
3651.00,100.79
3650.00,100.79
3649.00,100.74
3648.00,100.69
3647.00,100.67
3646.00,100.68
3645.00,100.70
3644.00,100.70
3643.00,100.70
3642.00,100.70
3641.00,100.69
3640.00,100.68
3639.00,100.69
3638.00,100.71
3637.00,100.74
3636.00,100.75
3635.00,100.75
3634.00,100.74
3633.00,100.71
3632.00,100.63
3631.00,100.55
3630.00,100.52
3629.00,100.52
3628.00,100.52
3627.00,100.50
3626.00,100.47
3625.00,100.44
3624.00,100.42
3623.00,100.39
3622.00,100.33
3621.00,100.27
3620.00,100.24
3619.00,100.24
3618.00,100.23
3617.00,100.22
3616.00,100.19
3615.00,100.17
3614.00,100.16
3613.00,100.16
3612.00,100.14
3611.00,100.11
3610.00,100.09
3609.00,100.09
3608.00,100.10
3607.00,100.09
3606.00,100.08
3605.00,100.07
3604.00,100.06
3603.00,100.05
3602.00,100.03
3601.00,99.99
3600.00,99.95
3599.00,99.91
3598.00,99.89
3597.00,99.89
3596.00,99.89
3595.00,99.89
3594.00,99.87
3593.00,99.85
3592.00,99.83
3591.00,99.80
3590.00,99.77
3589.00,99.73
3588.00,99.68
3587.00,99.65
3586.00,99.62
3585.00,99.61
3584.00,99.61
3583.00,99.62
3582.00,99.63
3581.00,99.62
3580.00,99.61
3579.00,99.60
3578.00,99.60
3577.00,99.59
3576.00,99.58
3575.00,99.55
3574.00,99.52
3573.00,99.49
3572.00,99.46
3571.00,99.43
3570.00,99.40
3569.00,99.36
3568.00,99.31
3567.00,99.26
3566.00,99.21
3565.00,99.19
3564.00,99.19
3563.00,99.20
3562.00,99.20
3561.00,99.18
3560.00,99.16
3559.00,99.14
3558.00,99.14
3557.00,99.14
3556.00,99.14
3555.00,99.11
3554.00,99.07
3553.00,99.04
3552.00,99.01
3551.00,99.00
3550.00,98.99
3549.00,98.98
3548.00,98.96
3547.00,98.94
3546.00,98.91
3545.00,98.87
3544.00,98.84
3543.00,98.80
3542.00,98.77
3541.00,98.75
3540.00,98.74
3539.00,98.74
3538.00,98.75
3537.00,98.76
3536.00,98.76
3535.00,98.75
3534.00,98.72
3533.00,98.67
3532.00,98.62
3531.00,98.59
3530.00,98.57
3529.00,98.56
3528.00,98.55
3527.00,98.52
3526.00,98.48
3525.00,98.44
3524.00,98.42
3523.00,98.40
3522.00,98.38
3521.00,98.35
3520.00,98.31
3519.00,98.29
3518.00,98.29
3517.00,98.27
3516.00,98.25
3515.00,98.23
3514.00,98.23
3513.00,98.23
3512.00,98.24
3511.00,98.24
3510.00,98.21
3509.00,98.17
3508.00,98.13
3507.00,98.10
3506.00,98.08
3505.00,98.06
3504.00,98.04
3503.00,98.01
3502.00,98.00
3501.00,98.00
3500.00,97.99
3499.00,97.99
3498.00,97.97
3497.00,97.95
3496.00,97.93
3495.00,97.91
3494.00,97.91
3493.00,97.89
3492.00,97.88
3491.00,97.85
3490.00,97.82
3489.00,97.78
3488.00,97.74
3487.00,97.70
3486.00,97.67
3485.00,97.67
3484.00,97.69
3483.00,97.70
3482.00,97.69
3481.00,97.67
3480.00,97.63
3479.00,97.60
3478.00,97.56
3477.00,97.53
3476.00,97.52
3475.00,97.53
3474.00,97.55
3473.00,97.58
3472.00,97.59
3471.00,97.58
3470.00,97.54
3469.00,97.49
3468.00,97.46
3467.00,97.44
3466.00,97.43
3465.00,97.40
3464.00,97.36
3463.00,97.32
3462.00,97.28
3461.00,97.25
3460.00,97.24
3459.00,97.24
3458.00,97.25
3457.00,97.26
3456.00,97.26
3455.00,97.25
3454.00,97.24
3453.00,97.23
3452.00,97.22
3451.00,97.20
3450.00,97.17
3449.00,97.13
3448.00,97.08
3447.00,97.04
3446.00,97.01
3445.00,97.01
3444.00,97.01
3443.00,97.03
3442.00,97.04
3441.00,97.03
3440.00,97.00
3439.00,96.96
3438.00,96.92
3437.00,96.89
3436.00,96.87
3435.00,96.85
3434.00,96.85
3433.00,96.85
3432.00,96.84
3431.00,96.81
3430.00,96.77
3429.00,96.73
3428.00,96.71
3427.00,96.69
3426.00,96.68
3425.00,96.66
3424.00,96.64
3423.00,96.62
3422.00,96.60
3421.00,96.57
3420.00,96.54
3419.00,96.52
3418.00,96.51
3417.00,96.49
3416.00,96.49
3415.00,96.49
3414.00,96.49
3413.00,96.49
3412.00,96.48
3411.00,96.46
3410.00,96.43
3409.00,96.39
3408.00,96.37
3407.00,96.36
3406.00,96.36
3405.00,96.36
3404.00,96.35
3403.00,96.33
3402.00,96.30
3401.00,96.28
3400.00,96.27
3399.00,96.26
3398.00,96.23
3397.00,96.20
3396.00,96.16
3395.00,96.13
3394.00,96.12
3393.00,96.12
3392.00,96.11
3391.00,96.08
3390.00,96.05
3389.00,96.03
3388.00,96.03
3387.00,96.04
3386.00,96.04
3385.00,96.05
3384.00,96.05
3383.00,96.04
3382.00,96.04
3381.00,96.02
3380.00,95.99
3379.00,95.94
3378.00,95.88
3377.00,95.84
3376.00,95.81
3375.00,95.81
3374.00,95.82
3373.00,95.82
3372.00,95.81
3371.00,95.78
3370.00,95.74
3369.00,95.71
3368.00,95.69
3367.00,95.67
3366.00,95.64
3365.00,95.61
3364.00,95.57
3363.00,95.54
3362.00,95.53
3361.00,95.52
3360.00,95.52
3359.00,95.52
3358.00,95.51
3357.00,95.49
3356.00,95.46
3355.00,95.44
3354.00,95.43
3353.00,95.42
3352.00,95.41
3351.00,95.38
3350.00,95.35
3349.00,95.32
3348.00,95.28
3347.00,95.25
3346.00,95.21
3345.00,95.18
3344.00,95.17
3343.00,95.16
3342.00,95.14
3341.00,95.13
3340.00,95.12
3339.00,95.10
3338.00,95.07
3337.00,95.05
3336.00,95.02
3335.00,95.00
3334.00,94.97
3333.00,94.95
3332.00,94.92
3331.00,94.90
3330.00,94.87
3329.00,94.84
3328.00,94.80
3327.00,94.78
3326.00,94.76
3325.00,94.75
3324.00,94.73
3323.00,94.71
3322.00,94.68
3321.00,94.65
3320.00,94.63
3319.00,94.62
3318.00,94.61
3317.00,94.59
3316.00,94.56
3315.00,94.52
3314.00,94.49
3313.00,94.45
3312.00,94.42
3311.00,94.40
3310.00,94.39
3309.00,94.38
3308.00,94.36
3307.00,94.31
3306.00,94.25
3305.00,94.20
3304.00,94.16
3303.00,94.15
3302.00,94.14
3301.00,94.12
3300.00,94.10
3299.00,94.08
3298.00,94.07
3297.00,94.06
3296.00,94.05
3295.00,94.04
3294.00,94.03
3293.00,94.03
3292.00,94.01
3291.00,93.99
3290.00,93.96
3289.00,93.94
3288.00,93.92
3287.00,93.90
3286.00,93.88
3285.00,93.85
3284.00,93.84
3283.00,93.82
3282.00,93.81
3281.00,93.79
3280.00,93.77
3279.00,93.75
3278.00,93.73
3277.00,93.73
3276.00,93.74
3275.00,93.76
3274.00,93.79
3273.00,93.82
3272.00,93.84
3271.00,93.85
3270.00,93.85
3269.00,93.85
3268.00,93.86
3267.00,93.87
3266.00,93.89
3265.00,93.89
3264.00,93.90
3263.00,93.90
3262.00,93.92
3261.00,93.94
3260.00,93.96
3259.00,93.99
3258.00,94.02
3257.00,94.05
3256.00,94.08
3255.00,94.10
3254.00,94.11
3253.00,94.12
3252.00,94.14
3251.00,94.16
3250.00,94.18
3249.00,94.21
3248.00,94.23
3247.00,94.25
3246.00,94.27
3245.00,94.29
3244.00,94.31
3243.00,94.32
3242.00,94.34
3241.00,94.36
3240.00,94.38
3239.00,94.40
3238.00,94.43
3237.00,94.46
3236.00,94.51
3235.00,94.55
3234.00,94.57
3233.00,94.58
3232.00,94.58
3231.00,94.58
3230.00,94.59
3229.00,94.59
3228.00,94.60
3227.00,94.61
3226.00,94.61
3225.00,94.61
3224.00,94.62
3223.00,94.65
3222.00,94.68
3221.00,94.71
3220.00,94.73
3219.00,94.75
3218.00,94.78
3217.00,94.81
3216.00,94.83
3215.00,94.84
3214.00,94.83
3213.00,94.82
3212.00,94.83
3211.00,94.85
3210.00,94.87
3209.00,94.90
3208.00,94.92
3207.00,94.94
3206.00,94.96
3205.00,94.98
3204.00,94.98
3203.00,94.99
3202.00,95.00
3201.00,95.02
3200.00,95.04
3199.00,95.06
3198.00,95.09
3197.00,95.11
3196.00,95.13
3195.00,95.15
3194.00,95.17
3193.00,95.19
3192.00,95.22
3191.00,95.25
3190.00,95.28
3189.00,95.31
3188.00,95.33
3187.00,95.35
3186.00,95.36
3185.00,95.36
3184.00,95.37
3183.00,95.41
3182.00,95.46
3181.00,95.50
3180.00,95.53
3179.00,95.55
3178.00,95.57
3177.00,95.60
3176.00,95.63
3175.00,95.67
3174.00,95.69
3173.00,95.69
3172.00,95.69
3171.00,95.69
3170.00,95.71
3169.00,95.74
3168.00,95.79
3167.00,95.84
3166.00,95.87
3165.00,95.89
3164.00,95.90
3163.00,95.93
3162.00,95.96
3161.00,95.99
3160.00,96.02
3159.00,96.03
3158.00,96.04
3157.00,96.04
3156.00,96.05
3155.00,96.09
3154.00,96.14
3153.00,96.19
3152.00,96.22
3151.00,96.24
3150.00,96.25
3149.00,96.26
3148.00,96.27
3147.00,96.30
3146.00,96.34
3145.00,96.37
3144.00,96.39
3143.00,96.40
3142.00,96.41
3141.00,96.42
3140.00,96.43
3139.00,96.45
3138.00,96.46
3137.00,96.49
3136.00,96.53
3135.00,96.57
3134.00,96.61
3133.00,96.63
3132.00,96.64
3131.00,96.66
3130.00,96.68
3129.00,96.70
3128.00,96.71
3127.00,96.72
3126.00,96.72
3125.00,96.73
3124.00,96.74
3123.00,96.77
3122.00,96.79
3121.00,96.80
3120.00,96.80
3119.00,96.80
3118.00,96.81
3117.00,96.82
3116.00,96.83
3115.00,96.84
3114.00,96.85
3113.00,96.86
3112.00,96.87
3111.00,96.88
3110.00,96.91
3109.00,96.93
3108.00,96.94
3107.00,96.92
3106.00,96.90
3105.00,96.88
3104.00,96.87
3103.00,96.87
3102.00,96.87
3101.00,96.87
3100.00,96.87
3099.00,96.87
3098.00,96.86
3097.00,96.86
3096.00,96.85
3095.00,96.86
3094.00,96.87
3093.00,96.88
3092.00,96.87
3091.00,96.85
3090.00,96.83
3089.00,96.82
3088.00,96.81
3087.00,96.81
3086.00,96.81
3085.00,96.81
3084.00,96.81
3083.00,96.79
3082.00,96.76
3081.00,96.75
3080.00,96.75
3079.00,96.76
3078.00,96.76
3077.00,96.76
3076.00,96.76
3075.00,96.77
3074.00,96.78
3073.00,96.78
3072.00,96.77
3071.00,96.76
3070.00,96.76
3069.00,96.75
3068.00,96.75
3067.00,96.76
3066.00,96.77
3065.00,96.78
3064.00,96.79
3063.00,96.79
3062.00,96.78
3061.00,96.78
3060.00,96.78
3059.00,96.79
3058.00,96.81
3057.00,96.83
3056.00,96.86
3055.00,96.88
3054.00,96.91
3053.00,96.92
3052.00,96.93
3051.00,96.93
3050.00,96.93
3049.00,96.93
3048.00,96.95
3047.00,96.98
3046.00,97.02
3045.00,97.06
3044.00,97.09
3043.00,97.09
3042.00,97.10
3041.00,97.11
3040.00,97.14
3039.00,97.17
3038.00,97.19
3037.00,97.22
3036.00,97.25
3035.00,97.28
3034.00,97.30
3033.00,97.33
3032.00,97.35
3031.00,97.37
3030.00,97.38
3029.00,97.39
3028.00,97.39
3027.00,97.40
3026.00,97.41
3025.00,97.42
3024.00,97.43
3023.00,97.44
3022.00,97.47
3021.00,97.50
3020.00,97.53
3019.00,97.55
3018.00,97.56
3017.00,97.56
3016.00,97.57
3015.00,97.59
3014.00,97.61
3013.00,97.63
3012.00,97.64
3011.00,97.64
3010.00,97.64
3009.00,97.65
3008.00,97.67
3007.00,97.68
3006.00,97.70
3005.00,97.72
3004.00,97.72
3003.00,97.72
3002.00,97.72
3001.00,97.72
3000.00,97.72
2999.00,97.73
2998.00,97.73
2997.00,97.71
2996.00,97.68
2995.00,97.65
2994.00,97.61
2993.00,97.58
2992.00,97.55
2991.00,97.52
2990.00,97.50
2989.00,97.49
2988.00,97.48
2987.00,97.47
2986.00,97.45
2985.00,97.44
2984.00,97.42
2983.00,97.40
2982.00,97.36
2981.00,97.31
2980.00,97.25
2979.00,97.20
2978.00,97.17
2977.00,97.14
2976.00,97.12
2975.00,97.08
2974.00,97.04
2973.00,96.99
2972.00,96.95
2971.00,96.92
2970.00,96.89
2969.00,96.86
2968.00,96.84
2967.00,96.82
2966.00,96.80
2965.00,96.78
2964.00,96.76
2963.00,96.74
2962.00,96.72
2961.00,96.70
2960.00,96.67
2959.00,96.66
2958.00,96.66
2957.00,96.68
2956.00,96.71
2955.00,96.74
2954.00,96.76
2953.00,96.77
2952.00,96.79
2951.00,96.82
2950.00,96.83
2949.00,96.85
2948.00,96.86
2947.00,96.87
2946.00,96.87
2945.00,96.85
2944.00,96.82
2943.00,96.80
2942.00,96.78
2941.00,96.77
2940.00,96.75
2939.00,96.72
2938.00,96.68
2937.00,96.65
2936.00,96.63
2935.00,96.63
2934.00,96.63
2933.00,96.62
2932.00,96.60
2931.00,96.59
2930.00,96.57
2929.00,96.56
2928.00,96.55
2927.00,96.53
2926.00,96.53
2925.00,96.52
2924.00,96.53
2923.00,96.53
2922.00,96.53
2921.00,96.53
2920.00,96.55
2919.00,96.60
2918.00,96.65
2917.00,96.71
2916.00,96.77
2915.00,96.83
2914.00,96.90
2913.00,96.97
2912.00,97.03
2911.00,97.09
2910.00,97.14
2909.00,97.17
2908.00,97.21
2907.00,97.25
2906.00,97.30
2905.00,97.35
2904.00,97.40
2903.00,97.43
2902.00,97.45
2901.00,97.46
2900.00,97.47
2899.00,97.47
2898.00,97.47
2897.00,97.48
2896.00,97.50
2895.00,97.52
2894.00,97.55
2893.00,97.56
2892.00,97.58
2891.00,97.60
2890.00,97.62
2889.00,97.64
2888.00,97.65
2887.00,97.65
2886.00,97.64
2885.00,97.64
2884.00,97.64
2883.00,97.64
2882.00,97.63
2881.00,97.62
2880.00,97.62
2879.00,97.62
2878.00,97.62
2877.00,97.62
2876.00,97.62
2875.00,97.61
2874.00,97.61
2873.00,97.62
2872.00,97.64
2871.00,97.65
2870.00,97.67
2869.00,97.68
2868.00,97.71
2867.00,97.74
2866.00,97.78
2865.00,97.81
2864.00,97.83
2863.00,97.86
2862.00,97.88
2861.00,97.90
2860.00,97.91
2859.00,97.90
2858.00,97.89
2857.00,97.87
2856.00,97.86
2855.00,97.85
2854.00,97.86
2853.00,97.87
2852.00,97.89
2851.00,97.92
2850.00,97.96
2849.00,98.00
2848.00,98.05
2847.00,98.09
2846.00,98.14
2845.00,98.19
2844.00,98.23
2843.00,98.28
2842.00,98.32
2841.00,98.37
2840.00,98.41
2839.00,98.45
2838.00,98.48
2837.00,98.51
2836.00,98.53
2835.00,98.55
2834.00,98.57
2833.00,98.58
2832.00,98.59
2831.00,98.59
2830.00,98.58
2829.00,98.56
2828.00,98.56
2827.00,98.57
2826.00,98.61
2825.00,98.64
2824.00,98.66
2823.00,98.66
2822.00,98.66
2821.00,98.66
2820.00,98.66
2819.00,98.67
2818.00,98.68
2817.00,98.70
2816.00,98.71
2815.00,98.72
2814.00,98.72
2813.00,98.72
2812.00,98.73
2811.00,98.74
2810.00,98.76
2809.00,98.78
2808.00,98.79
2807.00,98.80
2806.00,98.82
2805.00,98.82
2804.00,98.83
2803.00,98.82
2802.00,98.82
2801.00,98.82
2800.00,98.83
2799.00,98.83
2798.00,98.83
2797.00,98.82
2796.00,98.83
2795.00,98.85
2794.00,98.88
2793.00,98.89
2792.00,98.91
2791.00,98.92
2790.00,98.94
2789.00,98.95
2788.00,98.96
2787.00,98.96
2786.00,98.96
2785.00,98.96
2784.00,98.97
2783.00,98.97
2782.00,98.98
2781.00,98.99
2780.00,99.00
2779.00,99.01
2778.00,99.01
2777.00,99.02
2776.00,99.03
2775.00,99.05
2774.00,99.06
2773.00,99.07
2772.00,99.07
2771.00,99.06
2770.00,99.06
2769.00,99.07
2768.00,99.08
2767.00,99.08
2766.00,99.09
2765.00,99.09
2764.00,99.09
2763.00,99.09
2762.00,99.09
2761.00,99.08
2760.00,99.09
2759.00,99.09
2758.00,99.09
2757.00,99.10
2756.00,99.12
2755.00,99.14
2754.00,99.16
2753.00,99.17
2752.00,99.17
2751.00,99.18
2750.00,99.20
2749.00,99.21
2748.00,99.21
2747.00,99.20
2746.00,99.18
2745.00,99.16
2744.00,99.15
2743.00,99.16
2742.00,99.17
2741.00,99.19
2740.00,99.22
2739.00,99.23
2738.00,99.23
2737.00,99.22
2736.00,99.22
2735.00,99.22
2734.00,99.23
2733.00,99.25
2732.00,99.27
2731.00,99.29
2730.00,99.30
2729.00,99.31
2728.00,99.31
2727.00,99.31
2726.00,99.31
2725.00,99.31
2724.00,99.32
2723.00,99.32
2722.00,99.32
2721.00,99.33
2720.00,99.33
2719.00,99.34
2718.00,99.36
2717.00,99.37
2716.00,99.37
2715.00,99.38
2714.00,99.38
2713.00,99.37
2712.00,99.37
2711.00,99.36
2710.00,99.37
2709.00,99.37
2708.00,99.38
2707.00,99.39
2706.00,99.40
2705.00,99.41
2704.00,99.41
2703.00,99.41
2702.00,99.41
2701.00,99.41
2700.00,99.40
2699.00,99.38
2698.00,99.37
2697.00,99.38
2696.00,99.40
2695.00,99.42
2694.00,99.44
2693.00,99.45
2692.00,99.44
2691.00,99.43
2690.00,99.42
2689.00,99.42
2688.00,99.42
2687.00,99.43
2686.00,99.45
2685.00,99.46
2684.00,99.47
2683.00,99.47
2682.00,99.48
2681.00,99.47
2680.00,99.46
2679.00,99.47
2678.00,99.48
2677.00,99.50
2676.00,99.52
2675.00,99.53
2674.00,99.53
2673.00,99.51
2672.00,99.50
2671.00,99.49
2670.00,99.50
2669.00,99.51
2668.00,99.52
2667.00,99.53
2666.00,99.53
2665.00,99.52
2664.00,99.50
2663.00,99.48
2662.00,99.47
2661.00,99.47
2660.00,99.48
2659.00,99.50
2658.00,99.52
2657.00,99.53
2656.00,99.54
2655.00,99.53
2654.00,99.53
2653.00,99.53
2652.00,99.53
2651.00,99.53
2650.00,99.53
2649.00,99.53
2648.00,99.52
2647.00,99.52
2646.00,99.53
2645.00,99.54
2644.00,99.55
2643.00,99.56
2642.00,99.55
2641.00,99.54
2640.00,99.52
2639.00,99.50
2638.00,99.49
2637.00,99.49
2636.00,99.49
2635.00,99.50
2634.00,99.49
2633.00,99.48
2632.00,99.47
2631.00,99.47
2630.00,99.47
2629.00,99.49
2628.00,99.52
2627.00,99.55
2626.00,99.55
2625.00,99.54
2624.00,99.53
2623.00,99.51
2622.00,99.50
2621.00,99.49
2620.00,99.49
2619.00,99.49
2618.00,99.49
2617.00,99.49
2616.00,99.49
2615.00,99.50
2614.00,99.51
2613.00,99.50
2612.00,99.50
2611.00,99.50
2610.00,99.50
2609.00,99.51
2608.00,99.50
2607.00,99.49
2606.00,99.50
2605.00,99.52
2604.00,99.55
2603.00,99.58
2602.00,99.59
2601.00,99.58
2600.00,99.57
2599.00,99.56
2598.00,99.55
2597.00,99.54
2596.00,99.54
2595.00,99.55
2594.00,99.56
2593.00,99.56
2592.00,99.56
2591.00,99.57
2590.00,99.58
2589.00,99.58
2588.00,99.57
2587.00,99.54
2586.00,99.51
2585.00,99.50
2584.00,99.50
2583.00,99.52
2582.00,99.53
2581.00,99.54
2580.00,99.55
2579.00,99.55
2578.00,99.54
2577.00,99.54
2576.00,99.54
2575.00,99.53
2574.00,99.52
2573.00,99.52
2572.00,99.53
2571.00,99.56
2570.00,99.58
2569.00,99.59
2568.00,99.60
2567.00,99.60
2566.00,99.60
2565.00,99.58
2564.00,99.57
2563.00,99.55
2562.00,99.55
2561.00,99.55
2560.00,99.57
2559.00,99.58
2558.00,99.59
2557.00,99.59
2556.00,99.58
2555.00,99.58
2554.00,99.58
2553.00,99.58
2552.00,99.57
2551.00,99.56
2550.00,99.57
2549.00,99.59
2548.00,99.61
2547.00,99.62
2546.00,99.61
2545.00,99.60
2544.00,99.59
2543.00,99.59
2542.00,99.60
2541.00,99.60
2540.00,99.60
2539.00,99.60
2538.00,99.61
2537.00,99.60
2536.00,99.59
2535.00,99.56
2534.00,99.54
2533.00,99.53
2532.00,99.54
2531.00,99.55
2530.00,99.57
2529.00,99.60
2528.00,99.62
2527.00,99.62
2526.00,99.60
2525.00,99.58
2524.00,99.57
2523.00,99.59
2522.00,99.60
2521.00,99.61
2520.00,99.61
2519.00,99.59
2518.00,99.59
2517.00,99.60
2516.00,99.62
2515.00,99.64
2514.00,99.65
2513.00,99.64
2512.00,99.63
2511.00,99.61
2510.00,99.60
2509.00,99.57
2508.00,99.55
2507.00,99.53
2506.00,99.55
2505.00,99.58
2504.00,99.61
2503.00,99.64
2502.00,99.65
2501.00,99.64
2500.00,99.63
2499.00,99.62
2498.00,99.62
2497.00,99.62
2496.00,99.63
2495.00,99.64
2494.00,99.65
2493.00,99.63
2492.00,99.61
2491.00,99.61
2490.00,99.63
2489.00,99.65
2488.00,99.68
2487.00,99.68
2486.00,99.67
2485.00,99.65
2484.00,99.63
2483.00,99.62
2482.00,99.63
2481.00,99.65
2480.00,99.67
2479.00,99.69
2478.00,99.71
2477.00,99.70
2476.00,99.68
2475.00,99.66
2474.00,99.67
2473.00,99.69
2472.00,99.71
2471.00,99.71
2470.00,99.70
2469.00,99.68
2468.00,99.67
2467.00,99.67
2466.00,99.67
2465.00,99.68
2464.00,99.69
2463.00,99.69
2462.00,99.71
2461.00,99.72
2460.00,99.72
2459.00,99.71
2458.00,99.69
2457.00,99.66
2456.00,99.64
2455.00,99.63
2454.00,99.63
2453.00,99.62
2452.00,99.62
2451.00,99.62
2450.00,99.61
2449.00,99.61
2448.00,99.61
2447.00,99.63
2446.00,99.66
2445.00,99.69
2444.00,99.70
2443.00,99.70
2442.00,99.69
2441.00,99.69
2440.00,99.69
2439.00,99.68
2438.00,99.68
2437.00,99.67
2436.00,99.66
2435.00,99.64
2434.00,99.63
2433.00,99.62
2432.00,99.63
2431.00,99.66
2430.00,99.71
2429.00,99.75
2428.00,99.76
2427.00,99.75
2426.00,99.72
2425.00,99.70
2424.00,99.70
2423.00,99.72
2422.00,99.75
2421.00,99.76
2420.00,99.76
2419.00,99.76
2418.00,99.76
2417.00,99.76
2416.00,99.75
2415.00,99.73
2414.00,99.72
2413.00,99.72
2412.00,99.73
2411.00,99.74
2410.00,99.74
2409.00,99.75
2408.00,99.77
2407.00,99.77
2406.00,99.77
2405.00,99.76
2404.00,99.76
2403.00,99.75
2402.00,99.75
2401.00,99.75
2400.00,99.77
2399.00,99.79
2398.00,99.82
2397.00,99.83
2396.00,99.82
2395.00,99.80
2394.00,99.79
2393.00,99.79
2392.00,99.80
2391.00,99.80
2390.00,99.79
2389.00,99.78
2388.00,99.77
2387.00,99.78
2386.00,99.79
2385.00,99.80
2384.00,99.81
2383.00,99.82
2382.00,99.82
2381.00,99.83
2380.00,99.83
2379.00,99.83
2378.00,99.83
2377.00,99.83
2376.00,99.83
2375.00,99.84
2374.00,99.84
2373.00,99.83
2372.00,99.83
2371.00,99.86
2370.00,99.88
2369.00,99.89
2368.00,99.87
2367.00,99.85
2366.00,99.86
2365.00,99.89
2364.00,99.94
2363.00,99.93
2362.00,99.87
2361.00,99.80
2360.00,99.80
2359.00,99.86
2358.00,99.91
2357.00,99.90
2356.00,99.85
2355.00,99.80
2354.00,99.77
2353.00,99.79
2352.00,99.85
2351.00,99.93
2350.00,99.98
2349.00,99.99
2348.00,99.99
2347.00,100.02
2346.00,100.05
2345.00,100.06
2344.00,100.03
2343.00,99.99
2342.00,99.95
2341.00,99.89
2340.00,99.82
2339.00,99.76
2338.00,99.74
2337.00,99.74
2336.00,99.76
2335.00,99.78
2334.00,99.78
2333.00,99.77
2332.00,99.77
2331.00,99.76
2330.00,99.75
2329.00,99.70
2328.00,99.63
2327.00,99.56
2326.00,99.52
2325.00,99.51
2324.00,99.54
2323.00,99.58
2322.00,99.62
2321.00,99.65
2320.00,99.65
2319.00,99.64
2318.00,99.61
2317.00,99.58
2316.00,99.57
2315.00,99.58
2314.00,99.60
2313.00,99.61
2312.00,99.62
2311.00,99.61
2310.00,99.60
2309.00,99.60
2308.00,99.60
2307.00,99.61
2306.00,99.62
2305.00,99.63
2304.00,99.63
2303.00,99.63
2302.00,99.63
2301.00,99.61
2300.00,99.59
2299.00,99.58
2298.00,99.58
2297.00,99.58
2296.00,99.60
2295.00,99.61
2294.00,99.62
2293.00,99.61
2292.00,99.59
2291.00,99.57
2290.00,99.56
2289.00,99.55
2288.00,99.54
2287.00,99.53
2286.00,99.51
2285.00,99.49
2284.00,99.48
2283.00,99.50
2282.00,99.52
2281.00,99.53
2280.00,99.53
2279.00,99.52
2278.00,99.52
2277.00,99.53
2276.00,99.54
2275.00,99.54
2274.00,99.53
2273.00,99.50
2272.00,99.46
2271.00,99.43
2270.00,99.41
2269.00,99.41
2268.00,99.42
2267.00,99.45
2266.00,99.47
2265.00,99.48
2264.00,99.47
2263.00,99.46
2262.00,99.45
2261.00,99.45
2260.00,99.45
2259.00,99.45
2258.00,99.45
2257.00,99.46
2256.00,99.46
2255.00,99.45
2254.00,99.46
2253.00,99.47
2252.00,99.50
2251.00,99.52
2250.00,99.52
2249.00,99.50
2248.00,99.48
2247.00,99.46
2246.00,99.46
2245.00,99.45
2244.00,99.45
2243.00,99.44
2242.00,99.43
2241.00,99.42
2240.00,99.42
2239.00,99.44
2238.00,99.44
2237.00,99.43
2236.00,99.42
2235.00,99.41
2234.00,99.41
2233.00,99.42
2232.00,99.43
2231.00,99.45
2230.00,99.45
2229.00,99.42
2228.00,99.39
2227.00,99.37
2226.00,99.36
2225.00,99.36
2224.00,99.38
2223.00,99.42
2222.00,99.45
2221.00,99.45
2220.00,99.41
2219.00,99.38
2218.00,99.36
2217.00,99.35
2216.00,99.34
2215.00,99.34
2214.00,99.35
2213.00,99.37
2212.00,99.39
2211.00,99.41
2210.00,99.39
2209.00,99.34
2208.00,99.26
2207.00,99.21
2206.00,99.23
2205.00,99.30
2204.00,99.39
2203.00,99.45
2202.00,99.47
2201.00,99.44
2200.00,99.42
2199.00,99.41
2198.00,99.40
2197.00,99.37
2196.00,99.30
2195.00,99.23
2194.00,99.18
2193.00,99.18
2192.00,99.21
2191.00,99.28
2190.00,99.32
2189.00,99.32
2188.00,99.26
2187.00,99.20
2186.00,99.17
2185.00,99.20
2184.00,99.26
2183.00,99.35
2182.00,99.42
2181.00,99.43
2180.00,99.37
2179.00,99.27
2178.00,99.19
2177.00,99.15
2176.00,99.14
2175.00,99.11
2174.00,99.08
2173.00,99.05
2172.00,99.04
2171.00,99.04
2170.00,99.04
2169.00,99.05
2168.00,99.09
2167.00,99.14
2166.00,99.17
2165.00,99.15
2164.00,99.11
2163.00,99.08
2162.00,99.09
2161.00,99.15
2160.00,99.23
2159.00,99.30
2158.00,99.35
2157.00,99.37
2156.00,99.37
2155.00,99.38
2154.00,99.38
2153.00,99.37
2152.00,99.38
2151.00,99.40
2150.00,99.44
2149.00,99.49
2148.00,99.55
2147.00,99.58
2146.00,99.56
2145.00,99.51
2144.00,99.45
2143.00,99.42
2142.00,99.40
2141.00,99.37
2140.00,99.35
2139.00,99.36
2138.00,99.38
2137.00,99.42
2136.00,99.46
2135.00,99.52
2134.00,99.55
2133.00,99.55
2132.00,99.54
2131.00,99.55
2130.00,99.56
2129.00,99.57
2128.00,99.57
2127.00,99.54
2126.00,99.50
2125.00,99.46
2124.00,99.43
2123.00,99.42
2122.00,99.42
2121.00,99.40
2120.00,99.40
2119.00,99.40
2118.00,99.41
2117.00,99.41
2116.00,99.38
2115.00,99.36
2114.00,99.36
2113.00,99.37
2112.00,99.38
2111.00,99.39
2110.00,99.39
2109.00,99.37
2108.00,99.35
2107.00,99.34
2106.00,99.35
2105.00,99.35
2104.00,99.35
2103.00,99.36
2102.00,99.37
2101.00,99.38
2100.00,99.40
2099.00,99.42
2098.00,99.43
2097.00,99.42
2096.00,99.39
2095.00,99.36
2094.00,99.35
2093.00,99.33
2092.00,99.32
2091.00,99.32
2090.00,99.33
2089.00,99.35
2088.00,99.36
2087.00,99.37
2086.00,99.37
2085.00,99.36
2084.00,99.34
2083.00,99.34
2082.00,99.34
2081.00,99.34
2080.00,99.35
2079.00,99.36
2078.00,99.38
2077.00,99.41
2076.00,99.43
2075.00,99.44
2074.00,99.41
2073.00,99.35
2072.00,99.28
2071.00,99.23
2070.00,99.22
2069.00,99.24
2068.00,99.28
2067.00,99.33
2066.00,99.37
2065.00,99.37
2064.00,99.33
2063.00,99.28
2062.00,99.27
2061.00,99.30
2060.00,99.35
2059.00,99.38
2058.00,99.39
2057.00,99.38
2056.00,99.39
2055.00,99.42
2054.00,99.44
2053.00,99.43
2052.00,99.39
2051.00,99.35
2050.00,99.32
2049.00,99.29
2048.00,99.25
2047.00,99.21
2046.00,99.20
2045.00,99.20
2044.00,99.19
2043.00,99.16
2042.00,99.12
2041.00,99.11
2040.00,99.15
2039.00,99.22
2038.00,99.28
2037.00,99.31
2036.00,99.31
2035.00,99.30
2034.00,99.29
2033.00,99.27
2032.00,99.24
2031.00,99.22
2030.00,99.19
2029.00,99.18
2028.00,99.20
2027.00,99.24
2026.00,99.25
2025.00,99.24
2024.00,99.22
2023.00,99.22
2022.00,99.24
2021.00,99.26
2020.00,99.27
2019.00,99.27
2018.00,99.26
2017.00,99.24
2016.00,99.23
2015.00,99.27
2014.00,99.31
2013.00,99.35
2012.00,99.37
2011.00,99.39
2010.00,99.40
2009.00,99.40
2008.00,99.37
2007.00,99.34
2006.00,99.35
2005.00,99.39
2004.00,99.43
2003.00,99.44
2002.00,99.40
2001.00,99.33
2000.00,99.27
1999.00,99.24
1998.00,99.22
1997.00,99.22
1996.00,99.23
1995.00,99.23
1994.00,99.21
1993.00,99.18
1992.00,99.16
1991.00,99.18
1990.00,99.20
1989.00,99.19
1988.00,99.16
1987.00,99.13
1986.00,99.13
1985.00,99.15
1984.00,99.16
1983.00,99.17
1982.00,99.16
1981.00,99.15
1980.00,99.18
1979.00,99.23
1978.00,99.29
1977.00,99.30
1976.00,99.29
1975.00,99.26
1974.00,99.24
1973.00,99.24
1972.00,99.26
1971.00,99.29
1970.00,99.30
1969.00,99.30
1968.00,99.31
1967.00,99.32
1966.00,99.32
1965.00,99.31
1964.00,99.32
1963.00,99.37
1962.00,99.42
1961.00,99.46
1960.00,99.49
1959.00,99.53
1958.00,99.57
1957.00,99.57
1956.00,99.54
1955.00,99.49
1954.00,99.45
1953.00,99.42
1952.00,99.42
1951.00,99.44
1950.00,99.47
1949.00,99.48
1948.00,99.47
1947.00,99.48
1946.00,99.50
1945.00,99.53
1944.00,99.55
1943.00,99.55
1942.00,99.51
1941.00,99.45
1940.00,99.40
1939.00,99.40
1938.00,99.44
1937.00,99.49
1936.00,99.54
1935.00,99.59
1934.00,99.64
1933.00,99.66
1932.00,99.67
1931.00,99.67
1930.00,99.66
1929.00,99.64
1928.00,99.61
1927.00,99.59
1926.00,99.60
1925.00,99.62
1924.00,99.63
1923.00,99.64
1922.00,99.65
1921.00,99.64
1920.00,99.62
1919.00,99.61
1918.00,99.60
1917.00,99.59
1916.00,99.58
1915.00,99.58
1914.00,99.58
1913.00,99.58
1912.00,99.60
1911.00,99.63
1910.00,99.66
1909.00,99.67
1908.00,99.64
1907.00,99.62
1906.00,99.60
1905.00,99.58
1904.00,99.58
1903.00,99.59
1902.00,99.61
1901.00,99.61
1900.00,99.61
1899.00,99.61
1898.00,99.61
1897.00,99.60
1896.00,99.60
1895.00,99.61
1894.00,99.63
1893.00,99.62
1892.00,99.60
1891.00,99.58
1890.00,99.57
1889.00,99.58
1888.00,99.61
1887.00,99.65
1886.00,99.70
1885.00,99.72
1884.00,99.73
1883.00,99.72
1882.00,99.70
1881.00,99.68
1880.00,99.67
1879.00,99.66
1878.00,99.67
1877.00,99.66
1876.00,99.67
1875.00,99.69
1874.00,99.71
1873.00,99.73
1872.00,99.74
1871.00,99.74
1870.00,99.74
1869.00,99.73
1868.00,99.71
1867.00,99.70
1866.00,99.69
1865.00,99.68
1864.00,99.69
1863.00,99.71
1862.00,99.74
1861.00,99.74
1860.00,99.74
1859.00,99.75
1858.00,99.76
1857.00,99.76
1856.00,99.76
1855.00,99.74
1854.00,99.73
1853.00,99.72
1852.00,99.73
1851.00,99.75
1850.00,99.76
1849.00,99.77
1848.00,99.76
1847.00,99.75
1846.00,99.75
1845.00,99.76
1844.00,99.76
1843.00,99.75
1842.00,99.72
1841.00,99.69
1840.00,99.68
1839.00,99.69
1838.00,99.73
1837.00,99.75
1836.00,99.76
1835.00,99.76
1834.00,99.77
1833.00,99.77
1832.00,99.77
1831.00,99.78
1830.00,99.79
1829.00,99.79
1828.00,99.77
1827.00,99.76
1826.00,99.75
1825.00,99.75
1824.00,99.74
1823.00,99.73
1822.00,99.73
1821.00,99.72
1820.00,99.72
1819.00,99.72
1818.00,99.74
1817.00,99.76
1816.00,99.77
1815.00,99.77
1814.00,99.77
1813.00,99.75
1812.00,99.73
1811.00,99.73
1810.00,99.74
1809.00,99.74
1808.00,99.73
1807.00,99.73
1806.00,99.73
1805.00,99.73
1804.00,99.75
1803.00,99.77
1802.00,99.79
1801.00,99.79
1800.00,99.78
1799.00,99.77
1798.00,99.77
1797.00,99.77
1796.00,99.76
1795.00,99.75
1794.00,99.76
1793.00,99.77
1792.00,99.77
1791.00,99.76
1790.00,99.75
1789.00,99.74
1788.00,99.73
1787.00,99.73
1786.00,99.74
1785.00,99.75
1784.00,99.75
1783.00,99.75
1782.00,99.76
1781.00,99.76
1780.00,99.75
1779.00,99.74
1778.00,99.74
1777.00,99.75
1776.00,99.74
1775.00,99.73
1774.00,99.71
1773.00,99.70
1772.00,99.68
1771.00,99.66
1770.00,99.65
1769.00,99.64
1768.00,99.64
1767.00,99.64
1766.00,99.64
1765.00,99.64
1764.00,99.63
1763.00,99.63
1762.00,99.62
1761.00,99.62
1760.00,99.63
1759.00,99.65
1758.00,99.67
1757.00,99.67
1756.00,99.64
1755.00,99.60
1754.00,99.58
1753.00,99.57
1752.00,99.56
1751.00,99.54
1750.00,99.53
1749.00,99.51
1748.00,99.50
1747.00,99.50
1746.00,99.51
1745.00,99.50
1744.00,99.49
1743.00,99.46
1742.00,99.43
1741.00,99.40
1740.00,99.37
1739.00,99.36
1738.00,99.35
1737.00,99.32
1736.00,99.28
1735.00,99.26
1734.00,99.25
1733.00,99.24
1732.00,99.24
1731.00,99.24
1730.00,99.23
1729.00,99.21
1728.00,99.17
1727.00,99.14
1726.00,99.13
1725.00,99.10
1724.00,99.06
1723.00,99.04
1722.00,99.02
1721.00,98.99
1720.00,98.93
1719.00,98.87
1718.00,98.82
1717.00,98.76
1716.00,98.70
1715.00,98.65
1714.00,98.59
1713.00,98.52
1712.00,98.45
1711.00,98.37
1710.00,98.29
1709.00,98.19
1708.00,98.07
1707.00,97.92
1706.00,97.77
1705.00,97.61
1704.00,97.44
1703.00,97.28
1702.00,97.13
1701.00,96.89
1700.00,96.56
1699.00,96.26
1698.00,96.02
1697.00,95.75
1696.00,95.45
1695.00,95.19
1694.00,94.99
1693.00,94.81
1692.00,94.60
1691.00,94.38
1690.00,94.15
1689.00,93.92
1688.00,93.69
1687.00,93.46
1686.00,93.24
1685.00,92.99
1684.00,92.71
1683.00,92.49
1682.00,92.33
1681.00,92.17
1680.00,91.99
1679.00,91.83
1678.00,91.67
1677.00,91.50
1676.00,91.28
1675.00,91.03
1674.00,90.82
1673.00,90.64
1672.00,90.45
1671.00,90.24
1670.00,89.99
1669.00,89.73
1668.00,89.50
1667.00,89.31
1666.00,89.15
1665.00,88.97
1664.00,88.75
1663.00,88.50
1662.00,88.25
1661.00,88.03
1660.00,87.82
1659.00,87.62
1658.00,87.44
1657.00,87.25
1656.00,87.03
1655.00,86.78
1654.00,86.47
1653.00,86.12
1652.00,85.89
1651.00,85.80
1650.00,85.73
1649.00,85.59
1648.00,85.39
1647.00,85.18
1646.00,85.04
1645.00,84.96
1644.00,84.89
1643.00,84.82
1642.00,84.74
1641.00,84.67
1640.00,84.60
1639.00,84.53
1638.00,84.46
1637.00,84.38
1636.00,84.31
1635.00,84.26
1634.00,84.24
1633.00,84.23
1632.00,84.22
1631.00,84.20
1630.00,84.21
1629.00,84.23
1628.00,84.26
1627.00,84.29
1626.00,84.34
1625.00,84.40
1624.00,84.47
1623.00,84.58
1622.00,84.71
1621.00,84.83
1620.00,84.92
1619.00,85.00
1618.00,85.13
1617.00,85.37
1616.00,85.67
1615.00,85.96
1614.00,86.19
1613.00,86.40
1612.00,86.60
1611.00,86.82
1610.00,87.05
1609.00,87.29
1608.00,87.51
1607.00,87.73
1606.00,87.95
1605.00,88.18
1604.00,88.41
1603.00,88.63
1602.00,88.83
1601.00,89.02
1600.00,89.20
1599.00,89.36
1598.00,89.50
1597.00,89.64
1596.00,89.77
1595.00,89.90
1594.00,90.03
1593.00,90.15
1592.00,90.27
1591.00,90.37
1590.00,90.45
1589.00,90.51
1588.00,90.57
1587.00,90.64
1586.00,90.69
1585.00,90.74
1584.00,90.77
1583.00,90.79
1582.00,90.79
1581.00,90.79
1580.00,90.76
1579.00,90.70
1578.00,90.60
1577.00,90.50
1576.00,90.45
1575.00,90.44
1574.00,90.43
1573.00,90.40
1572.00,90.34
1571.00,90.26
1570.00,90.14
1569.00,90.02
1568.00,89.91
1567.00,89.81
1566.00,89.69
1565.00,89.56
1564.00,89.45
1563.00,89.33
1562.00,89.20
1561.00,89.06
1560.00,88.84
1559.00,88.53
1558.00,88.30
1557.00,88.19
1556.00,88.08
1555.00,87.93
1554.00,87.77
1553.00,87.61
1552.00,87.44
1551.00,87.26
1550.00,87.06
1549.00,86.88
1548.00,86.72
1547.00,86.58
1546.00,86.43
1545.00,86.28
1544.00,86.13
1543.00,85.97
1542.00,85.80
1541.00,85.61
1540.00,85.46
1539.00,85.38
1538.00,85.37
1537.00,85.37
1536.00,85.34
1535.00,85.27
1534.00,85.18
1533.00,85.11
1532.00,85.09
1531.00,85.09
1530.00,85.09
1529.00,85.08
1528.00,85.06
1527.00,85.03
1526.00,85.01
1525.00,84.99
1524.00,84.96
1523.00,84.92
1522.00,84.88
1521.00,84.86
1520.00,84.85
1519.00,84.83
1518.00,84.79
1517.00,84.76
1516.00,84.76
1515.00,84.79
1514.00,84.84
1513.00,84.91
1512.00,85.02
1511.00,85.14
1510.00,85.23
1509.00,85.30
1508.00,85.38
1507.00,85.55
1506.00,85.77
1505.00,85.98
1504.00,86.15
1503.00,86.30
1502.00,86.45
1501.00,86.61
1500.00,86.78
1499.00,86.95
1498.00,87.13
1497.00,87.35
1496.00,87.60
1495.00,87.84
1494.00,88.05
1493.00,88.25
1492.00,88.47
1491.00,88.71
1490.00,88.99
1489.00,89.24
1488.00,89.46
1487.00,89.64
1486.00,89.81
1485.00,89.97
1484.00,90.10
1483.00,90.23
1482.00,90.35
1481.00,90.46
1480.00,90.55
1479.00,90.63
1478.00,90.69
1477.00,90.72
1476.00,90.73
1475.00,90.70
1474.00,90.63
1473.00,90.54
1472.00,90.44
1471.00,90.39
1470.00,90.38
1469.00,90.37
1468.00,90.34
1467.00,90.30
1466.00,90.27
1465.00,90.24
1464.00,90.21
1463.00,90.19
1462.00,90.17
1461.00,90.13
1460.00,90.07
1459.00,89.99
1458.00,89.90
1457.00,89.79
1456.00,89.72
1455.00,89.68
1454.00,89.66
1453.00,89.63
1452.00,89.60
1451.00,89.58
1450.00,89.58
1449.00,89.59
1448.00,89.60
1447.00,89.62
1446.00,89.63
1445.00,89.65
1444.00,89.67
1443.00,89.70
1442.00,89.74
1441.00,89.80
1440.00,89.85
1439.00,89.91
1438.00,89.99
1437.00,90.09
1436.00,90.19
1435.00,90.28
1434.00,90.35
1433.00,90.43
1432.00,90.50
1431.00,90.57
1430.00,90.63
1429.00,90.70
1428.00,90.75
1427.00,90.79
1426.00,90.82
1425.00,90.84
1424.00,90.84
1423.00,90.83
1422.00,90.82
1421.00,90.82
1420.00,90.82
1419.00,90.81
1418.00,90.80
1417.00,90.79
1416.00,90.76
1415.00,90.72
1414.00,90.69
1413.00,90.65
1412.00,90.62
1411.00,90.58
1410.00,90.54
1409.00,90.50
1408.00,90.44
1407.00,90.39
1406.00,90.34
1405.00,90.30
1404.00,90.27
1403.00,90.24
1402.00,90.23
1401.00,90.20
1400.00,90.16
1399.00,90.11
1398.00,90.06
1397.00,90.03
1396.00,90.00
1395.00,89.98
1394.00,89.98
1393.00,89.98
1392.00,89.98
1391.00,89.98
1390.00,89.97
1389.00,89.95
1388.00,89.94
1387.00,89.93
1386.00,89.95
1385.00,89.99
1384.00,90.06
1383.00,90.13
1382.00,90.21
1381.00,90.27
1380.00,90.32
1379.00,90.36
1378.00,90.41
1377.00,90.46
1376.00,90.52
1375.00,90.59
1374.00,90.65
1373.00,90.70
1372.00,90.73
1371.00,90.75
1370.00,90.77
1369.00,90.80
1368.00,90.82
1367.00,90.85
1366.00,90.90
1365.00,90.96
1364.00,91.04
1363.00,91.11
1362.00,91.18
1361.00,91.23
1360.00,91.26
1359.00,91.28
1358.00,91.29
1357.00,91.31
1356.00,91.32
1355.00,91.32
1354.00,91.33
1353.00,91.33
1352.00,91.33
1351.00,91.34
1350.00,91.35
1349.00,91.36
1348.00,91.35
1347.00,91.35
1346.00,91.34
1345.00,91.33
1344.00,91.33
1343.00,91.34
1342.00,91.36
1341.00,91.38
1340.00,91.40
1339.00,91.41
1338.00,91.42
1337.00,91.42
1336.00,91.42
1335.00,91.42
1334.00,91.42
1333.00,91.44
1332.00,91.45
1331.00,91.46
1330.00,91.47
1329.00,91.47
1328.00,91.47
1327.00,91.47
1326.00,91.45
1325.00,91.44
1324.00,91.41
1323.00,91.39
1322.00,91.37
1321.00,91.35
1320.00,91.34
1319.00,91.32
1318.00,91.31
1317.00,91.29
1316.00,91.26
1315.00,91.22
1314.00,91.19
1313.00,91.17
1312.00,91.18
1311.00,91.20
1310.00,91.22
1309.00,91.22
1308.00,91.22
1307.00,91.21
1306.00,91.21
1305.00,91.20
1304.00,91.18
1303.00,91.16
1302.00,91.15
1301.00,91.16
1300.00,91.18
1299.00,91.22
1298.00,91.26
1297.00,91.27
1296.00,91.27
1295.00,91.26
1294.00,91.24
1293.00,91.23
1292.00,91.23
1291.00,91.24
1290.00,91.25
1289.00,91.25
1288.00,91.26
1287.00,91.26
1286.00,91.26
1285.00,91.25
1284.00,91.22
1283.00,91.19
1282.00,91.17
1281.00,91.17
1280.00,91.17
1279.00,91.18
1278.00,91.18
1277.00,91.17
1276.00,91.15
1275.00,91.13
1274.00,91.10
1273.00,91.08
1272.00,91.05
1271.00,91.01
1270.00,90.99
1269.00,90.97
1268.00,90.97
1267.00,90.96
1266.00,90.94
1265.00,90.91
1264.00,90.87
1263.00,90.82
1262.00,90.77
1261.00,90.73
1260.00,90.68
1259.00,90.63
1258.00,90.59
1257.00,90.55
1256.00,90.52
1255.00,90.49
1254.00,90.44
1253.00,90.38
1252.00,90.33
1251.00,90.28
1250.00,90.24
1249.00,90.20
1248.00,90.14
1247.00,90.08
1246.00,90.02
1245.00,89.99
1244.00,89.97
1243.00,89.95
1242.00,89.92
1241.00,89.88
1240.00,89.83
1239.00,89.79
1238.00,89.77
1237.00,89.78
1236.00,89.81
1235.00,89.83
1234.00,89.84
1233.00,89.85
1232.00,89.85
1231.00,89.85
1230.00,89.86
1229.00,89.89
1228.00,89.94
1227.00,89.99
1226.00,90.04
1225.00,90.09
1224.00,90.14
1223.00,90.19
1222.00,90.24
1221.00,90.29
1220.00,90.34
1219.00,90.38
1218.00,90.44
1217.00,90.51
1216.00,90.58
1215.00,90.66
1214.00,90.72
1213.00,90.75
1212.00,90.78
1211.00,90.80
1210.00,90.83
1209.00,90.85
1208.00,90.87
1207.00,90.91
1206.00,90.97
1205.00,91.02
1204.00,91.07
1203.00,91.12
1202.00,91.18
1201.00,91.25
1200.00,91.31
1199.00,91.35
1198.00,91.37
1197.00,91.39
1196.00,91.41
1195.00,91.44
1194.00,91.47
1193.00,91.50
1192.00,91.54
1191.00,91.59
1190.00,91.63
1189.00,91.66
1188.00,91.67
1187.00,91.66
1186.00,91.65
1185.00,91.65
1184.00,91.66
1183.00,91.68
1182.00,91.71
1181.00,91.74
1180.00,91.75
1179.00,91.73
1178.00,91.70
1177.00,91.66
1176.00,91.63
1175.00,91.63
1174.00,91.64
1173.00,91.66
1172.00,91.68
1171.00,91.71
1170.00,91.74
1169.00,91.76
1168.00,91.78
1167.00,91.80
1166.00,91.82
1165.00,91.87
1164.00,91.91
1163.00,91.95
1162.00,91.97
1161.00,91.99
1160.00,92.00
1159.00,92.03
1158.00,92.05
1157.00,92.07
1156.00,92.10
1155.00,92.13
1154.00,92.19
1153.00,92.25
1152.00,92.30
1151.00,92.34
1150.00,92.40
1149.00,92.45
1148.00,92.49
1147.00,92.51
1146.00,92.52
1145.00,92.54
1144.00,92.58
1143.00,92.61
1142.00,92.63
1141.00,92.65
1140.00,92.67
1139.00,92.70
1138.00,92.72
1137.00,92.73
1136.00,92.70
1135.00,92.66
1134.00,92.62
1133.00,92.59
1132.00,92.57
1131.00,92.55
1130.00,92.54
1129.00,92.54
1128.00,92.53
1127.00,92.50
1126.00,92.47
1125.00,92.44
1124.00,92.44
1123.00,92.45
1122.00,92.47
1121.00,92.50
1120.00,92.53
1119.00,92.56
1118.00,92.58
1117.00,92.57
1116.00,92.54
1115.00,92.51
1114.00,92.47
1113.00,92.45
1112.00,92.45
1111.00,92.46
1110.00,92.49
1109.00,92.52
1108.00,92.53
1107.00,92.52
1106.00,92.51
1105.00,92.50
1104.00,92.51
1103.00,92.53
1102.00,92.56
1101.00,92.58
1100.00,92.60
1099.00,92.61
1098.00,92.60
1097.00,92.57
1096.00,92.54
1095.00,92.51
1094.00,92.50
1093.00,92.49
1092.00,92.46
1091.00,92.40
1090.00,92.37
1089.00,92.37
1088.00,92.39
1087.00,92.40
1086.00,92.37
1085.00,92.30
1084.00,92.22
1083.00,92.15
1082.00,92.13
1081.00,92.12
1080.00,92.11
1079.00,92.10
1078.00,92.08
1077.00,92.07
1076.00,92.06
1075.00,92.04
1074.00,92.03
1073.00,92.02
1072.00,92.02
1071.00,92.04
1070.00,92.06
1069.00,92.10
1068.00,92.16
1067.00,92.21
1066.00,92.23
1065.00,92.23
1064.00,92.22
1063.00,92.21
1062.00,92.19
1061.00,92.16
1060.00,92.14
1059.00,92.14
1058.00,92.17
1057.00,92.23
1056.00,92.29
1055.00,92.35
1054.00,92.39
1053.00,92.38
1052.00,92.34
1051.00,92.29
1050.00,92.27
1049.00,92.29
1048.00,92.34
1047.00,92.39
1046.00,92.42
1045.00,92.44
1044.00,92.45
1043.00,92.46
1042.00,92.48
1041.00,92.48
1040.00,92.45
1039.00,92.43
1038.00,92.43
1037.00,92.48
1036.00,92.54
1035.00,92.60
1034.00,92.67
1033.00,92.75
1032.00,92.82
1031.00,92.86
1030.00,92.87
1029.00,92.88
1028.00,92.91
1027.00,92.97
1026.00,93.04
1025.00,93.12
1024.00,93.20
1023.00,93.28
1022.00,93.35
1021.00,93.39
1020.00,93.41
1019.00,93.41
1018.00,93.41
1017.00,93.42
1016.00,93.45
1015.00,93.51
1014.00,93.56
1013.00,93.61
1012.00,93.63
1011.00,93.63
1010.00,93.63
1009.00,93.63
1008.00,93.65
1007.00,93.69
1006.00,93.75
1005.00,93.82
1004.00,93.88
1003.00,93.94
1002.00,94.00
1001.00,94.05
1000.00,94.08
999.00,94.08
998.00,94.08
997.00,94.06
996.00,94.06
995.00,94.09
994.00,94.12
993.00,94.17
992.00,94.20
991.00,94.23
990.00,94.26
989.00,94.30
988.00,94.32
987.00,94.33
986.00,94.33
985.00,94.33
984.00,94.34
983.00,94.35
982.00,94.36
981.00,94.36
980.00,94.37
979.00,94.38
978.00,94.39
977.00,94.39
976.00,94.39
975.00,94.38
974.00,94.39
973.00,94.43
972.00,94.48
971.00,94.52
970.00,94.56
969.00,94.56
968.00,94.55
967.00,94.53
966.00,94.52
965.00,94.52
964.00,94.55
963.00,94.58
962.00,94.61
961.00,94.63
960.00,94.65
959.00,94.65
958.00,94.64
957.00,94.62
956.00,94.60
955.00,94.60
954.00,94.60
953.00,94.60
952.00,94.59
951.00,94.59
950.00,94.60
949.00,94.63
948.00,94.64
947.00,94.64
946.00,94.62
945.00,94.60
944.00,94.58
943.00,94.57
942.00,94.55
941.00,94.54
940.00,94.54
939.00,94.53
938.00,94.53
937.00,94.53
936.00,94.51
935.00,94.48
934.00,94.44
933.00,94.40
932.00,94.39
931.00,94.39
930.00,94.40
929.00,94.42
928.00,94.44
927.00,94.46
926.00,94.47
925.00,94.46
924.00,94.44
923.00,94.43
922.00,94.44
921.00,94.45
920.00,94.47
919.00,94.48
918.00,94.51
917.00,94.53
916.00,94.54
915.00,94.53
914.00,94.52
913.00,94.51
912.00,94.51
911.00,94.51
910.00,94.52
909.00,94.53
908.00,94.54
907.00,94.55
906.00,94.57
905.00,94.58
904.00,94.60
903.00,94.60
902.00,94.59
901.00,94.55
900.00,94.50
899.00,94.47
898.00,94.48
897.00,94.54
896.00,94.60
895.00,94.64
894.00,94.64
893.00,94.61
892.00,94.56
891.00,94.51
890.00,94.47
889.00,94.45
888.00,94.43
887.00,94.43
886.00,94.44
885.00,94.45
884.00,94.45
883.00,94.43
882.00,94.39
881.00,94.34
880.00,94.29
879.00,94.25
878.00,94.23
877.00,94.26
876.00,94.31
875.00,94.34
874.00,94.35
873.00,94.34
872.00,94.32
871.00,94.29
870.00,94.25
869.00,94.22
868.00,94.21
867.00,94.21
866.00,94.22
865.00,94.25
864.00,94.29
863.00,94.31
862.00,94.29
861.00,94.24
860.00,94.15
859.00,94.06
858.00,93.97
857.00,93.92
856.00,93.91
855.00,93.94
854.00,93.96
853.00,93.95
852.00,93.91
851.00,93.86
850.00,93.81
849.00,93.76
848.00,93.70
847.00,93.63
846.00,93.58
845.00,93.54
844.00,93.53
843.00,93.52
842.00,93.52
841.00,93.50
840.00,93.47
839.00,93.43
838.00,93.38
837.00,93.32
836.00,93.27
835.00,93.23
834.00,93.21
833.00,93.19
832.00,93.16
831.00,93.13
830.00,93.10
829.00,93.09
828.00,93.08
827.00,93.05
826.00,93.01
825.00,92.98
824.00,92.98
823.00,93.01
822.00,93.02
821.00,93.01
820.00,92.99
819.00,92.98
818.00,92.97
817.00,92.93
816.00,92.85
815.00,92.77
814.00,92.71
813.00,92.68
812.00,92.68
811.00,92.70
810.00,92.71
809.00,92.70
808.00,92.65
807.00,92.59
806.00,92.52
805.00,92.44
804.00,92.35
803.00,92.26
802.00,92.19
801.00,92.16
800.00,92.17
799.00,92.21
798.00,92.24
797.00,92.22
796.00,92.15
795.00,92.06
794.00,91.98
793.00,91.91
792.00,91.87
791.00,91.83
790.00,91.81
789.00,91.80
788.00,91.79
787.00,91.77
786.00,91.75
785.00,91.71
784.00,91.66
783.00,91.63
782.00,91.61
781.00,91.61
780.00,91.61
779.00,91.59
778.00,91.55
777.00,91.47
776.00,91.37
775.00,91.29
774.00,91.25
773.00,91.24
772.00,91.22
771.00,91.19
770.00,91.15
769.00,91.11
768.00,91.06
767.00,91.01
766.00,90.96
765.00,90.88
764.00,90.80
763.00,90.71
762.00,90.64
761.00,90.60
760.00,90.59
759.00,90.60
758.00,90.60
757.00,90.58
756.00,90.53
755.00,90.47
754.00,90.41
753.00,90.33
752.00,90.23
751.00,90.15
750.00,90.09
749.00,90.08
748.00,90.09
747.00,90.12
746.00,90.13
745.00,90.12
744.00,90.10
743.00,90.06
742.00,90.03
741.00,90.00
740.00,89.95
739.00,89.90
738.00,89.83
737.00,89.74
736.00,89.65
735.00,89.58
734.00,89.57
733.00,89.58
732.00,89.57
731.00,89.54
730.00,89.49
729.00,89.45
728.00,89.41
727.00,89.38
726.00,89.38
725.00,89.39
724.00,89.38
723.00,89.32
722.00,89.22
721.00,89.11
720.00,89.00
719.00,88.89
718.00,88.81
717.00,88.77
716.00,88.77
715.00,88.79
714.00,88.79
713.00,88.75
712.00,88.67
711.00,88.57
710.00,88.46
709.00,88.35
708.00,88.26
707.00,88.19
706.00,88.15
705.00,88.10
704.00,88.05
703.00,88.00
702.00,87.96
701.00,87.92
700.00,87.85
699.00,87.76
698.00,87.65
697.00,87.57
696.00,87.52
695.00,87.50
694.00,87.50
693.00,87.50
692.00,87.49
691.00,87.47
690.00,87.43
689.00,87.38
688.00,87.33
687.00,87.28
686.00,87.25
685.00,87.23
684.00,87.21
683.00,87.19
682.00,87.12
681.00,87.00
680.00,86.84
679.00,86.73
678.00,86.70
677.00,86.70
676.00,86.67
675.00,86.60
674.00,86.56
673.00,86.58
672.00,86.64
671.00,86.63
670.00,86.51
669.00,86.25
668.00,86.02
667.00,85.98
666.00,86.10
665.00,86.20
664.00,86.26
663.00,86.28
662.00,86.27
661.00,86.22
660.00,86.12
659.00,86.01
658.00,85.91
657.00,85.81
656.00,85.75
655.00,85.73
654.00,85.75
653.00,85.78
652.00,85.79
651.00,85.78
650.00,85.75
649.00,85.68
648.00,85.60
647.00,85.56
646.00,85.57
645.00,85.56
644.00,85.50
643.00,85.42
642.00,85.39
641.00,85.39
640.00,85.37
639.00,85.30
638.00,85.24
637.00,85.22
636.00,85.20
635.00,85.15
634.00,85.05
633.00,84.91
632.00,84.76
631.00,84.67
630.00,84.70
629.00,84.83
628.00,84.95
627.00,84.99
626.00,84.92
625.00,84.79
624.00,84.68
623.00,84.64
622.00,84.69
621.00,84.75
620.00,84.77
619.00,84.80
618.00,84.85
617.00,84.90
616.00,84.85
615.00,84.66
614.00,84.31
613.00,83.89
612.00,83.56
611.00,83.48
610.00,83.67
609.00,84.02
608.00,84.44
607.00,84.85
606.00,85.11
605.00,85.11
604.00,84.95
603.00,84.88
602.00,85.00
601.00,85.07
600.00,84.85
599.00,84.41
598.00,84.07
597.00,83.99
596.00,84.03
595.00,84.01
594.00,83.90
593.00,83.80
592.00,83.73
591.00,83.59
590.00,83.30
589.00,82.97
588.00,82.91
587.00,83.37
586.00,84.22
585.00,85.01
584.00,85.32
583.00,85.08
582.00,84.56
581.00,84.09
580.00,83.87
579.00,83.92
578.00,84.15
577.00,84.37
576.00,84.40
575.00,84.15
574.00,83.69
573.00,83.18
572.00,82.89
571.00,83.01
570.00,83.36
569.00,83.63
568.00,83.76
567.00,83.97
566.00,84.26
565.00,84.25
564.00,83.66
563.00,82.68
562.00,81.77
561.00,81.16
560.00,80.90
559.00,81.07
558.00,81.71
557.00,82.68
556.00,83.78
555.00,84.79
554.00,85.44
553.00,85.49
552.00,84.90
551.00,83.79
550.00,82.47
