Created as New Dataset,11.3 Red Wool Coopworth sheep 
cm-1,%T
4000.00,100.44
3999.00,100.42
3998.00,100.41
3997.00,100.40
3996.00,100.40
3995.00,100.40
3994.00,100.41
3993.00,100.42
3992.00,100.43
3991.00,100.43
3990.00,100.43
3989.00,100.43
3988.00,100.43
3987.00,100.44
3986.00,100.45
3985.00,100.46
3984.00,100.45
3983.00,100.43
3982.00,100.39
3981.00,100.36
3980.00,100.33
3979.00,100.33
3978.00,100.34
3977.00,100.37
3976.00,100.39
3975.00,100.40
3974.00,100.40
3973.00,100.40
3972.00,100.41
3971.00,100.43
3970.00,100.43
3969.00,100.43
3968.00,100.43
3967.00,100.44
3966.00,100.45
3965.00,100.46
3964.00,100.46
3963.00,100.46
3962.00,100.44
3961.00,100.43
3960.00,100.42
3959.00,100.42
3958.00,100.43
3957.00,100.45
3956.00,100.46
3955.00,100.46
3954.00,100.44
3953.00,100.42
3952.00,100.40
3951.00,100.38
3950.00,100.37
3949.00,100.38
3948.00,100.39
3947.00,100.40
3946.00,100.40
3945.00,100.39
3944.00,100.40
3943.00,100.41
3942.00,100.42
3941.00,100.41
3940.00,100.40
3939.00,100.40
3938.00,100.41
3937.00,100.42
3936.00,100.42
3935.00,100.41
3934.00,100.40
3933.00,100.40
3932.00,100.40
3931.00,100.41
3930.00,100.41
3929.00,100.42
3928.00,100.42
3927.00,100.42
3926.00,100.42
3925.00,100.43
3924.00,100.43
3923.00,100.42
3922.00,100.40
3921.00,100.39
3920.00,100.40
3919.00,100.40
3918.00,100.40
3917.00,100.39
3916.00,100.38
3915.00,100.38
3914.00,100.38
3913.00,100.38
3912.00,100.39
3911.00,100.40
3910.00,100.40
3909.00,100.39
3908.00,100.37
3907.00,100.34
3906.00,100.31
3905.00,100.29
3904.00,100.27
3903.00,100.25
3902.00,100.22
3901.00,100.18
3900.00,100.17
3899.00,100.21
3898.00,100.26
3897.00,100.30
3896.00,100.31
3895.00,100.31
3894.00,100.29
3893.00,100.27
3892.00,100.26
3891.00,100.28
3890.00,100.30
3889.00,100.27
3888.00,100.23
3887.00,100.22
3886.00,100.28
3885.00,100.34
3884.00,100.33
3883.00,100.24
3882.00,100.17
3881.00,100.17
3880.00,100.23
3879.00,100.29
3878.00,100.30
3877.00,100.28
3876.00,100.28
3875.00,100.32
3874.00,100.36
3873.00,100.35
3872.00,100.29
3871.00,100.23
3870.00,100.24
3869.00,100.27
3868.00,100.24
3867.00,100.15
3866.00,100.11
3865.00,100.15
3864.00,100.20
3863.00,100.21
3862.00,100.20
3861.00,100.20
3860.00,100.22
3859.00,100.24
3858.00,100.24
3857.00,100.22
3856.00,100.20
3855.00,100.19
3854.00,100.19
3853.00,100.20
3852.00,100.20
3851.00,100.19
3850.00,100.19
3849.00,100.23
3848.00,100.27
3847.00,100.31
3846.00,100.31
3845.00,100.29
3844.00,100.26
3843.00,100.24
3842.00,100.20
3841.00,100.16
3840.00,100.13
3839.00,100.11
3838.00,100.10
3837.00,100.10
3836.00,100.10
3835.00,100.09
3834.00,100.10
3833.00,100.12
3832.00,100.17
3831.00,100.21
3830.00,100.24
3829.00,100.23
3828.00,100.24
3827.00,100.28
3826.00,100.33
3825.00,100.32
3824.00,100.24
3823.00,100.14
3822.00,100.10
3821.00,100.14
3820.00,100.19
3819.00,100.16
3818.00,100.10
3817.00,100.10
3816.00,100.17
3815.00,100.26
3814.00,100.27
3813.00,100.25
3812.00,100.24
3811.00,100.26
3810.00,100.26
3809.00,100.24
3808.00,100.23
3807.00,100.26
3806.00,100.28
3805.00,100.22
3804.00,100.10
3803.00,100.03
3802.00,100.07
3801.00,100.17
3800.00,100.22
3799.00,100.18
3798.00,100.12
3797.00,100.13
3796.00,100.18
3795.00,100.23
3794.00,100.23
3793.00,100.23
3792.00,100.23
3791.00,100.24
3790.00,100.25
3789.00,100.24
3788.00,100.24
3787.00,100.23
3786.00,100.23
3785.00,100.23
3784.00,100.24
3783.00,100.24
3782.00,100.22
3781.00,100.21
3780.00,100.22
3779.00,100.24
3778.00,100.24
3777.00,100.21
3776.00,100.19
3775.00,100.21
3774.00,100.24
3773.00,100.26
3772.00,100.26
3771.00,100.26
3770.00,100.28
3769.00,100.28
3768.00,100.26
3767.00,100.22
3766.00,100.21
3765.00,100.23
3764.00,100.23
3763.00,100.20
3762.00,100.16
3761.00,100.16
3760.00,100.18
3759.00,100.19
3758.00,100.17
3757.00,100.15
3756.00,100.14
3755.00,100.13
3754.00,100.14
3753.00,100.17
3752.00,100.20
3751.00,100.17
3750.00,100.12
3749.00,100.09
3748.00,100.03
3747.00,99.93
3746.00,99.86
3745.00,99.92
3744.00,100.07
3743.00,100.16
3742.00,100.15
3741.00,100.11
3740.00,100.11
3739.00,100.12
3738.00,100.12
3737.00,100.08
3736.00,100.02
3735.00,99.95
3734.00,99.87
3733.00,99.86
3732.00,99.95
3731.00,100.06
3730.00,100.12
3729.00,100.12
3728.00,100.11
3727.00,100.13
3726.00,100.15
3725.00,100.15
3724.00,100.12
3723.00,100.11
3722.00,100.11
3721.00,100.11
3720.00,100.10
3719.00,100.09
3718.00,100.10
3717.00,100.13
3716.00,100.14
3715.00,100.13
3714.00,100.12
3713.00,100.12
3712.00,100.10
3711.00,100.05
3710.00,100.00
3709.00,99.98
3708.00,99.99
3707.00,100.03
3706.00,100.05
3705.00,100.05
3704.00,100.04
3703.00,100.03
3702.00,100.05
3701.00,100.07
3700.00,100.08
3699.00,100.06
3698.00,100.03
3697.00,100.03
3696.00,100.05
3695.00,100.06
3694.00,100.06
3693.00,100.04
3692.00,100.01
3691.00,99.94
3690.00,99.86
3689.00,99.84
3688.00,99.88
3687.00,99.93
3686.00,99.94
3685.00,99.92
3684.00,99.92
3683.00,99.93
3682.00,99.95
3681.00,99.97
3680.00,100.00
3679.00,100.00
3678.00,99.94
3677.00,99.84
3676.00,99.77
3675.00,99.75
3674.00,99.73
3673.00,99.66
3672.00,99.60
3671.00,99.61
3670.00,99.69
3669.00,99.76
3668.00,99.79
3667.00,99.81
3666.00,99.83
3665.00,99.85
3664.00,99.87
3663.00,99.88
3662.00,99.87
3661.00,99.85
3660.00,99.82
3659.00,99.78
3658.00,99.73
3657.00,99.71
3656.00,99.72
3655.00,99.71
3654.00,99.64
3653.00,99.54
3652.00,99.48
3651.00,99.48
3650.00,99.46
3649.00,99.39
3648.00,99.33
3647.00,99.33
3646.00,99.38
3645.00,99.44
3644.00,99.48
3643.00,99.50
3642.00,99.53
3641.00,99.54
3640.00,99.53
3639.00,99.52
3638.00,99.52
3637.00,99.51
3636.00,99.50
3635.00,99.48
3634.00,99.46
3633.00,99.40
3632.00,99.30
3631.00,99.21
3630.00,99.17
3629.00,99.18
3628.00,99.21
3627.00,99.20
3626.00,99.17
3625.00,99.16
3624.00,99.17
3623.00,99.18
3622.00,99.15
3621.00,99.11
3620.00,99.07
3619.00,99.05
3618.00,99.02
3617.00,98.99
3616.00,98.95
3615.00,98.91
3614.00,98.90
3613.00,98.89
3612.00,98.88
3611.00,98.85
3610.00,98.83
3609.00,98.83
3608.00,98.84
3607.00,98.85
3606.00,98.86
3605.00,98.86
3604.00,98.85
3603.00,98.82
3602.00,98.79
3601.00,98.75
3600.00,98.73
3599.00,98.72
3598.00,98.71
3597.00,98.69
3596.00,98.66
3595.00,98.63
3594.00,98.60
3593.00,98.58
3592.00,98.56
3591.00,98.54
3590.00,98.52
3589.00,98.51
3588.00,98.49
3587.00,98.46
3586.00,98.43
3585.00,98.41
3584.00,98.39
3583.00,98.39
3582.00,98.38
3581.00,98.37
3580.00,98.36
3579.00,98.35
3578.00,98.35
3577.00,98.34
3576.00,98.33
3575.00,98.31
3574.00,98.30
3573.00,98.28
3572.00,98.25
3571.00,98.21
3570.00,98.16
3569.00,98.12
3568.00,98.07
3567.00,98.02
3566.00,97.96
3565.00,97.93
3564.00,97.92
3563.00,97.94
3562.00,97.95
3561.00,97.94
3560.00,97.90
3559.00,97.86
3558.00,97.84
3557.00,97.83
3556.00,97.82
3555.00,97.80
3554.00,97.77
3553.00,97.74
3552.00,97.71
3551.00,97.68
3550.00,97.64
3549.00,97.61
3548.00,97.60
3547.00,97.60
3546.00,97.59
3545.00,97.56
3544.00,97.53
3543.00,97.50
3542.00,97.47
3541.00,97.45
3540.00,97.42
3539.00,97.39
3538.00,97.37
3537.00,97.36
3536.00,97.36
3535.00,97.35
3534.00,97.33
3533.00,97.32
3532.00,97.31
3531.00,97.30
3530.00,97.30
3529.00,97.30
3528.00,97.28
3527.00,97.25
3526.00,97.20
3525.00,97.16
3524.00,97.12
3523.00,97.10
3522.00,97.09
3521.00,97.07
3520.00,97.04
3519.00,97.02
3518.00,97.01
3517.00,97.00
3516.00,96.97
3515.00,96.95
3514.00,96.94
3513.00,96.94
3512.00,96.92
3511.00,96.89
3510.00,96.85
3509.00,96.82
3508.00,96.80
3507.00,96.79
3506.00,96.78
3505.00,96.78
3504.00,96.77
3503.00,96.76
3502.00,96.74
3501.00,96.72
3500.00,96.71
3499.00,96.70
3498.00,96.70
3497.00,96.67
3496.00,96.63
3495.00,96.59
3494.00,96.57
3493.00,96.57
3492.00,96.58
3491.00,96.58
3490.00,96.57
3489.00,96.55
3488.00,96.53
3487.00,96.50
3486.00,96.47
3485.00,96.44
3484.00,96.41
3483.00,96.40
3482.00,96.40
3481.00,96.39
3480.00,96.38
3479.00,96.35
3478.00,96.32
3477.00,96.29
3476.00,96.27
3475.00,96.26
3474.00,96.25
3473.00,96.25
3472.00,96.26
3471.00,96.26
3470.00,96.25
3469.00,96.23
3468.00,96.20
3467.00,96.17
3466.00,96.15
3465.00,96.13
3464.00,96.11
3463.00,96.09
3462.00,96.06
3461.00,96.03
3460.00,96.00
3459.00,95.97
3458.00,95.97
3457.00,95.97
3456.00,95.97
3455.00,95.95
3454.00,95.92
3453.00,95.89
3452.00,95.87
3451.00,95.86
3450.00,95.84
3449.00,95.83
3448.00,95.82
3447.00,95.81
3446.00,95.80
3445.00,95.79
3444.00,95.76
3443.00,95.74
3442.00,95.71
3441.00,95.69
3440.00,95.68
3439.00,95.68
3438.00,95.67
3437.00,95.65
3436.00,95.63
3435.00,95.60
3434.00,95.57
3433.00,95.53
3432.00,95.49
3431.00,95.45
3430.00,95.42
3429.00,95.42
3428.00,95.44
3427.00,95.44
3426.00,95.43
3425.00,95.40
3424.00,95.36
3423.00,95.33
3422.00,95.29
3421.00,95.26
3420.00,95.25
3419.00,95.25
3418.00,95.26
3417.00,95.26
3416.00,95.24
3415.00,95.22
3414.00,95.19
3413.00,95.16
3412.00,95.14
3411.00,95.13
3410.00,95.13
3409.00,95.12
3408.00,95.11
3407.00,95.08
3406.00,95.05
3405.00,95.02
3404.00,95.00
3403.00,94.99
3402.00,94.99
3401.00,94.97
3400.00,94.95
3399.00,94.92
3398.00,94.90
3397.00,94.89
3396.00,94.89
3395.00,94.89
3394.00,94.88
3393.00,94.87
3392.00,94.86
3391.00,94.83
3390.00,94.81
3389.00,94.80
3388.00,94.80
3387.00,94.78
3386.00,94.76
3385.00,94.71
3384.00,94.67
3383.00,94.62
3382.00,94.59
3381.00,94.57
3380.00,94.56
3379.00,94.56
3378.00,94.56
3377.00,94.54
3376.00,94.49
3375.00,94.44
3374.00,94.41
3373.00,94.40
3372.00,94.40
3371.00,94.41
3370.00,94.40
3369.00,94.39
3368.00,94.36
3367.00,94.35
3366.00,94.33
3365.00,94.32
3364.00,94.30
3363.00,94.26
3362.00,94.23
3361.00,94.20
3360.00,94.19
3359.00,94.19
3358.00,94.18
3357.00,94.18
3356.00,94.17
3355.00,94.14
3354.00,94.10
3353.00,94.05
3352.00,94.01
3351.00,93.97
3350.00,93.95
3349.00,93.92
3348.00,93.90
3347.00,93.88
3346.00,93.85
3345.00,93.82
3344.00,93.79
3343.00,93.76
3342.00,93.73
3341.00,93.71
3340.00,93.70
3339.00,93.69
3338.00,93.68
3337.00,93.67
3336.00,93.66
3335.00,93.65
3334.00,93.62
3333.00,93.59
3332.00,93.56
3331.00,93.53
3330.00,93.52
3329.00,93.52
3328.00,93.52
3327.00,93.51
3326.00,93.49
3325.00,93.46
3324.00,93.44
3323.00,93.42
3322.00,93.40
3321.00,93.38
3320.00,93.35
3319.00,93.33
3318.00,93.30
3317.00,93.27
3316.00,93.24
3315.00,93.20
3314.00,93.17
3313.00,93.15
3312.00,93.13
3311.00,93.12
3310.00,93.11
3309.00,93.11
3308.00,93.10
3307.00,93.09
3306.00,93.05
3305.00,93.00
3304.00,92.95
3303.00,92.91
3302.00,92.88
3301.00,92.85
3300.00,92.82
3299.00,92.79
3298.00,92.77
3297.00,92.77
3296.00,92.76
3295.00,92.75
3294.00,92.73
3293.00,92.71
3292.00,92.69
3291.00,92.67
3290.00,92.66
3289.00,92.65
3288.00,92.65
3287.00,92.64
3286.00,92.64
3285.00,92.64
3284.00,92.64
3283.00,92.63
3282.00,92.62
3281.00,92.61
3280.00,92.60
3279.00,92.61
3278.00,92.62
3277.00,92.63
3276.00,92.64
3275.00,92.63
3274.00,92.62
3273.00,92.60
3272.00,92.59
3271.00,92.59
3270.00,92.59
3269.00,92.60
3268.00,92.61
3267.00,92.62
3266.00,92.63
3265.00,92.65
3264.00,92.67
3263.00,92.70
3262.00,92.72
3261.00,92.74
3260.00,92.75
3259.00,92.75
3258.00,92.76
3257.00,92.77
3256.00,92.79
3255.00,92.82
3254.00,92.85
3253.00,92.88
3252.00,92.91
3251.00,92.92
3250.00,92.93
3249.00,92.94
3248.00,92.96
3247.00,92.99
3246.00,93.01
3245.00,93.04
3244.00,93.06
3243.00,93.08
3242.00,93.10
3241.00,93.13
3240.00,93.16
3239.00,93.20
3238.00,93.23
3237.00,93.26
3236.00,93.29
3235.00,93.32
3234.00,93.33
3233.00,93.33
3232.00,93.31
3231.00,93.31
3230.00,93.32
3229.00,93.33
3228.00,93.35
3227.00,93.38
3226.00,93.41
3225.00,93.44
3224.00,93.46
3223.00,93.46
3222.00,93.46
3221.00,93.46
3220.00,93.48
3219.00,93.51
3218.00,93.53
3217.00,93.56
3216.00,93.57
3215.00,93.57
3214.00,93.56
3213.00,93.57
3212.00,93.59
3211.00,93.63
3210.00,93.67
3209.00,93.70
3208.00,93.72
3207.00,93.74
3206.00,93.75
3205.00,93.76
3204.00,93.76
3203.00,93.75
3202.00,93.76
3201.00,93.79
3200.00,93.82
3199.00,93.85
3198.00,93.88
3197.00,93.90
3196.00,93.92
3195.00,93.94
3194.00,93.97
3193.00,94.00
3192.00,94.04
3191.00,94.07
3190.00,94.10
3189.00,94.12
3188.00,94.14
3187.00,94.16
3186.00,94.17
3185.00,94.19
3184.00,94.21
3183.00,94.24
3182.00,94.27
3181.00,94.29
3180.00,94.30
3179.00,94.31
3178.00,94.31
3177.00,94.33
3176.00,94.36
3175.00,94.39
3174.00,94.43
3173.00,94.45
3172.00,94.48
3171.00,94.50
3170.00,94.53
3169.00,94.56
3168.00,94.59
3167.00,94.62
3166.00,94.66
3165.00,94.70
3164.00,94.74
3163.00,94.77
3162.00,94.79
3161.00,94.82
3160.00,94.84
3159.00,94.87
3158.00,94.91
3157.00,94.93
3156.00,94.95
3155.00,94.96
3154.00,94.97
3153.00,94.99
3152.00,95.02
3151.00,95.06
3150.00,95.10
3149.00,95.13
3148.00,95.17
3147.00,95.20
3146.00,95.21
3145.00,95.23
3144.00,95.26
3143.00,95.29
3142.00,95.33
3141.00,95.37
3140.00,95.40
3139.00,95.41
3138.00,95.42
3137.00,95.43
3136.00,95.43
3135.00,95.45
3134.00,95.48
3133.00,95.51
3132.00,95.55
3131.00,95.57
3130.00,95.60
3129.00,95.61
3128.00,95.62
3127.00,95.62
3126.00,95.63
3125.00,95.64
3124.00,95.65
3123.00,95.67
3122.00,95.68
3121.00,95.69
3120.00,95.71
3119.00,95.74
3118.00,95.78
3117.00,95.81
3116.00,95.82
3115.00,95.83
3114.00,95.83
3113.00,95.84
3112.00,95.86
3111.00,95.88
3110.00,95.89
3109.00,95.88
3108.00,95.87
3107.00,95.84
3106.00,95.83
3105.00,95.82
3104.00,95.84
3103.00,95.86
3102.00,95.86
3101.00,95.85
3100.00,95.83
3099.00,95.82
3098.00,95.81
3097.00,95.81
3096.00,95.80
3095.00,95.80
3094.00,95.80
3093.00,95.79
3092.00,95.78
3091.00,95.77
3090.00,95.78
3089.00,95.79
3088.00,95.79
3087.00,95.79
3086.00,95.79
3085.00,95.79
3084.00,95.79
3083.00,95.79
3082.00,95.79
3081.00,95.78
3080.00,95.77
3079.00,95.75
3078.00,95.74
3077.00,95.72
3076.00,95.70
3075.00,95.67
3074.00,95.65
3073.00,95.64
3072.00,95.65
3071.00,95.67
3070.00,95.69
3069.00,95.71
3068.00,95.71
3067.00,95.71
3066.00,95.72
3065.00,95.73
3064.00,95.75
3063.00,95.76
3062.00,95.75
3061.00,95.75
3060.00,95.75
3059.00,95.77
3058.00,95.80
3057.00,95.83
3056.00,95.86
3055.00,95.87
3054.00,95.86
3053.00,95.86
3052.00,95.87
3051.00,95.88
3050.00,95.91
3049.00,95.94
3048.00,95.96
3047.00,95.99
3046.00,96.02
3045.00,96.05
3044.00,96.09
3043.00,96.11
3042.00,96.12
3041.00,96.12
3040.00,96.13
3039.00,96.15
3038.00,96.18
3037.00,96.20
3036.00,96.21
3035.00,96.22
3034.00,96.24
3033.00,96.26
3032.00,96.28
3031.00,96.30
3030.00,96.30
3029.00,96.31
3028.00,96.33
3027.00,96.36
3026.00,96.39
3025.00,96.42
3024.00,96.44
3023.00,96.47
3022.00,96.50
3021.00,96.52
3020.00,96.53
3019.00,96.53
3018.00,96.53
3017.00,96.52
3016.00,96.53
3015.00,96.54
3014.00,96.56
3013.00,96.57
3012.00,96.58
3011.00,96.59
3010.00,96.59
3009.00,96.60
3008.00,96.61
3007.00,96.62
3006.00,96.63
3005.00,96.62
3004.00,96.62
3003.00,96.61
3002.00,96.60
3001.00,96.60
3000.00,96.60
2999.00,96.60
2998.00,96.60
2997.00,96.58
2996.00,96.57
2995.00,96.56
2994.00,96.56
2993.00,96.55
2992.00,96.54
2991.00,96.52
2990.00,96.49
2989.00,96.46
2988.00,96.41
2987.00,96.36
2986.00,96.32
2985.00,96.29
2984.00,96.27
2983.00,96.24
2982.00,96.19
2981.00,96.14
2980.00,96.09
2979.00,96.05
2978.00,96.02
2977.00,95.99
2976.00,95.95
2975.00,95.90
2974.00,95.85
2973.00,95.81
2972.00,95.78
2971.00,95.75
2970.00,95.73
2969.00,95.72
2968.00,95.70
2967.00,95.68
2966.00,95.65
2965.00,95.61
2964.00,95.57
2963.00,95.56
2962.00,95.56
2961.00,95.55
2960.00,95.55
2959.00,95.55
2958.00,95.54
2957.00,95.54
2956.00,95.54
2955.00,95.56
2954.00,95.58
2953.00,95.60
2952.00,95.61
2951.00,95.62
2950.00,95.62
2949.00,95.62
2948.00,95.62
2947.00,95.60
2946.00,95.57
2945.00,95.54
2944.00,95.50
2943.00,95.47
2942.00,95.44
2941.00,95.42
2940.00,95.39
2939.00,95.37
2938.00,95.35
2937.00,95.32
2936.00,95.28
2935.00,95.22
2934.00,95.17
2933.00,95.15
2932.00,95.14
2931.00,95.12
2930.00,95.07
2929.00,95.01
2928.00,94.96
2927.00,94.93
2926.00,94.91
2925.00,94.89
2924.00,94.88
2923.00,94.87
2922.00,94.87
2921.00,94.88
2920.00,94.90
2919.00,94.92
2918.00,94.96
2917.00,95.03
2916.00,95.12
2915.00,95.23
2914.00,95.35
2913.00,95.46
2912.00,95.57
2911.00,95.68
2910.00,95.78
2909.00,95.87
2908.00,95.94
2907.00,96.01
2906.00,96.06
2905.00,96.10
2904.00,96.13
2903.00,96.16
2902.00,96.19
2901.00,96.22
2900.00,96.25
2899.00,96.29
2898.00,96.32
2897.00,96.36
2896.00,96.38
2895.00,96.40
2894.00,96.41
2893.00,96.43
2892.00,96.45
2891.00,96.47
2890.00,96.48
2889.00,96.48
2888.00,96.48
2887.00,96.49
2886.00,96.50
2885.00,96.52
2884.00,96.53
2883.00,96.53
2882.00,96.54
2881.00,96.54
2880.00,96.53
2879.00,96.52
2878.00,96.52
2877.00,96.51
2876.00,96.52
2875.00,96.53
2874.00,96.55
2873.00,96.58
2872.00,96.60
2871.00,96.63
2870.00,96.64
2869.00,96.65
2868.00,96.68
2867.00,96.71
2866.00,96.75
2865.00,96.78
2864.00,96.81
2863.00,96.81
2862.00,96.81
2861.00,96.80
2860.00,96.77
2859.00,96.74
2858.00,96.69
2857.00,96.65
2856.00,96.62
2855.00,96.60
2854.00,96.57
2853.00,96.54
2852.00,96.52
2851.00,96.53
2850.00,96.57
2849.00,96.63
2848.00,96.72
2847.00,96.82
2846.00,96.93
2845.00,97.03
2844.00,97.14
2843.00,97.24
2842.00,97.33
2841.00,97.41
2840.00,97.48
2839.00,97.53
2838.00,97.57
2837.00,97.60
2836.00,97.62
2835.00,97.64
2834.00,97.66
2833.00,97.68
2832.00,97.70
2831.00,97.71
2830.00,97.72
2829.00,97.75
2828.00,97.78
2827.00,97.82
2826.00,97.84
2825.00,97.85
2824.00,97.84
2823.00,97.84
2822.00,97.84
2821.00,97.85
2820.00,97.85
2819.00,97.86
2818.00,97.86
2817.00,97.86
2816.00,97.86
2815.00,97.88
2814.00,97.90
2813.00,97.92
2812.00,97.94
2811.00,97.95
2810.00,97.95
2809.00,97.95
2808.00,97.95
2807.00,97.95
2806.00,97.96
2805.00,97.98
2804.00,98.00
2803.00,98.03
2802.00,98.04
2801.00,98.05
2800.00,98.06
2799.00,98.07
2798.00,98.08
2797.00,98.09
2796.00,98.10
2795.00,98.11
2794.00,98.13
2793.00,98.14
2792.00,98.15
2791.00,98.15
2790.00,98.14
2789.00,98.13
2788.00,98.12
2787.00,98.12
2786.00,98.14
2785.00,98.16
2784.00,98.16
2783.00,98.17
2782.00,98.17
2781.00,98.18
2780.00,98.19
2779.00,98.21
2778.00,98.23
2777.00,98.24
2776.00,98.27
2775.00,98.29
2774.00,98.30
2773.00,98.31
2772.00,98.33
2771.00,98.35
2770.00,98.38
2769.00,98.39
2768.00,98.40
2767.00,98.39
2766.00,98.38
2765.00,98.37
2764.00,98.38
2763.00,98.39
2762.00,98.41
2761.00,98.42
2760.00,98.42
2759.00,98.41
2758.00,98.41
2757.00,98.42
2756.00,98.42
2755.00,98.42
2754.00,98.42
2753.00,98.42
2752.00,98.43
2751.00,98.45
2750.00,98.47
2749.00,98.48
2748.00,98.50
2747.00,98.50
2746.00,98.50
2745.00,98.49
2744.00,98.48
2743.00,98.47
2742.00,98.47
2741.00,98.48
2740.00,98.50
2739.00,98.52
2738.00,98.53
2737.00,98.53
2736.00,98.54
2735.00,98.55
2734.00,98.55
2733.00,98.56
2732.00,98.57
2731.00,98.58
2730.00,98.58
2729.00,98.58
2728.00,98.58
2727.00,98.59
2726.00,98.60
2725.00,98.60
2724.00,98.61
2723.00,98.61
2722.00,98.62
2721.00,98.62
2720.00,98.63
2719.00,98.63
2718.00,98.64
2717.00,98.65
2716.00,98.67
2715.00,98.68
2714.00,98.68
2713.00,98.67
2712.00,98.67
2711.00,98.67
2710.00,98.68
2709.00,98.68
2708.00,98.68
2707.00,98.68
2706.00,98.69
2705.00,98.69
2704.00,98.70
2703.00,98.71
2702.00,98.72
2701.00,98.71
2700.00,98.70
2699.00,98.68
2698.00,98.68
2697.00,98.69
2696.00,98.71
2695.00,98.73
2694.00,98.75
2693.00,98.77
2692.00,98.78
2691.00,98.79
2690.00,98.79
2689.00,98.79
2688.00,98.79
2687.00,98.79
2686.00,98.78
2685.00,98.78
2684.00,98.78
2683.00,98.77
2682.00,98.78
2681.00,98.79
2680.00,98.80
2679.00,98.81
2678.00,98.81
2677.00,98.81
2676.00,98.82
2675.00,98.82
2674.00,98.83
2673.00,98.84
2672.00,98.85
2671.00,98.85
2670.00,98.86
2669.00,98.86
2668.00,98.87
2667.00,98.87
2666.00,98.88
2665.00,98.88
2664.00,98.89
2663.00,98.89
2662.00,98.88
2661.00,98.87
2660.00,98.86
2659.00,98.84
2658.00,98.83
2657.00,98.82
2656.00,98.81
2655.00,98.81
2654.00,98.81
2653.00,98.81
2652.00,98.80
2651.00,98.79
2650.00,98.78
2649.00,98.78
2648.00,98.79
2647.00,98.80
2646.00,98.80
2645.00,98.80
2644.00,98.80
2643.00,98.80
2642.00,98.80
2641.00,98.81
2640.00,98.82
2639.00,98.81
2638.00,98.80
2637.00,98.79
2636.00,98.78
2635.00,98.78
2634.00,98.78
2633.00,98.77
2632.00,98.78
2631.00,98.78
2630.00,98.79
2629.00,98.79
2628.00,98.78
2627.00,98.77
2626.00,98.76
2625.00,98.77
2624.00,98.77
2623.00,98.77
2622.00,98.77
2621.00,98.77
2620.00,98.77
2619.00,98.77
2618.00,98.77
2617.00,98.76
2616.00,98.75
2615.00,98.74
2614.00,98.73
2613.00,98.73
2612.00,98.72
2611.00,98.71
2610.00,98.70
2609.00,98.70
2608.00,98.70
2607.00,98.71
2606.00,98.72
2605.00,98.71
2604.00,98.71
2603.00,98.72
2602.00,98.73
2601.00,98.74
2600.00,98.75
2599.00,98.74
2598.00,98.73
2597.00,98.73
2596.00,98.74
2595.00,98.75
2594.00,98.76
2593.00,98.75
2592.00,98.74
2591.00,98.75
2590.00,98.76
2589.00,98.77
2588.00,98.77
2587.00,98.77
2586.00,98.78
2585.00,98.78
2584.00,98.78
2583.00,98.78
2582.00,98.77
2581.00,98.77
2580.00,98.78
2579.00,98.80
2578.00,98.82
2577.00,98.84
2576.00,98.83
2575.00,98.81
2574.00,98.78
2573.00,98.76
2572.00,98.75
2571.00,98.74
2570.00,98.74
2569.00,98.75
2568.00,98.75
2567.00,98.74
2566.00,98.72
2565.00,98.72
2564.00,98.73
2563.00,98.76
2562.00,98.79
2561.00,98.80
2560.00,98.80
2559.00,98.81
2558.00,98.81
2557.00,98.80
2556.00,98.78
2555.00,98.76
2554.00,98.75
2553.00,98.74
2552.00,98.74
2551.00,98.75
2550.00,98.75
2549.00,98.74
2548.00,98.71
2547.00,98.71
2546.00,98.72
2545.00,98.74
2544.00,98.77
2543.00,98.78
2542.00,98.77
2541.00,98.76
2540.00,98.76
2539.00,98.77
2538.00,98.77
2537.00,98.75
2536.00,98.74
2535.00,98.73
2534.00,98.74
2533.00,98.74
2532.00,98.73
2531.00,98.73
2530.00,98.73
2529.00,98.74
2528.00,98.75
2527.00,98.75
2526.00,98.77
2525.00,98.78
2524.00,98.80
2523.00,98.80
2522.00,98.80
2521.00,98.79
2520.00,98.79
2519.00,98.80
2518.00,98.80
2517.00,98.80
2516.00,98.80
2515.00,98.81
2514.00,98.83
2513.00,98.84
2512.00,98.85
2511.00,98.84
2510.00,98.83
2509.00,98.82
2508.00,98.81
2507.00,98.82
2506.00,98.82
2505.00,98.82
2504.00,98.83
2503.00,98.84
2502.00,98.85
2501.00,98.84
2500.00,98.84
2499.00,98.84
2498.00,98.84
2497.00,98.83
2496.00,98.82
2495.00,98.81
2494.00,98.82
2493.00,98.83
2492.00,98.83
2491.00,98.83
2490.00,98.82
2489.00,98.82
2488.00,98.83
2487.00,98.83
2486.00,98.82
2485.00,98.82
2484.00,98.82
2483.00,98.82
2482.00,98.81
2481.00,98.81
2480.00,98.82
2479.00,98.83
2478.00,98.85
2477.00,98.86
2476.00,98.87
2475.00,98.87
2474.00,98.87
2473.00,98.86
2472.00,98.85
2471.00,98.84
2470.00,98.85
2469.00,98.86
2468.00,98.88
2467.00,98.89
2466.00,98.88
2465.00,98.87
2464.00,98.85
2463.00,98.83
2462.00,98.83
2461.00,98.83
2460.00,98.83
2459.00,98.83
2458.00,98.83
2457.00,98.84
2456.00,98.85
2455.00,98.87
2454.00,98.89
2453.00,98.88
2452.00,98.87
2451.00,98.85
2450.00,98.84
2449.00,98.84
2448.00,98.84
2447.00,98.85
2446.00,98.85
2445.00,98.84
2444.00,98.83
2443.00,98.83
2442.00,98.84
2441.00,98.85
2440.00,98.85
2439.00,98.86
2438.00,98.87
2437.00,98.90
2436.00,98.93
2435.00,98.95
2434.00,98.93
2433.00,98.91
2432.00,98.89
2431.00,98.89
2430.00,98.91
2429.00,98.93
2428.00,98.96
2427.00,98.99
2426.00,99.01
2425.00,99.01
2424.00,99.00
2423.00,98.98
2422.00,98.98
2421.00,98.98
2420.00,98.99
2419.00,98.99
2418.00,98.99
2417.00,98.96
2416.00,98.93
2415.00,98.91
2414.00,98.91
2413.00,98.93
2412.00,98.96
2411.00,99.00
2410.00,99.02
2409.00,99.01
2408.00,98.99
2407.00,98.99
2406.00,99.00
2405.00,99.02
2404.00,99.02
2403.00,99.02
2402.00,99.00
2401.00,98.98
2400.00,98.98
2399.00,98.99
2398.00,99.00
2397.00,99.00
2396.00,99.00
2395.00,99.00
2394.00,99.01
2393.00,99.02
2392.00,99.03
2391.00,99.04
2390.00,99.04
2389.00,99.04
2388.00,99.04
2387.00,99.03
2386.00,99.02
2385.00,99.01
2384.00,99.01
2383.00,99.02
2382.00,99.03
2381.00,99.04
2380.00,99.05
2379.00,99.06
2378.00,99.06
2377.00,99.06
2376.00,99.05
2375.00,99.04
2374.00,99.02
2373.00,99.00
2372.00,99.00
2371.00,99.03
2370.00,99.08
2369.00,99.11
2368.00,99.11
2367.00,99.10
2366.00,99.10
2365.00,99.11
2364.00,99.12
2363.00,99.11
2362.00,99.04
2361.00,98.94
2360.00,98.85
2359.00,98.80
2358.00,98.81
2357.00,98.85
2356.00,98.89
2355.00,98.91
2354.00,98.90
2353.00,98.84
2352.00,98.78
2351.00,98.77
2350.00,98.86
2349.00,99.04
2348.00,99.22
2347.00,99.34
2346.00,99.32
2345.00,99.18
2344.00,99.04
2343.00,98.94
2342.00,98.90
2341.00,98.88
2340.00,98.87
2339.00,98.87
2338.00,98.88
2337.00,98.89
2336.00,98.93
2335.00,98.98
2334.00,99.01
2333.00,99.00
2332.00,98.94
2331.00,98.88
2330.00,98.82
2329.00,98.78
2328.00,98.76
2327.00,98.75
2326.00,98.75
2325.00,98.74
2324.00,98.74
2323.00,98.74
2322.00,98.74
2321.00,98.71
2320.00,98.67
2319.00,98.62
2318.00,98.61
2317.00,98.63
2316.00,98.68
2315.00,98.73
2314.00,98.75
2313.00,98.73
2312.00,98.70
2311.00,98.68
2310.00,98.68
2309.00,98.69
2308.00,98.71
2307.00,98.73
2306.00,98.74
2305.00,98.73
2304.00,98.72
2303.00,98.71
2302.00,98.72
2301.00,98.74
2300.00,98.75
2299.00,98.75
2298.00,98.73
2297.00,98.72
2296.00,98.72
2295.00,98.72
2294.00,98.72
2293.00,98.70
2292.00,98.69
2291.00,98.67
2290.00,98.67
2289.00,98.68
2288.00,98.68
2287.00,98.67
2286.00,98.65
2285.00,98.62
2284.00,98.61
2283.00,98.61
2282.00,98.63
2281.00,98.66
2280.00,98.68
2279.00,98.69
2278.00,98.69
2277.00,98.68
2276.00,98.66
2275.00,98.64
2274.00,98.63
2273.00,98.64
2272.00,98.65
2271.00,98.65
2270.00,98.64
2269.00,98.63
2268.00,98.63
2267.00,98.64
2266.00,98.64
2265.00,98.63
2264.00,98.61
2263.00,98.59
2262.00,98.55
2261.00,98.52
2260.00,98.48
2259.00,98.45
2258.00,98.44
2257.00,98.44
2256.00,98.45
2255.00,98.46
2254.00,98.45
2253.00,98.43
2252.00,98.39
2251.00,98.35
2250.00,98.33
2249.00,98.33
2248.00,98.36
2247.00,98.40
2246.00,98.44
2245.00,98.47
2244.00,98.49
2243.00,98.49
2242.00,98.47
2241.00,98.44
2240.00,98.43
2239.00,98.44
2238.00,98.44
2237.00,98.43
2236.00,98.40
2235.00,98.37
2234.00,98.36
2233.00,98.36
2232.00,98.37
2231.00,98.39
2230.00,98.38
2229.00,98.35
2228.00,98.30
2227.00,98.26
2226.00,98.23
2225.00,98.20
2224.00,98.17
2223.00,98.16
2222.00,98.16
2221.00,98.18
2220.00,98.20
2219.00,98.19
2218.00,98.16
2217.00,98.11
2216.00,98.07
2215.00,98.05
2214.00,98.07
2213.00,98.09
2212.00,98.11
2211.00,98.11
2210.00,98.08
2209.00,98.06
2208.00,98.06
2207.00,98.07
2206.00,98.08
2205.00,98.09
2204.00,98.11
2203.00,98.17
2202.00,98.24
2201.00,98.26
2200.00,98.22
2199.00,98.13
2198.00,98.04
2197.00,97.99
2196.00,97.98
2195.00,98.00
2194.00,98.05
2193.00,98.08
2192.00,98.09
2191.00,98.06
2190.00,98.01
2189.00,97.97
2188.00,97.95
2187.00,97.92
2186.00,97.89
2185.00,97.90
2184.00,97.94
2183.00,98.00
2182.00,98.01
2181.00,97.96
2180.00,97.90
2179.00,97.88
2178.00,97.89
2177.00,97.90
2176.00,97.91
2175.00,97.91
2174.00,97.90
2173.00,97.87
2172.00,97.86
2171.00,97.86
2170.00,97.86
2169.00,97.84
2168.00,97.80
2167.00,97.76
2166.00,97.71
2165.00,97.68
2164.00,97.65
2163.00,97.64
2162.00,97.64
2161.00,97.66
2160.00,97.71
2159.00,97.81
2158.00,97.90
2157.00,97.96
2156.00,97.97
2155.00,97.99
2154.00,98.03
2153.00,98.06
2152.00,98.07
2151.00,98.06
2150.00,98.04
2149.00,98.02
2148.00,98.03
2147.00,98.08
2146.00,98.13
2145.00,98.17
2144.00,98.18
2143.00,98.19
2142.00,98.18
2141.00,98.17
2140.00,98.15
2139.00,98.14
2138.00,98.15
2137.00,98.19
2136.00,98.25
2135.00,98.31
2134.00,98.36
2133.00,98.40
2132.00,98.43
2131.00,98.46
2130.00,98.46
2129.00,98.44
2128.00,98.42
2127.00,98.42
2126.00,98.45
2125.00,98.49
2124.00,98.52
2123.00,98.53
2122.00,98.50
2121.00,98.47
2120.00,98.46
2119.00,98.48
2118.00,98.51
2117.00,98.51
2116.00,98.49
2115.00,98.46
2114.00,98.46
2113.00,98.45
2112.00,98.43
2111.00,98.39
2110.00,98.35
2109.00,98.34
2108.00,98.35
2107.00,98.38
2106.00,98.42
2105.00,98.43
2104.00,98.43
2103.00,98.43
2102.00,98.45
2101.00,98.46
2100.00,98.46
2099.00,98.46
2098.00,98.46
2097.00,98.46
2096.00,98.45
2095.00,98.44
2094.00,98.42
2093.00,98.41
2092.00,98.41
2091.00,98.41
2090.00,98.43
2089.00,98.44
2088.00,98.45
2087.00,98.46
2086.00,98.48
2085.00,98.49
2084.00,98.48
2083.00,98.47
2082.00,98.45
2081.00,98.41
2080.00,98.37
2079.00,98.33
2078.00,98.31
2077.00,98.31
2076.00,98.33
2075.00,98.37
2074.00,98.40
2073.00,98.41
2072.00,98.39
2071.00,98.37
2070.00,98.36
2069.00,98.36
2068.00,98.34
2067.00,98.30
2066.00,98.25
2065.00,98.21
2064.00,98.20
2063.00,98.23
2062.00,98.29
2061.00,98.37
2060.00,98.41
2059.00,98.39
2058.00,98.35
2057.00,98.31
2056.00,98.31
2055.00,98.31
2054.00,98.28
2053.00,98.22
2052.00,98.16
2051.00,98.13
2050.00,98.11
2049.00,98.09
2048.00,98.05
2047.00,98.01
2046.00,97.98
2045.00,97.98
2044.00,97.99
2043.00,98.02
2042.00,98.03
2041.00,98.00
2040.00,97.96
2039.00,97.93
2038.00,97.92
2037.00,97.92
2036.00,97.94
2035.00,97.99
2034.00,98.04
2033.00,98.06
2032.00,98.03
2031.00,98.00
2030.00,97.99
2029.00,98.00
2028.00,98.00
2027.00,97.97
2026.00,97.94
2025.00,97.92
2024.00,97.92
2023.00,97.94
2022.00,97.97
2021.00,98.01
2020.00,98.06
2019.00,98.10
2018.00,98.12
2017.00,98.12
2016.00,98.12
2015.00,98.13
2014.00,98.15
2013.00,98.18
2012.00,98.18
2011.00,98.14
2010.00,98.08
2009.00,98.04
2008.00,98.03
2007.00,98.07
2006.00,98.13
2005.00,98.16
2004.00,98.18
2003.00,98.18
2002.00,98.18
2001.00,98.17
2000.00,98.18
1999.00,98.18
1998.00,98.16
1997.00,98.11
1996.00,98.07
1995.00,98.07
1994.00,98.10
1993.00,98.15
1992.00,98.18
1991.00,98.18
1990.00,98.14
1989.00,98.11
1988.00,98.11
1987.00,98.14
1986.00,98.17
1985.00,98.16
1984.00,98.10
1983.00,98.02
1982.00,97.95
1981.00,97.91
1980.00,97.90
1979.00,97.93
1978.00,97.96
1977.00,98.02
1976.00,98.09
1975.00,98.16
1974.00,98.20
1973.00,98.19
1972.00,98.15
1971.00,98.12
1970.00,98.10
1969.00,98.10
1968.00,98.11
1967.00,98.13
1966.00,98.16
1965.00,98.18
1964.00,98.17
1963.00,98.15
1962.00,98.14
1961.00,98.15
1960.00,98.18
1959.00,98.22
1958.00,98.25
1957.00,98.28
1956.00,98.31
1955.00,98.37
1954.00,98.43
1953.00,98.47
1952.00,98.48
1951.00,98.47
1950.00,98.46
1949.00,98.46
1948.00,98.48
1947.00,98.49
1946.00,98.50
1945.00,98.50
1944.00,98.50
1943.00,98.49
1942.00,98.47
1941.00,98.45
1940.00,98.45
1939.00,98.46
1938.00,98.48
1937.00,98.51
1936.00,98.55
1935.00,98.58
1934.00,98.59
1933.00,98.57
1932.00,98.55
1931.00,98.55
1930.00,98.56
1929.00,98.59
1928.00,98.61
1927.00,98.62
1926.00,98.62
1925.00,98.60
1924.00,98.60
1923.00,98.60
1922.00,98.61
1921.00,98.62
1920.00,98.63
1919.00,98.67
1918.00,98.72
1917.00,98.73
1916.00,98.72
1915.00,98.70
1914.00,98.69
1913.00,98.68
1912.00,98.68
1911.00,98.68
1910.00,98.68
1909.00,98.69
1908.00,98.70
1907.00,98.72
1906.00,98.75
1905.00,98.77
1904.00,98.79
1903.00,98.80
1902.00,98.79
1901.00,98.77
1900.00,98.75
1899.00,98.73
1898.00,98.72
1897.00,98.72
1896.00,98.72
1895.00,98.74
1894.00,98.75
1893.00,98.75
1892.00,98.75
1891.00,98.77
1890.00,98.80
1889.00,98.82
1888.00,98.83
1887.00,98.81
1886.00,98.79
1885.00,98.77
1884.00,98.77
1883.00,98.79
1882.00,98.81
1881.00,98.82
1880.00,98.83
1879.00,98.83
1878.00,98.83
1877.00,98.81
1876.00,98.78
1875.00,98.78
1874.00,98.79
1873.00,98.80
1872.00,98.81
1871.00,98.81
1870.00,98.80
1869.00,98.79
1868.00,98.80
1867.00,98.82
1866.00,98.84
1865.00,98.85
1864.00,98.84
1863.00,98.83
1862.00,98.81
1861.00,98.80
1860.00,98.80
1859.00,98.83
1858.00,98.86
1857.00,98.87
1856.00,98.88
1855.00,98.88
1854.00,98.87
1853.00,98.87
1852.00,98.86
1851.00,98.86
1850.00,98.87
1849.00,98.86
1848.00,98.84
1847.00,98.82
1846.00,98.81
1845.00,98.81
1844.00,98.84
1843.00,98.86
1842.00,98.88
1841.00,98.87
1840.00,98.85
1839.00,98.84
1838.00,98.84
1837.00,98.85
1836.00,98.86
1835.00,98.88
1834.00,98.90
1833.00,98.90
1832.00,98.90
1831.00,98.90
1830.00,98.91
1829.00,98.91
1828.00,98.90
1827.00,98.88
1826.00,98.87
1825.00,98.86
1824.00,98.87
1823.00,98.88
1822.00,98.89
1821.00,98.89
1820.00,98.90
1819.00,98.92
1818.00,98.94
1817.00,98.94
1816.00,98.94
1815.00,98.93
1814.00,98.92
1813.00,98.92
1812.00,98.91
1811.00,98.92
1810.00,98.92
1809.00,98.90
1808.00,98.87
1807.00,98.85
1806.00,98.85
1805.00,98.86
1804.00,98.88
1803.00,98.90
1802.00,98.92
1801.00,98.93
1800.00,98.93
1799.00,98.93
1798.00,98.92
1797.00,98.89
1796.00,98.87
1795.00,98.87
1794.00,98.90
1793.00,98.92
1792.00,98.92
1791.00,98.92
1790.00,98.91
1789.00,98.91
1788.00,98.90
1787.00,98.90
1786.00,98.91
1785.00,98.91
1784.00,98.89
1783.00,98.88
1782.00,98.86
1781.00,98.85
1780.00,98.84
1779.00,98.84
1778.00,98.83
1777.00,98.82
1776.00,98.81
1775.00,98.80
1774.00,98.81
1773.00,98.81
1772.00,98.80
1771.00,98.79
1770.00,98.77
1769.00,98.76
1768.00,98.75
1767.00,98.76
1766.00,98.78
1765.00,98.80
1764.00,98.80
1763.00,98.81
1762.00,98.81
1761.00,98.80
1760.00,98.79
1759.00,98.77
1758.00,98.75
1757.00,98.73
1756.00,98.72
1755.00,98.72
1754.00,98.72
1753.00,98.71
1752.00,98.68
1751.00,98.64
1750.00,98.61
1749.00,98.59
1748.00,98.58
1747.00,98.58
1746.00,98.59
1745.00,98.58
1744.00,98.56
1743.00,98.53
1742.00,98.51
1741.00,98.48
1740.00,98.46
1739.00,98.45
1738.00,98.44
1737.00,98.42
1736.00,98.38
1735.00,98.36
1734.00,98.36
1733.00,98.35
1732.00,98.33
1731.00,98.30
1730.00,98.27
1729.00,98.24
1728.00,98.21
1727.00,98.18
1726.00,98.17
1725.00,98.16
1724.00,98.13
1723.00,98.11
1722.00,98.09
1721.00,98.05
1720.00,97.99
1719.00,97.90
1718.00,97.81
1717.00,97.72
1716.00,97.66
1715.00,97.64
1714.00,97.62
1713.00,97.56
1712.00,97.46
1711.00,97.36
1710.00,97.26
1709.00,97.16
1708.00,97.05
1707.00,96.93
1706.00,96.78
1705.00,96.61
1704.00,96.45
1703.00,96.31
1702.00,96.15
1701.00,95.93
1700.00,95.65
1699.00,95.43
1698.00,95.23
1697.00,94.97
1696.00,94.68
1695.00,94.44
1694.00,94.30
1693.00,94.18
1692.00,94.03
1691.00,93.84
1690.00,93.63
1689.00,93.41
1688.00,93.19
1687.00,92.99
1686.00,92.82
1685.00,92.60
1684.00,92.33
1683.00,92.13
1682.00,92.00
1681.00,91.87
1680.00,91.73
1679.00,91.58
1678.00,91.44
1677.00,91.29
1676.00,91.10
1675.00,90.89
1674.00,90.71
1673.00,90.56
1672.00,90.41
1671.00,90.24
1670.00,90.03
1669.00,89.80
1668.00,89.61
1667.00,89.46
1666.00,89.33
1665.00,89.21
1664.00,89.05
1663.00,88.85
1662.00,88.65
1661.00,88.47
1660.00,88.30
1659.00,88.13
1658.00,87.97
1657.00,87.81
1656.00,87.63
1655.00,87.43
1654.00,87.16
1653.00,86.84
1652.00,86.64
1651.00,86.58
1650.00,86.54
1649.00,86.45
1648.00,86.30
1647.00,86.11
1646.00,85.96
1645.00,85.86
1644.00,85.81
1643.00,85.76
1642.00,85.71
1641.00,85.65
1640.00,85.59
1639.00,85.53
1638.00,85.48
1637.00,85.43
1636.00,85.36
1635.00,85.29
1634.00,85.27
1633.00,85.27
1632.00,85.26
1631.00,85.26
1630.00,85.27
1629.00,85.28
1628.00,85.29
1627.00,85.31
1626.00,85.35
1625.00,85.41
1624.00,85.49
1623.00,85.59
1622.00,85.70
1621.00,85.82
1620.00,85.92
1619.00,86.02
1618.00,86.14
1617.00,86.31
1616.00,86.53
1615.00,86.75
1614.00,86.93
1613.00,87.11
1612.00,87.31
1611.00,87.52
1610.00,87.73
1609.00,87.93
1608.00,88.13
1607.00,88.33
1606.00,88.53
1605.00,88.73
1604.00,88.93
1603.00,89.11
1602.00,89.27
1601.00,89.41
1600.00,89.55
1599.00,89.68
1598.00,89.80
1597.00,89.93
1596.00,90.05
1595.00,90.18
1594.00,90.29
1593.00,90.39
1592.00,90.48
1591.00,90.56
1590.00,90.62
1589.00,90.67
1588.00,90.72
1587.00,90.76
1586.00,90.78
1585.00,90.79
1584.00,90.81
1583.00,90.82
1582.00,90.82
1581.00,90.81
1580.00,90.79
1579.00,90.75
1578.00,90.67
1577.00,90.59
1576.00,90.53
1575.00,90.51
1574.00,90.49
1573.00,90.46
1572.00,90.40
1571.00,90.31
1570.00,90.20
1569.00,90.10
1568.00,90.03
1567.00,89.97
1566.00,89.87
1565.00,89.74
1564.00,89.61
1563.00,89.50
1562.00,89.41
1561.00,89.36
1560.00,89.28
1559.00,89.00
1558.00,88.73
1557.00,88.61
1556.00,88.52
1555.00,88.41
1554.00,88.27
1553.00,88.15
1552.00,88.03
1551.00,87.90
1550.00,87.76
1549.00,87.64
1548.00,87.55
1547.00,87.46
1546.00,87.37
1545.00,87.27
1544.00,87.18
1543.00,87.09
1542.00,86.99
1541.00,86.85
1540.00,86.70
1539.00,86.61
1538.00,86.59
1537.00,86.60
1536.00,86.60
1535.00,86.59
1534.00,86.55
1533.00,86.50
1532.00,86.45
1531.00,86.43
1530.00,86.43
1529.00,86.44
1528.00,86.45
1527.00,86.45
1526.00,86.44
1525.00,86.43
1524.00,86.41
1523.00,86.38
1522.00,86.34
1521.00,86.31
1520.00,86.31
1519.00,86.31
1518.00,86.31
1517.00,86.30
1516.00,86.31
1515.00,86.34
1514.00,86.38
1513.00,86.43
1512.00,86.51
1511.00,86.59
1510.00,86.67
1509.00,86.74
1508.00,86.81
1507.00,86.93
1506.00,87.11
1505.00,87.30
1504.00,87.47
1503.00,87.62
1502.00,87.76
1501.00,87.90
1500.00,88.05
1499.00,88.20
1498.00,88.37
1497.00,88.56
1496.00,88.75
1495.00,88.94
1494.00,89.12
1493.00,89.30
1492.00,89.48
1491.00,89.68
1490.00,89.90
1489.00,90.11
1488.00,90.30
1487.00,90.47
1486.00,90.63
1485.00,90.77
1484.00,90.89
1483.00,90.99
1482.00,91.09
1481.00,91.18
1480.00,91.26
1479.00,91.31
1478.00,91.34
1477.00,91.36
1476.00,91.34
1475.00,91.29
1474.00,91.20
1473.00,91.09
1472.00,90.98
1471.00,90.92
1470.00,90.89
1469.00,90.86
1468.00,90.82
1467.00,90.80
1466.00,90.78
1465.00,90.78
1464.00,90.77
1463.00,90.76
1462.00,90.75
1461.00,90.72
1460.00,90.66
1459.00,90.58
1458.00,90.47
1457.00,90.37
1456.00,90.32
1455.00,90.32
1454.00,90.32
1453.00,90.31
1452.00,90.30
1451.00,90.30
1450.00,90.30
1449.00,90.30
1448.00,90.30
1447.00,90.32
1446.00,90.35
1445.00,90.40
1444.00,90.43
1443.00,90.47
1442.00,90.51
1441.00,90.56
1440.00,90.60
1439.00,90.64
1438.00,90.69
1437.00,90.74
1436.00,90.81
1435.00,90.89
1434.00,90.96
1433.00,91.03
1432.00,91.09
1431.00,91.15
1430.00,91.21
1429.00,91.26
1428.00,91.30
1427.00,91.34
1426.00,91.36
1425.00,91.38
1424.00,91.38
1423.00,91.38
1422.00,91.38
1421.00,91.37
1420.00,91.36
1419.00,91.33
1418.00,91.31
1417.00,91.29
1416.00,91.26
1415.00,91.24
1414.00,91.21
1413.00,91.18
1412.00,91.14
1411.00,91.09
1410.00,91.04
1409.00,91.00
1408.00,90.95
1407.00,90.89
1406.00,90.84
1405.00,90.79
1404.00,90.74
1403.00,90.70
1402.00,90.68
1401.00,90.66
1400.00,90.63
1399.00,90.59
1398.00,90.55
1397.00,90.53
1396.00,90.51
1395.00,90.50
1394.00,90.49
1393.00,90.49
1392.00,90.50
1391.00,90.50
1390.00,90.51
1389.00,90.53
1388.00,90.53
1387.00,90.55
1386.00,90.59
1385.00,90.64
1384.00,90.69
1383.00,90.75
1382.00,90.82
1381.00,90.88
1380.00,90.94
1379.00,91.00
1378.00,91.06
1377.00,91.12
1376.00,91.17
1375.00,91.21
1374.00,91.26
1373.00,91.31
1372.00,91.35
1371.00,91.39
1370.00,91.44
1369.00,91.49
1368.00,91.55
1367.00,91.62
1366.00,91.68
1365.00,91.75
1364.00,91.81
1363.00,91.86
1362.00,91.91
1361.00,91.97
1360.00,92.01
1359.00,92.05
1358.00,92.08
1357.00,92.10
1356.00,92.13
1355.00,92.15
1354.00,92.16
1353.00,92.18
1352.00,92.19
1351.00,92.19
1350.00,92.20
1349.00,92.21
1348.00,92.21
1347.00,92.22
1346.00,92.21
1345.00,92.21
1344.00,92.20
1343.00,92.19
1342.00,92.19
1341.00,92.20
1340.00,92.19
1339.00,92.19
1338.00,92.20
1337.00,92.21
1336.00,92.24
1335.00,92.26
1334.00,92.28
1333.00,92.29
1332.00,92.29
1331.00,92.29
1330.00,92.29
1329.00,92.30
1328.00,92.31
1327.00,92.31
1326.00,92.31
1325.00,92.29
1324.00,92.27
1323.00,92.24
1322.00,92.22
1321.00,92.20
1320.00,92.17
1319.00,92.14
1318.00,92.11
1317.00,92.08
1316.00,92.06
1315.00,92.04
1314.00,92.02
1313.00,92.02
1312.00,92.03
1311.00,92.04
1310.00,92.05
1309.00,92.04
1308.00,92.02
1307.00,92.01
1306.00,92.00
1305.00,91.99
1304.00,91.99
1303.00,91.99
1302.00,91.99
1301.00,92.00
1300.00,92.01
1299.00,92.00
1298.00,92.00
1297.00,92.00
1296.00,92.01
1295.00,92.04
1294.00,92.06
1293.00,92.07
1292.00,92.08
1291.00,92.07
1290.00,92.06
1289.00,92.06
1288.00,92.06
1287.00,92.06
1286.00,92.06
1285.00,92.06
1284.00,92.06
1283.00,92.05
1282.00,92.04
1281.00,92.03
1280.00,92.02
1279.00,92.02
1278.00,92.02
1277.00,92.02
1276.00,92.03
1275.00,92.03
1274.00,92.02
1273.00,92.01
1272.00,91.99
1271.00,91.97
1270.00,91.93
1269.00,91.90
1268.00,91.88
1267.00,91.86
1266.00,91.85
1265.00,91.83
1264.00,91.81
1263.00,91.78
1262.00,91.75
1261.00,91.71
1260.00,91.68
1259.00,91.65
1258.00,91.63
1257.00,91.60
1256.00,91.58
1255.00,91.57
1254.00,91.55
1253.00,91.52
1252.00,91.47
1251.00,91.43
1250.00,91.38
1249.00,91.34
1248.00,91.30
1247.00,91.27
1246.00,91.24
1245.00,91.22
1244.00,91.20
1243.00,91.16
1242.00,91.13
1241.00,91.11
1240.00,91.10
1239.00,91.10
1238.00,91.11
1237.00,91.11
1236.00,91.11
1235.00,91.10
1234.00,91.10
1233.00,91.11
1232.00,91.13
1231.00,91.17
1230.00,91.21
1229.00,91.24
1228.00,91.27
1227.00,91.30
1226.00,91.32
1225.00,91.35
1224.00,91.39
1223.00,91.44
1222.00,91.49
1221.00,91.54
1220.00,91.58
1219.00,91.62
1218.00,91.67
1217.00,91.72
1216.00,91.77
1215.00,91.82
1214.00,91.87
1213.00,91.90
1212.00,91.92
1211.00,91.93
1210.00,91.94
1209.00,91.96
1208.00,91.99
1207.00,92.02
1206.00,92.06
1205.00,92.10
1204.00,92.14
1203.00,92.18
1202.00,92.21
1201.00,92.24
1200.00,92.26
1199.00,92.29
1198.00,92.32
1197.00,92.35
1196.00,92.37
1195.00,92.39
1194.00,92.40
1193.00,92.41
1192.00,92.42
1191.00,92.43
1190.00,92.44
1189.00,92.45
1188.00,92.48
1187.00,92.50
1186.00,92.53
1185.00,92.57
1184.00,92.60
1183.00,92.63
1182.00,92.63
1181.00,92.63
1180.00,92.63
1179.00,92.64
1178.00,92.66
1177.00,92.68
1176.00,92.68
1175.00,92.65
1174.00,92.62
1173.00,92.60
1172.00,92.61
1171.00,92.62
1170.00,92.62
1169.00,92.63
1168.00,92.66
1167.00,92.71
1166.00,92.77
1165.00,92.81
1164.00,92.82
1163.00,92.80
1162.00,92.78
1161.00,92.78
1160.00,92.81
1159.00,92.84
1158.00,92.86
1157.00,92.87
1156.00,92.89
1155.00,92.92
1154.00,92.96
1153.00,93.00
1152.00,93.03
1151.00,93.06
1150.00,93.10
1149.00,93.15
1148.00,93.21
1147.00,93.25
1146.00,93.28
1145.00,93.31
1144.00,93.34
1143.00,93.38
1142.00,93.41
1141.00,93.42
1140.00,93.43
1139.00,93.42
1138.00,93.41
1137.00,93.40
1136.00,93.37
1135.00,93.35
1134.00,93.33
1133.00,93.32
1132.00,93.31
1131.00,93.29
1130.00,93.28
1129.00,93.28
1128.00,93.28
1127.00,93.26
1126.00,93.24
1125.00,93.22
1124.00,93.21
1123.00,93.22
1122.00,93.22
1121.00,93.22
1120.00,93.20
1119.00,93.18
1118.00,93.15
1117.00,93.14
1116.00,93.14
1115.00,93.15
1114.00,93.15
1113.00,93.14
1112.00,93.11
1111.00,93.07
1110.00,93.06
1109.00,93.09
1108.00,93.13
1107.00,93.16
1106.00,93.16
1105.00,93.14
1104.00,93.11
1103.00,93.10
1102.00,93.08
1101.00,93.07
1100.00,93.06
1099.00,93.06
1098.00,93.04
1097.00,93.00
1096.00,92.97
1095.00,92.96
1094.00,92.98
1093.00,93.00
1092.00,93.00
1091.00,92.97
1090.00,92.94
1089.00,92.90
1088.00,92.87
1087.00,92.82
1086.00,92.77
1085.00,92.71
1084.00,92.68
1083.00,92.67
1082.00,92.67
1081.00,92.65
1080.00,92.62
1079.00,92.60
1078.00,92.58
1077.00,92.55
1076.00,92.52
1075.00,92.50
1074.00,92.52
1073.00,92.57
1072.00,92.65
1071.00,92.70
1070.00,92.72
1069.00,92.71
1068.00,92.70
1067.00,92.69
1066.00,92.69
1065.00,92.69
1064.00,92.69
1063.00,92.69
1062.00,92.71
1061.00,92.74
1060.00,92.77
1059.00,92.81
1058.00,92.85
1057.00,92.88
1056.00,92.89
1055.00,92.88
1054.00,92.87
1053.00,92.89
1052.00,92.92
1051.00,92.95
1050.00,92.96
1049.00,92.97
1048.00,92.96
1047.00,92.95
1046.00,92.93
1045.00,92.90
1044.00,92.87
1043.00,92.86
1042.00,92.89
1041.00,92.92
1040.00,92.96
1039.00,92.99
1038.00,93.02
1037.00,93.06
1036.00,93.09
1035.00,93.13
1034.00,93.17
1033.00,93.21
1032.00,93.24
1031.00,93.28
1030.00,93.31
1029.00,93.35
1028.00,93.38
1027.00,93.41
1026.00,93.43
1025.00,93.46
1024.00,93.48
1023.00,93.51
1022.00,93.54
1021.00,93.58
1020.00,93.63
1019.00,93.69
1018.00,93.74
1017.00,93.79
1016.00,93.83
1015.00,93.87
1014.00,93.92
1013.00,93.97
1012.00,94.00
1011.00,94.01
1010.00,94.02
1009.00,94.03
1008.00,94.07
1007.00,94.12
1006.00,94.17
1005.00,94.22
1004.00,94.26
1003.00,94.29
1002.00,94.29
1001.00,94.29
1000.00,94.28
999.00,94.28
998.00,94.30
997.00,94.32
996.00,94.34
995.00,94.37
994.00,94.41
993.00,94.45
992.00,94.48
991.00,94.50
990.00,94.51
989.00,94.52
988.00,94.52
987.00,94.53
986.00,94.54
985.00,94.58
984.00,94.63
983.00,94.66
982.00,94.67
981.00,94.68
980.00,94.68
979.00,94.68
978.00,94.69
977.00,94.70
976.00,94.71
975.00,94.72
974.00,94.73
973.00,94.73
972.00,94.73
971.00,94.72
970.00,94.70
969.00,94.69
968.00,94.69
967.00,94.71
966.00,94.74
965.00,94.76
964.00,94.77
963.00,94.77
962.00,94.79
961.00,94.80
960.00,94.82
959.00,94.83
958.00,94.82
957.00,94.80
956.00,94.77
955.00,94.75
954.00,94.73
953.00,94.73
952.00,94.74
951.00,94.75
950.00,94.77
949.00,94.76
948.00,94.75
947.00,94.74
946.00,94.74
945.00,94.75
944.00,94.78
943.00,94.79
942.00,94.79
941.00,94.78
940.00,94.76
939.00,94.74
938.00,94.72
937.00,94.71
936.00,94.71
935.00,94.70
934.00,94.70
933.00,94.69
932.00,94.69
931.00,94.71
930.00,94.75
929.00,94.77
928.00,94.77
927.00,94.75
926.00,94.72
925.00,94.70
924.00,94.71
923.00,94.72
922.00,94.73
921.00,94.74
920.00,94.75
919.00,94.76
918.00,94.79
917.00,94.82
916.00,94.84
915.00,94.84
914.00,94.83
913.00,94.82
912.00,94.82
911.00,94.82
910.00,94.81
909.00,94.81
908.00,94.82
907.00,94.82
906.00,94.83
905.00,94.84
904.00,94.84
903.00,94.84
902.00,94.85
901.00,94.87
900.00,94.89
899.00,94.90
898.00,94.89
897.00,94.87
896.00,94.86
895.00,94.85
894.00,94.84
893.00,94.82
892.00,94.81
891.00,94.81
890.00,94.80
889.00,94.79
888.00,94.78
887.00,94.78
886.00,94.77
885.00,94.76
884.00,94.72
883.00,94.69
882.00,94.66
881.00,94.66
880.00,94.66
879.00,94.66
878.00,94.66
877.00,94.66
876.00,94.68
875.00,94.68
874.00,94.68
873.00,94.66
872.00,94.64
871.00,94.61
870.00,94.57
869.00,94.55
868.00,94.56
867.00,94.58
866.00,94.58
865.00,94.55
864.00,94.53
863.00,94.52
862.00,94.53
861.00,94.54
860.00,94.54
859.00,94.51
858.00,94.47
857.00,94.42
856.00,94.38
855.00,94.33
854.00,94.28
853.00,94.27
852.00,94.27
851.00,94.27
850.00,94.24
849.00,94.21
848.00,94.19
847.00,94.19
846.00,94.19
845.00,94.18
844.00,94.16
843.00,94.13
842.00,94.11
841.00,94.07
840.00,94.04
839.00,94.01
838.00,93.97
837.00,93.94
836.00,93.92
835.00,93.90
834.00,93.89
833.00,93.88
832.00,93.84
831.00,93.79
830.00,93.75
829.00,93.72
828.00,93.73
827.00,93.76
826.00,93.76
825.00,93.74
824.00,93.70
823.00,93.65
822.00,93.62
821.00,93.60
820.00,93.59
819.00,93.58
818.00,93.57
817.00,93.56
816.00,93.55
815.00,93.53
814.00,93.52
813.00,93.53
812.00,93.53
811.00,93.52
810.00,93.47
809.00,93.40
808.00,93.34
807.00,93.29
806.00,93.27
805.00,93.26
804.00,93.25
803.00,93.25
802.00,93.24
801.00,93.21
800.00,93.17
799.00,93.14
798.00,93.11
797.00,93.07
796.00,93.00
795.00,92.93
794.00,92.87
793.00,92.84
792.00,92.84
791.00,92.86
790.00,92.87
789.00,92.86
788.00,92.82
787.00,92.77
786.00,92.72
785.00,92.68
784.00,92.64
783.00,92.61
782.00,92.58
781.00,92.56
780.00,92.56
779.00,92.56
778.00,92.53
777.00,92.47
776.00,92.39
775.00,92.33
774.00,92.30
773.00,92.30
772.00,92.31
771.00,92.29
770.00,92.25
769.00,92.19
768.00,92.14
767.00,92.12
766.00,92.09
765.00,92.05
764.00,91.99
763.00,91.93
762.00,91.90
761.00,91.89
760.00,91.89
759.00,91.89
758.00,91.88
757.00,91.85
756.00,91.82
755.00,91.78
754.00,91.75
753.00,91.72
752.00,91.68
751.00,91.63
750.00,91.58
749.00,91.53
748.00,91.48
747.00,91.44
746.00,91.43
745.00,91.43
744.00,91.41
743.00,91.38
742.00,91.35
741.00,91.34
740.00,91.35
739.00,91.37
738.00,91.37
737.00,91.35
736.00,91.32
735.00,91.32
734.00,91.34
733.00,91.33
732.00,91.25
731.00,91.14
730.00,91.08
729.00,91.08
728.00,91.06
727.00,90.98
726.00,90.85
725.00,90.73
724.00,90.67
723.00,90.67
722.00,90.68
721.00,90.68
720.00,90.66
719.00,90.64
718.00,90.61
717.00,90.57
716.00,90.52
715.00,90.47
714.00,90.44
713.00,90.41
712.00,90.38
711.00,90.36
710.00,90.34
709.00,90.33
708.00,90.32
707.00,90.27
706.00,90.19
705.00,90.10
704.00,90.02
703.00,89.95
702.00,89.91
701.00,89.88
700.00,89.86
699.00,89.84
698.00,89.82
697.00,89.82
696.00,89.82
695.00,89.83
694.00,89.83
693.00,89.82
692.00,89.78
691.00,89.73
690.00,89.67
689.00,89.61
688.00,89.56
687.00,89.50
686.00,89.44
685.00,89.39
684.00,89.40
683.00,89.42
682.00,89.40
681.00,89.30
680.00,89.19
679.00,89.12
678.00,89.12
677.00,89.14
676.00,89.15
675.00,89.15
674.00,89.14
673.00,89.10
672.00,89.01
671.00,88.89
670.00,88.80
669.00,88.79
668.00,88.77
667.00,88.68
666.00,88.62
665.00,88.58
664.00,88.54
663.00,88.50
662.00,88.48
661.00,88.47
660.00,88.47
659.00,88.48
658.00,88.54
657.00,88.63
656.00,88.74
655.00,88.82
654.00,88.81
653.00,88.72
652.00,88.60
651.00,88.54
650.00,88.53
649.00,88.51
648.00,88.47
647.00,88.45
646.00,88.50
645.00,88.58
644.00,88.59
643.00,88.48
642.00,88.32
641.00,88.24
640.00,88.28
639.00,88.40
638.00,88.51
637.00,88.57
636.00,88.55
635.00,88.45
634.00,88.26
633.00,88.06
632.00,87.91
631.00,87.85
630.00,87.85
629.00,87.86
628.00,87.90
627.00,88.00
626.00,88.09
625.00,88.10
624.00,87.99
623.00,87.80
622.00,87.63
621.00,87.56
620.00,87.58
619.00,87.62
618.00,87.59
617.00,87.48
616.00,87.38
615.00,87.38
614.00,87.41
613.00,87.37
612.00,87.29
611.00,87.26
610.00,87.28
609.00,87.24
608.00,87.11
607.00,86.99
606.00,86.97
605.00,87.01
604.00,87.05
603.00,87.09
602.00,87.15
601.00,87.23
600.00,87.35
599.00,87.51
598.00,87.70
597.00,87.86
596.00,87.92
595.00,87.85
594.00,87.58
593.00,87.17
592.00,86.81
591.00,86.69
590.00,86.79
589.00,86.91
588.00,86.92
587.00,86.92
586.00,87.03
585.00,87.28
584.00,87.62
583.00,88.00
582.00,88.33
581.00,88.43
580.00,88.20
579.00,87.70
578.00,87.08
577.00,86.56
576.00,86.31
575.00,86.39
574.00,86.51
573.00,86.40
572.00,86.19
571.00,86.24
570.00,86.58
569.00,86.82
568.00,86.70
567.00,86.44
566.00,86.28
565.00,86.09
564.00,85.72
563.00,85.35
562.00,85.26
561.00,85.39
560.00,85.52
559.00,85.56
558.00,85.58
557.00,85.68
556.00,85.88
555.00,86.18
554.00,86.45
553.00,86.56
552.00,86.57
551.00,86.71
550.00,86.99
