Created as New Dataset,13.2 Red Wool Polwarth sheep
cm-1,%T
4000.00,99.27
3999.00,99.26
3998.00,99.27
3997.00,99.28
3996.00,99.30
3995.00,99.31
3994.00,99.31
3993.00,99.31
3992.00,99.31
3991.00,99.31
3990.00,99.32
3989.00,99.32
3988.00,99.33
3987.00,99.33
3986.00,99.34
3985.00,99.34
3984.00,99.33
3983.00,99.31
3982.00,99.29
3981.00,99.28
3980.00,99.29
3979.00,99.30
3978.00,99.32
3977.00,99.33
3976.00,99.33
3975.00,99.30
3974.00,99.28
3973.00,99.26
3972.00,99.27
3971.00,99.29
3970.00,99.30
3969.00,99.31
3968.00,99.30
3967.00,99.29
3966.00,99.28
3965.00,99.28
3964.00,99.29
3963.00,99.29
3962.00,99.30
3961.00,99.30
3960.00,99.29
3959.00,99.28
3958.00,99.26
3957.00,99.25
3956.00,99.24
3955.00,99.23
3954.00,99.24
3953.00,99.25
3952.00,99.27
3951.00,99.30
3950.00,99.31
3949.00,99.32
3948.00,99.32
3947.00,99.32
3946.00,99.31
3945.00,99.30
3944.00,99.28
3943.00,99.27
3942.00,99.28
3941.00,99.30
3940.00,99.33
3939.00,99.35
3938.00,99.35
3937.00,99.33
3936.00,99.30
3935.00,99.29
3934.00,99.28
3933.00,99.28
3932.00,99.28
3931.00,99.27
3930.00,99.25
3929.00,99.23
3928.00,99.22
3927.00,99.21
3926.00,99.22
3925.00,99.25
3924.00,99.29
3923.00,99.31
3922.00,99.31
3921.00,99.29
3920.00,99.27
3919.00,99.26
3918.00,99.24
3917.00,99.24
3916.00,99.25
3915.00,99.26
3914.00,99.29
3913.00,99.32
3912.00,99.34
3911.00,99.34
3910.00,99.34
3909.00,99.34
3908.00,99.33
3907.00,99.32
3906.00,99.32
3905.00,99.31
3904.00,99.32
3903.00,99.34
3902.00,99.36
3901.00,99.38
3900.00,99.38
3899.00,99.36
3898.00,99.33
3897.00,99.29
3896.00,99.26
3895.00,99.25
3894.00,99.26
3893.00,99.28
3892.00,99.31
3891.00,99.33
3890.00,99.34
3889.00,99.34
3888.00,99.33
3887.00,99.31
3886.00,99.29
3885.00,99.27
3884.00,99.24
3883.00,99.20
3882.00,99.17
3881.00,99.17
3880.00,99.19
3879.00,99.23
3878.00,99.27
3877.00,99.31
3876.00,99.34
3875.00,99.35
3874.00,99.35
3873.00,99.34
3872.00,99.32
3871.00,99.31
3870.00,99.32
3869.00,99.34
3868.00,99.35
3867.00,99.34
3866.00,99.32
3865.00,99.32
3864.00,99.31
3863.00,99.30
3862.00,99.27
3861.00,99.25
3860.00,99.24
3859.00,99.25
3858.00,99.27
3857.00,99.30
3856.00,99.32
3855.00,99.32
3854.00,99.31
3853.00,99.32
3852.00,99.34
3851.00,99.35
3850.00,99.35
3849.00,99.33
3848.00,99.31
3847.00,99.30
3846.00,99.28
3845.00,99.28
3844.00,99.29
3843.00,99.30
3842.00,99.32
3841.00,99.34
3840.00,99.36
3839.00,99.37
3838.00,99.39
3837.00,99.40
3836.00,99.40
3835.00,99.38
3834.00,99.36
3833.00,99.33
3832.00,99.30
3831.00,99.28
3830.00,99.28
3829.00,99.29
3828.00,99.30
3827.00,99.30
3826.00,99.30
3825.00,99.30
3824.00,99.31
3823.00,99.32
3822.00,99.34
3821.00,99.36
3820.00,99.36
3819.00,99.35
3818.00,99.33
3817.00,99.31
3816.00,99.31
3815.00,99.32
3814.00,99.32
3813.00,99.32
3812.00,99.32
3811.00,99.32
3810.00,99.33
3809.00,99.34
3808.00,99.34
3807.00,99.34
3806.00,99.34
3805.00,99.34
3804.00,99.34
3803.00,99.34
3802.00,99.35
3801.00,99.35
3800.00,99.34
3799.00,99.32
3798.00,99.30
3797.00,99.27
3796.00,99.26
3795.00,99.25
3794.00,99.25
3793.00,99.27
3792.00,99.28
3791.00,99.29
3790.00,99.28
3789.00,99.26
3788.00,99.26
3787.00,99.26
3786.00,99.29
3785.00,99.31
3784.00,99.34
3783.00,99.35
3782.00,99.34
3781.00,99.32
3780.00,99.28
3779.00,99.25
3778.00,99.24
3777.00,99.24
3776.00,99.25
3775.00,99.26
3774.00,99.27
3773.00,99.28
3772.00,99.29
3771.00,99.30
3770.00,99.30
3769.00,99.29
3768.00,99.27
3767.00,99.26
3766.00,99.25
3765.00,99.25
3764.00,99.26
3763.00,99.26
3762.00,99.26
3761.00,99.24
3760.00,99.22
3759.00,99.19
3758.00,99.17
3757.00,99.17
3756.00,99.20
3755.00,99.24
3754.00,99.27
3753.00,99.30
3752.00,99.31
3751.00,99.30
3750.00,99.29
3749.00,99.28
3748.00,99.27
3747.00,99.27
3746.00,99.27
3745.00,99.29
3744.00,99.31
3743.00,99.32
3742.00,99.29
3741.00,99.26
3740.00,99.23
3739.00,99.22
3738.00,99.23
3737.00,99.24
3736.00,99.25
3735.00,99.25
3734.00,99.24
3733.00,99.22
3732.00,99.21
3731.00,99.21
3730.00,99.20
3729.00,99.18
3728.00,99.14
3727.00,99.09
3726.00,99.05
3725.00,99.04
3724.00,99.07
3723.00,99.12
3722.00,99.18
3721.00,99.21
3720.00,99.21
3719.00,99.19
3718.00,99.17
3717.00,99.14
3716.00,99.12
3715.00,99.10
3714.00,99.08
3713.00,99.06
3712.00,99.05
3711.00,99.03
3710.00,99.02
3709.00,99.02
3708.00,99.01
3707.00,98.99
3706.00,98.96
3705.00,98.93
3704.00,98.90
3703.00,98.88
3702.00,98.86
3701.00,98.83
3700.00,98.80
3699.00,98.78
3698.00,98.76
3697.00,98.76
3696.00,98.75
3695.00,98.75
3694.00,98.75
3693.00,98.76
3692.00,98.78
3691.00,98.80
3690.00,98.81
3689.00,98.83
3688.00,98.84
3687.00,98.86
3686.00,98.86
3685.00,98.84
3684.00,98.83
3683.00,98.81
3682.00,98.79
3681.00,98.77
3680.00,98.76
3679.00,98.76
3678.00,98.76
3677.00,98.76
3676.00,98.75
3675.00,98.73
3674.00,98.72
3673.00,98.70
3672.00,98.68
3671.00,98.65
3670.00,98.63
3669.00,98.60
3668.00,98.56
3667.00,98.52
3666.00,98.47
3665.00,98.42
3664.00,98.37
3663.00,98.32
3662.00,98.29
3661.00,98.29
3660.00,98.30
3659.00,98.31
3658.00,98.30
3657.00,98.26
3656.00,98.20
3655.00,98.14
3654.00,98.12
3653.00,98.12
3652.00,98.14
3651.00,98.15
3650.00,98.12
3649.00,98.04
3648.00,97.95
3647.00,97.86
3646.00,97.80
3645.00,97.78
3644.00,97.78
3643.00,97.79
3642.00,97.79
3641.00,97.77
3640.00,97.73
3639.00,97.70
3638.00,97.66
3637.00,97.63
3636.00,97.59
3635.00,97.55
3634.00,97.52
3633.00,97.50
3632.00,97.49
3631.00,97.46
3630.00,97.42
3629.00,97.35
3628.00,97.29
3627.00,97.25
3626.00,97.22
3625.00,97.19
3624.00,97.15
3623.00,97.12
3622.00,97.08
3621.00,97.05
3620.00,97.04
3619.00,97.03
3618.00,97.03
3617.00,97.04
3616.00,97.04
3615.00,97.02
3614.00,96.99
3613.00,96.95
3612.00,96.90
3611.00,96.86
3610.00,96.83
3609.00,96.80
3608.00,96.77
3607.00,96.74
3606.00,96.73
3605.00,96.73
3604.00,96.73
3603.00,96.72
3602.00,96.71
3601.00,96.69
3600.00,96.65
3599.00,96.60
3598.00,96.54
3597.00,96.49
3596.00,96.45
3595.00,96.43
3594.00,96.41
3593.00,96.40
3592.00,96.38
3591.00,96.37
3590.00,96.36
3589.00,96.34
3588.00,96.31
3587.00,96.26
3586.00,96.21
3585.00,96.17
3584.00,96.13
3583.00,96.08
3582.00,96.03
3581.00,95.98
3580.00,95.95
3579.00,95.95
3578.00,95.95
3577.00,95.94
3576.00,95.92
3575.00,95.88
3574.00,95.83
3573.00,95.78
3572.00,95.75
3571.00,95.71
3570.00,95.68
3569.00,95.65
3568.00,95.60
3567.00,95.54
3566.00,95.49
3565.00,95.44
3564.00,95.41
3563.00,95.38
3562.00,95.33
3561.00,95.28
3560.00,95.24
3559.00,95.21
3558.00,95.20
3557.00,95.19
3556.00,95.18
3555.00,95.15
3554.00,95.11
3553.00,95.05
3552.00,95.00
3551.00,94.96
3550.00,94.91
3549.00,94.86
3548.00,94.81
3547.00,94.76
3546.00,94.72
3545.00,94.68
3544.00,94.66
3543.00,94.64
3542.00,94.63
3541.00,94.61
3540.00,94.59
3539.00,94.56
3538.00,94.53
3537.00,94.49
3536.00,94.44
3535.00,94.39
3534.00,94.34
3533.00,94.31
3532.00,94.29
3531.00,94.27
3530.00,94.25
3529.00,94.23
3528.00,94.19
3527.00,94.14
3526.00,94.09
3525.00,94.04
3524.00,94.00
3523.00,93.97
3522.00,93.95
3521.00,93.94
3520.00,93.93
3519.00,93.91
3518.00,93.89
3517.00,93.86
3516.00,93.84
3515.00,93.81
3514.00,93.77
3513.00,93.73
3512.00,93.69
3511.00,93.66
3510.00,93.64
3509.00,93.62
3508.00,93.61
3507.00,93.58
3506.00,93.54
3505.00,93.48
3504.00,93.43
3503.00,93.40
3502.00,93.37
3501.00,93.35
3500.00,93.32
3499.00,93.29
3498.00,93.26
3497.00,93.22
3496.00,93.19
3495.00,93.16
3494.00,93.15
3493.00,93.13
3492.00,93.12
3491.00,93.11
3490.00,93.09
3489.00,93.06
3488.00,93.03
3487.00,93.00
3486.00,92.97
3485.00,92.94
3484.00,92.91
3483.00,92.88
3482.00,92.86
3481.00,92.83
3480.00,92.80
3479.00,92.75
3478.00,92.71
3477.00,92.67
3476.00,92.66
3475.00,92.67
3474.00,92.66
3473.00,92.64
3472.00,92.60
3471.00,92.56
3470.00,92.53
3469.00,92.51
3468.00,92.48
3467.00,92.45
3466.00,92.42
3465.00,92.40
3464.00,92.37
3463.00,92.32
3462.00,92.28
3461.00,92.25
3460.00,92.22
3459.00,92.20
3458.00,92.18
3457.00,92.16
3456.00,92.14
3455.00,92.12
3454.00,92.10
3453.00,92.07
3452.00,92.03
3451.00,91.98
3450.00,91.95
3449.00,91.93
3448.00,91.93
3447.00,91.94
3446.00,91.95
3445.00,91.94
3444.00,91.92
3443.00,91.90
3442.00,91.87
3441.00,91.84
3440.00,91.81
3439.00,91.79
3438.00,91.77
3437.00,91.76
3436.00,91.75
3435.00,91.74
3434.00,91.71
3433.00,91.68
3432.00,91.64
3431.00,91.61
3430.00,91.59
3429.00,91.58
3428.00,91.58
3427.00,91.57
3426.00,91.55
3425.00,91.51
3424.00,91.46
3423.00,91.43
3422.00,91.40
3421.00,91.39
3420.00,91.39
3419.00,91.39
3418.00,91.37
3417.00,91.34
3416.00,91.30
3415.00,91.26
3414.00,91.24
3413.00,91.22
3412.00,91.20
3411.00,91.19
3410.00,91.17
3409.00,91.16
3408.00,91.14
3407.00,91.11
3406.00,91.09
3405.00,91.08
3404.00,91.06
3403.00,91.05
3402.00,91.03
3401.00,91.01
3400.00,91.00
3399.00,91.00
3398.00,91.00
3397.00,91.00
3396.00,90.99
3395.00,90.97
3394.00,90.94
3393.00,90.91
3392.00,90.88
3391.00,90.84
3390.00,90.82
3389.00,90.80
3388.00,90.79
3387.00,90.78
3386.00,90.76
3385.00,90.73
3384.00,90.70
3383.00,90.67
3382.00,90.65
3381.00,90.63
3380.00,90.62
3379.00,90.62
3378.00,90.61
3377.00,90.60
3376.00,90.59
3375.00,90.58
3374.00,90.58
3373.00,90.57
3372.00,90.56
3371.00,90.53
3370.00,90.49
3369.00,90.45
3368.00,90.43
3367.00,90.42
3366.00,90.40
3365.00,90.37
3364.00,90.35
3363.00,90.33
3362.00,90.33
3361.00,90.33
3360.00,90.33
3359.00,90.32
3358.00,90.31
3357.00,90.29
3356.00,90.28
3355.00,90.26
3354.00,90.23
3353.00,90.21
3352.00,90.20
3351.00,90.19
3350.00,90.18
3349.00,90.16
3348.00,90.14
3347.00,90.12
3346.00,90.11
3345.00,90.10
3344.00,90.08
3343.00,90.07
3342.00,90.06
3341.00,90.05
3340.00,90.05
3339.00,90.03
3338.00,90.02
3337.00,90.01
3336.00,90.00
3335.00,89.99
3334.00,89.98
3333.00,89.97
3332.00,89.97
3331.00,89.96
3330.00,89.95
3329.00,89.93
3328.00,89.89
3327.00,89.85
3326.00,89.81
3325.00,89.78
3324.00,89.76
3323.00,89.75
3322.00,89.76
3321.00,89.75
3320.00,89.73
3319.00,89.70
3318.00,89.67
3317.00,89.63
3316.00,89.60
3315.00,89.58
3314.00,89.56
3313.00,89.55
3312.00,89.54
3311.00,89.53
3310.00,89.51
3309.00,89.48
3308.00,89.45
3307.00,89.43
3306.00,89.41
3305.00,89.40
3304.00,89.39
3303.00,89.38
3302.00,89.37
3301.00,89.36
3300.00,89.34
3299.00,89.33
3298.00,89.31
3297.00,89.29
3296.00,89.29
3295.00,89.28
3294.00,89.28
3293.00,89.27
3292.00,89.25
3291.00,89.24
3290.00,89.22
3289.00,89.21
3288.00,89.20
3287.00,89.18
3286.00,89.18
3285.00,89.19
3284.00,89.20
3283.00,89.22
3282.00,89.23
3281.00,89.22
3280.00,89.20
3279.00,89.19
3278.00,89.17
3277.00,89.16
3276.00,89.15
3275.00,89.15
3274.00,89.17
3273.00,89.20
3272.00,89.22
3271.00,89.24
3270.00,89.26
3269.00,89.27
3268.00,89.28
3267.00,89.29
3266.00,89.31
3265.00,89.33
3264.00,89.37
3263.00,89.41
3262.00,89.46
3261.00,89.50
3260.00,89.52
3259.00,89.53
3258.00,89.54
3257.00,89.55
3256.00,89.57
3255.00,89.61
3254.00,89.65
3253.00,89.68
3252.00,89.71
3251.00,89.74
3250.00,89.77
3249.00,89.80
3248.00,89.84
3247.00,89.88
3246.00,89.91
3245.00,89.92
3244.00,89.94
3243.00,89.95
3242.00,89.97
3241.00,90.00
3240.00,90.04
3239.00,90.07
3238.00,90.10
3237.00,90.12
3236.00,90.15
3235.00,90.18
3234.00,90.21
3233.00,90.23
3232.00,90.24
3231.00,90.24
3230.00,90.23
3229.00,90.24
3228.00,90.25
3227.00,90.27
3226.00,90.31
3225.00,90.35
3224.00,90.39
3223.00,90.42
3222.00,90.45
3221.00,90.46
3220.00,90.46
3219.00,90.46
3218.00,90.47
3217.00,90.50
3216.00,90.53
3215.00,90.58
3214.00,90.64
3213.00,90.68
3212.00,90.71
3211.00,90.72
3210.00,90.73
3209.00,90.74
3208.00,90.76
3207.00,90.79
3206.00,90.81
3205.00,90.83
3204.00,90.84
3203.00,90.85
3202.00,90.86
3201.00,90.87
3200.00,90.89
3199.00,90.93
3198.00,90.97
3197.00,91.01
3196.00,91.05
3195.00,91.07
3194.00,91.08
3193.00,91.10
3192.00,91.12
3191.00,91.16
3190.00,91.20
3189.00,91.24
3188.00,91.28
3187.00,91.31
3186.00,91.34
3185.00,91.36
3184.00,91.39
3183.00,91.41
3182.00,91.44
3181.00,91.48
3180.00,91.52
3179.00,91.56
3178.00,91.60
3177.00,91.65
3176.00,91.68
3175.00,91.71
3174.00,91.73
3173.00,91.75
3172.00,91.79
3171.00,91.83
3170.00,91.88
3169.00,91.93
3168.00,91.98
3167.00,92.03
3166.00,92.07
3165.00,92.10
3164.00,92.12
3163.00,92.14
3162.00,92.18
3161.00,92.24
3160.00,92.29
3159.00,92.32
3158.00,92.34
3157.00,92.36
3156.00,92.40
3155.00,92.43
3154.00,92.47
3153.00,92.50
3152.00,92.53
3151.00,92.55
3150.00,92.58
3149.00,92.60
3148.00,92.63
3147.00,92.66
3146.00,92.68
3145.00,92.71
3144.00,92.74
3143.00,92.78
3142.00,92.83
3141.00,92.86
3140.00,92.88
3139.00,92.89
3138.00,92.92
3137.00,92.95
3136.00,92.99
3135.00,93.03
3134.00,93.04
3133.00,93.04
3132.00,93.04
3131.00,93.07
3130.00,93.12
3129.00,93.16
3128.00,93.18
3127.00,93.20
3126.00,93.21
3125.00,93.23
3124.00,93.25
3123.00,93.26
3122.00,93.27
3121.00,93.28
3120.00,93.30
3119.00,93.33
3118.00,93.38
3117.00,93.41
3116.00,93.42
3115.00,93.41
3114.00,93.39
3113.00,93.38
3112.00,93.38
3111.00,93.40
3110.00,93.42
3109.00,93.44
3108.00,93.46
3107.00,93.47
3106.00,93.49
3105.00,93.50
3104.00,93.50
3103.00,93.50
3102.00,93.50
3101.00,93.50
3100.00,93.51
3099.00,93.50
3098.00,93.49
3097.00,93.49
3096.00,93.50
3095.00,93.51
3094.00,93.51
3093.00,93.50
3092.00,93.49
3091.00,93.50
3090.00,93.52
3089.00,93.53
3088.00,93.54
3087.00,93.54
3086.00,93.54
3085.00,93.53
3084.00,93.52
3083.00,93.52
3082.00,93.53
3081.00,93.54
3080.00,93.56
3079.00,93.57
3078.00,93.58
3077.00,93.59
3076.00,93.58
3075.00,93.57
3074.00,93.55
3073.00,93.53
3072.00,93.53
3071.00,93.54
3070.00,93.56
3069.00,93.58
3068.00,93.58
3067.00,93.58
3066.00,93.57
3065.00,93.56
3064.00,93.55
3063.00,93.55
3062.00,93.56
3061.00,93.58
3060.00,93.61
3059.00,93.64
3058.00,93.67
3057.00,93.70
3056.00,93.72
3055.00,93.73
3054.00,93.75
3053.00,93.78
3052.00,93.80
3051.00,93.82
3050.00,93.84
3049.00,93.85
3048.00,93.87
3047.00,93.89
3046.00,93.90
3045.00,93.90
3044.00,93.90
3043.00,93.91
3042.00,93.91
3041.00,93.92
3040.00,93.93
3039.00,93.95
3038.00,93.98
3037.00,94.02
3036.00,94.05
3035.00,94.07
3034.00,94.08
3033.00,94.07
3032.00,94.06
3031.00,94.06
3030.00,94.06
3029.00,94.08
3028.00,94.10
3027.00,94.13
3026.00,94.15
3025.00,94.16
3024.00,94.16
3023.00,94.16
3022.00,94.16
3021.00,94.17
3020.00,94.18
3019.00,94.20
3018.00,94.21
3017.00,94.21
3016.00,94.21
3015.00,94.21
3014.00,94.19
3013.00,94.17
3012.00,94.15
3011.00,94.12
3010.00,94.09
3009.00,94.07
3008.00,94.05
3007.00,94.03
3006.00,94.00
3005.00,93.95
3004.00,93.90
3003.00,93.84
3002.00,93.80
3001.00,93.75
3000.00,93.69
2999.00,93.63
2998.00,93.56
2997.00,93.48
2996.00,93.41
2995.00,93.32
2994.00,93.22
2993.00,93.09
2992.00,92.96
2991.00,92.82
2990.00,92.69
2989.00,92.57
2988.00,92.45
2987.00,92.30
2986.00,92.13
2985.00,91.95
2984.00,91.77
2983.00,91.58
2982.00,91.39
2981.00,91.18
2980.00,90.95
2979.00,90.70
2978.00,90.43
2977.00,90.15
2976.00,89.87
2975.00,89.58
2974.00,89.27
2973.00,88.93
2972.00,88.58
2971.00,88.21
2970.00,87.85
2969.00,87.48
2968.00,87.13
2967.00,86.79
2966.00,86.46
2965.00,86.14
2964.00,85.83
2963.00,85.54
2962.00,85.27
2961.00,85.01
2960.00,84.78
2959.00,84.56
2958.00,84.36
2957.00,84.18
2956.00,84.04
2955.00,83.95
2954.00,83.89
2953.00,83.86
2952.00,83.87
2951.00,83.88
2950.00,83.90
2949.00,83.89
2948.00,83.85
2947.00,83.76
2946.00,83.61
2945.00,83.41
2944.00,83.13
2943.00,82.80
2942.00,82.42
2941.00,81.99
2940.00,81.53
2939.00,81.02
2938.00,80.48
2937.00,79.89
2936.00,79.27
2935.00,78.60
2934.00,77.91
2933.00,77.19
2932.00,76.46
2931.00,75.71
2930.00,74.95
2929.00,74.18
2928.00,73.38
2927.00,72.57
2926.00,71.74
2925.00,70.90
2924.00,70.05
2923.00,69.20
2922.00,68.34
2921.00,67.49
2920.00,66.71
2919.00,66.10
2918.00,65.79
2917.00,65.92
2916.00,66.56
2915.00,67.68
2914.00,69.16
2913.00,70.80
2912.00,72.42
2911.00,73.92
2910.00,75.23
2909.00,76.35
2908.00,77.31
2907.00,78.12
2906.00,78.82
2905.00,79.43
2904.00,79.96
2903.00,80.43
2902.00,80.85
2901.00,81.25
2900.00,81.64
2899.00,82.02
2898.00,82.41
2897.00,82.78
2896.00,83.14
2895.00,83.49
2894.00,83.82
2893.00,84.14
2892.00,84.46
2891.00,84.77
2890.00,85.08
2889.00,85.38
2888.00,85.68
2887.00,85.96
2886.00,86.22
2885.00,86.45
2884.00,86.64
2883.00,86.80
2882.00,86.92
2881.00,87.01
2880.00,87.07
2879.00,87.08
2878.00,87.05
2877.00,86.99
2876.00,86.91
2875.00,86.81
2874.00,86.70
2873.00,86.60
2872.00,86.51
2871.00,86.44
2870.00,86.38
2869.00,86.33
2868.00,86.30
2867.00,86.26
2866.00,86.21
2865.00,86.11
2864.00,85.93
2863.00,85.65
2862.00,85.27
2861.00,84.76
2860.00,84.12
2859.00,83.34
2858.00,82.43
2857.00,81.39
2856.00,80.24
2855.00,78.99
2854.00,77.63
2853.00,76.25
2852.00,74.96
2851.00,74.00
2850.00,73.63
2849.00,74.04
2848.00,75.25
2847.00,77.05
2846.00,79.17
2845.00,81.30
2844.00,83.27
2843.00,84.99
2842.00,86.45
2841.00,87.68
2840.00,88.70
2839.00,89.57
2838.00,90.30
2837.00,90.91
2836.00,91.42
2835.00,91.85
2834.00,92.23
2833.00,92.56
2832.00,92.84
2831.00,93.09
2830.00,93.32
2829.00,93.51
2828.00,93.69
2827.00,93.84
2826.00,93.96
2825.00,94.07
2824.00,94.18
2823.00,94.28
2822.00,94.39
2821.00,94.50
2820.00,94.61
2819.00,94.71
2818.00,94.80
2817.00,94.87
2816.00,94.93
2815.00,95.00
2814.00,95.07
2813.00,95.13
2812.00,95.18
2811.00,95.22
2810.00,95.27
2809.00,95.32
2808.00,95.36
2807.00,95.41
2806.00,95.45
2805.00,95.50
2804.00,95.56
2803.00,95.61
2802.00,95.66
2801.00,95.71
2800.00,95.75
2799.00,95.78
2798.00,95.82
2797.00,95.85
2796.00,95.89
2795.00,95.92
2794.00,95.95
2793.00,95.98
2792.00,96.01
2791.00,96.04
2790.00,96.08
2789.00,96.11
2788.00,96.14
2787.00,96.17
2786.00,96.19
2785.00,96.22
2784.00,96.26
2783.00,96.29
2782.00,96.32
2781.00,96.34
2780.00,96.36
2779.00,96.38
2778.00,96.40
2777.00,96.41
2776.00,96.42
2775.00,96.42
2774.00,96.42
2773.00,96.43
2772.00,96.46
2771.00,96.49
2770.00,96.52
2769.00,96.55
2768.00,96.58
2767.00,96.59
2766.00,96.59
2765.00,96.60
2764.00,96.61
2763.00,96.62
2762.00,96.63
2761.00,96.64
2760.00,96.64
2759.00,96.65
2758.00,96.66
2757.00,96.68
2756.00,96.70
2755.00,96.72
2754.00,96.73
2753.00,96.73
2752.00,96.73
2751.00,96.74
2750.00,96.75
2749.00,96.76
2748.00,96.78
2747.00,96.80
2746.00,96.81
2745.00,96.82
2744.00,96.82
2743.00,96.83
2742.00,96.84
2741.00,96.84
2740.00,96.83
2739.00,96.82
2738.00,96.82
2737.00,96.83
2736.00,96.84
2735.00,96.85
2734.00,96.86
2733.00,96.87
2732.00,96.88
2731.00,96.88
2730.00,96.88
2729.00,96.88
2728.00,96.89
2727.00,96.91
2726.00,96.92
2725.00,96.93
2724.00,96.93
2723.00,96.94
2722.00,96.95
2721.00,96.97
2720.00,96.99
2719.00,97.00
2718.00,97.00
2717.00,96.98
2716.00,96.96
2715.00,96.96
2714.00,96.97
2713.00,96.99
2712.00,97.02
2711.00,97.06
2710.00,97.10
2709.00,97.13
2708.00,97.14
2707.00,97.15
2706.00,97.15
2705.00,97.15
2704.00,97.15
2703.00,97.16
2702.00,97.17
2701.00,97.18
2700.00,97.19
2699.00,97.20
2698.00,97.21
2697.00,97.23
2696.00,97.23
2695.00,97.23
2694.00,97.22
2693.00,97.21
2692.00,97.19
2691.00,97.18
2690.00,97.18
2689.00,97.19
2688.00,97.21
2687.00,97.24
2686.00,97.26
2685.00,97.27
2684.00,97.27
2683.00,97.26
2682.00,97.27
2681.00,97.27
2680.00,97.28
2679.00,97.28
2678.00,97.28
2677.00,97.28
2676.00,97.29
2675.00,97.29
2674.00,97.30
2673.00,97.30
2672.00,97.31
2671.00,97.32
2670.00,97.33
2669.00,97.33
2668.00,97.32
2667.00,97.30
2666.00,97.29
2665.00,97.30
2664.00,97.32
2663.00,97.34
2662.00,97.36
2661.00,97.37
2660.00,97.37
2659.00,97.37
2658.00,97.36
2657.00,97.36
2656.00,97.36
2655.00,97.36
2654.00,97.36
2653.00,97.35
2652.00,97.34
2651.00,97.34
2650.00,97.35
2649.00,97.36
2648.00,97.36
2647.00,97.36
2646.00,97.36
2645.00,97.35
2644.00,97.36
2643.00,97.36
2642.00,97.36
2641.00,97.37
2640.00,97.38
2639.00,97.40
2638.00,97.42
2637.00,97.44
2636.00,97.44
2635.00,97.45
2634.00,97.45
2633.00,97.45
2632.00,97.45
2631.00,97.46
2630.00,97.45
2629.00,97.45
2628.00,97.44
2627.00,97.43
2626.00,97.45
2625.00,97.47
2624.00,97.49
2623.00,97.50
2622.00,97.52
2621.00,97.54
2620.00,97.57
2619.00,97.60
2618.00,97.61
2617.00,97.61
2616.00,97.60
2615.00,97.60
2614.00,97.59
2613.00,97.58
2612.00,97.57
2611.00,97.56
2610.00,97.57
2609.00,97.58
2608.00,97.59
2607.00,97.60
2606.00,97.61
2605.00,97.62
2604.00,97.62
2603.00,97.63
2602.00,97.65
2601.00,97.66
2600.00,97.66
2599.00,97.65
2598.00,97.64
2597.00,97.64
2596.00,97.66
2595.00,97.68
2594.00,97.71
2593.00,97.73
2592.00,97.75
2591.00,97.76
2590.00,97.76
2589.00,97.76
2588.00,97.75
2587.00,97.75
2586.00,97.76
2585.00,97.77
2584.00,97.79
2583.00,97.82
2582.00,97.85
2581.00,97.87
2580.00,97.88
2579.00,97.88
2578.00,97.88
2577.00,97.88
2576.00,97.87
2575.00,97.86
2574.00,97.85
2573.00,97.84
2572.00,97.84
2571.00,97.84
2570.00,97.85
2569.00,97.85
2568.00,97.85
2567.00,97.86
2566.00,97.87
2565.00,97.88
2564.00,97.90
2563.00,97.91
2562.00,97.93
2561.00,97.93
2560.00,97.92
2559.00,97.90
2558.00,97.88
2557.00,97.87
2556.00,97.87
2555.00,97.89
2554.00,97.90
2553.00,97.91
2552.00,97.93
2551.00,97.95
2550.00,97.98
2549.00,98.00
2548.00,98.00
2547.00,98.00
2546.00,98.01
2545.00,98.02
2544.00,98.02
2543.00,98.03
2542.00,98.03
2541.00,98.01
2540.00,98.00
2539.00,97.98
2538.00,97.98
2537.00,97.99
2536.00,98.00
2535.00,98.02
2534.00,98.04
2533.00,98.04
2532.00,98.04
2531.00,98.03
2530.00,98.01
2529.00,97.98
2528.00,97.95
2527.00,97.93
2526.00,97.93
2525.00,97.94
2524.00,97.95
2523.00,97.96
2522.00,97.98
2521.00,98.00
2520.00,98.03
2519.00,98.07
2518.00,98.12
2517.00,98.15
2516.00,98.16
2515.00,98.14
2514.00,98.10
2513.00,98.08
2512.00,98.07
2511.00,98.07
2510.00,98.09
2509.00,98.10
2508.00,98.11
2507.00,98.12
2506.00,98.12
2505.00,98.13
2504.00,98.14
2503.00,98.15
2502.00,98.15
2501.00,98.15
2500.00,98.14
2499.00,98.13
2498.00,98.13
2497.00,98.12
2496.00,98.13
2495.00,98.15
2494.00,98.18
2493.00,98.19
2492.00,98.18
2491.00,98.17
2490.00,98.16
2489.00,98.17
2488.00,98.19
2487.00,98.20
2486.00,98.22
2485.00,98.23
2484.00,98.23
2483.00,98.23
2482.00,98.22
2481.00,98.23
2480.00,98.24
2479.00,98.26
2478.00,98.27
2477.00,98.27
2476.00,98.26
2475.00,98.26
2474.00,98.27
2473.00,98.29
2472.00,98.29
2471.00,98.28
2470.00,98.25
2469.00,98.23
2468.00,98.22
2467.00,98.23
2466.00,98.25
2465.00,98.27
2464.00,98.28
2463.00,98.29
2462.00,98.28
2461.00,98.28
2460.00,98.26
2459.00,98.25
2458.00,98.24
2457.00,98.23
2456.00,98.23
2455.00,98.24
2454.00,98.25
2453.00,98.26
2452.00,98.27
2451.00,98.29
2450.00,98.30
2449.00,98.32
2448.00,98.35
2447.00,98.37
2446.00,98.37
2445.00,98.36
2444.00,98.34
2443.00,98.33
2442.00,98.33
2441.00,98.34
2440.00,98.36
2439.00,98.35
2438.00,98.34
2437.00,98.33
2436.00,98.33
2435.00,98.35
2434.00,98.37
2433.00,98.39
2432.00,98.40
2431.00,98.40
2430.00,98.39
2429.00,98.37
2428.00,98.36
2427.00,98.36
2426.00,98.37
2425.00,98.39
2424.00,98.40
2423.00,98.42
2422.00,98.43
2421.00,98.43
2420.00,98.42
2419.00,98.41
2418.00,98.41
2417.00,98.42
2416.00,98.45
2415.00,98.48
2414.00,98.50
2413.00,98.51
2412.00,98.50
2411.00,98.47
2410.00,98.46
2409.00,98.45
2408.00,98.46
2407.00,98.48
2406.00,98.48
2405.00,98.48
2404.00,98.46
2403.00,98.45
2402.00,98.44
2401.00,98.45
2400.00,98.48
2399.00,98.51
2398.00,98.52
2397.00,98.52
2396.00,98.52
2395.00,98.52
2394.00,98.52
2393.00,98.52
2392.00,98.50
2391.00,98.49
2390.00,98.49
2389.00,98.50
2388.00,98.52
2387.00,98.54
2386.00,98.55
2385.00,98.55
2384.00,98.56
2383.00,98.56
2382.00,98.57
2381.00,98.59
2380.00,98.61
2379.00,98.62
2378.00,98.63
2377.00,98.62
2376.00,98.60
2375.00,98.58
2374.00,98.58
2373.00,98.59
2372.00,98.60
2371.00,98.61
2370.00,98.59
2369.00,98.57
2368.00,98.59
2367.00,98.65
2366.00,98.69
2365.00,98.68
2364.00,98.62
2363.00,98.58
2362.00,98.60
2361.00,98.62
2360.00,98.60
2359.00,98.56
2358.00,98.52
2357.00,98.52
2356.00,98.57
2355.00,98.64
2354.00,98.67
2353.00,98.66
2352.00,98.63
2351.00,98.62
2350.00,98.62
2349.00,98.61
2348.00,98.60
2347.00,98.58
2346.00,98.58
2345.00,98.63
2344.00,98.69
2343.00,98.72
2342.00,98.71
2341.00,98.67
2340.00,98.64
2339.00,98.62
2338.00,98.59
2337.00,98.56
2336.00,98.55
2335.00,98.56
2334.00,98.58
2333.00,98.60
2332.00,98.62
2331.00,98.64
2330.00,98.66
2329.00,98.67
2328.00,98.64
2327.00,98.58
2326.00,98.50
2325.00,98.42
2324.00,98.39
2323.00,98.42
2322.00,98.49
2321.00,98.54
2320.00,98.54
2319.00,98.51
2318.00,98.47
2317.00,98.45
2316.00,98.46
2315.00,98.49
2314.00,98.51
2313.00,98.51
2312.00,98.50
2311.00,98.49
2310.00,98.49
2309.00,98.49
2308.00,98.50
2307.00,98.52
2306.00,98.53
2305.00,98.54
2304.00,98.55
2303.00,98.55
2302.00,98.53
2301.00,98.50
2300.00,98.47
2299.00,98.46
2298.00,98.46
2297.00,98.47
2296.00,98.47
2295.00,98.47
2294.00,98.47
2293.00,98.46
2292.00,98.45
2291.00,98.43
2290.00,98.41
2289.00,98.39
2288.00,98.37
2287.00,98.37
2286.00,98.39
2285.00,98.41
2284.00,98.43
2283.00,98.44
2282.00,98.45
2281.00,98.46
2280.00,98.48
2279.00,98.50
2278.00,98.51
2277.00,98.50
2276.00,98.48
2275.00,98.48
2274.00,98.48
2273.00,98.49
2272.00,98.48
2271.00,98.49
2270.00,98.50
2269.00,98.51
2268.00,98.52
2267.00,98.53
2266.00,98.55
2265.00,98.57
2264.00,98.58
2263.00,98.58
2262.00,98.56
2261.00,98.54
2260.00,98.52
2259.00,98.51
2258.00,98.50
2257.00,98.49
2256.00,98.47
2255.00,98.45
2254.00,98.44
2253.00,98.45
2252.00,98.47
2251.00,98.50
2250.00,98.51
2249.00,98.51
2248.00,98.50
2247.00,98.50
2246.00,98.49
2245.00,98.48
2244.00,98.47
2243.00,98.48
2242.00,98.50
2241.00,98.52
2240.00,98.52
2239.00,98.52
2238.00,98.50
2237.00,98.47
2236.00,98.41
2235.00,98.36
2234.00,98.34
2233.00,98.35
2232.00,98.40
2231.00,98.48
2230.00,98.56
2229.00,98.60
2228.00,98.60
2227.00,98.58
2226.00,98.53
2225.00,98.47
2224.00,98.41
2223.00,98.38
2222.00,98.39
2221.00,98.40
2220.00,98.40
2219.00,98.40
2218.00,98.41
2217.00,98.44
2216.00,98.51
2215.00,98.57
2214.00,98.59
2213.00,98.55
2212.00,98.47
2211.00,98.40
2210.00,98.37
2209.00,98.39
2208.00,98.43
2207.00,98.46
2206.00,98.49
2205.00,98.53
2204.00,98.57
2203.00,98.60
2202.00,98.60
2201.00,98.57
2200.00,98.52
2199.00,98.48
2198.00,98.45
2197.00,98.40
2196.00,98.34
2195.00,98.30
2194.00,98.28
2193.00,98.30
2192.00,98.33
2191.00,98.37
2190.00,98.40
2189.00,98.39
2188.00,98.38
2187.00,98.37
2186.00,98.38
2185.00,98.39
2184.00,98.42
2183.00,98.47
2182.00,98.51
2181.00,98.51
2180.00,98.46
2179.00,98.40
2178.00,98.36
2177.00,98.32
2176.00,98.30
2175.00,98.32
2174.00,98.41
2173.00,98.52
2172.00,98.59
2171.00,98.60
2170.00,98.54
2169.00,98.43
2168.00,98.33
2167.00,98.26
2166.00,98.24
2165.00,98.23
2164.00,98.23
2163.00,98.21
2162.00,98.20
2161.00,98.22
2160.00,98.30
2159.00,98.41
2158.00,98.51
2157.00,98.53
2156.00,98.51
2155.00,98.50
2154.00,98.53
2153.00,98.59
2152.00,98.67
2151.00,98.71
2150.00,98.71
2149.00,98.66
2148.00,98.61
2147.00,98.58
2146.00,98.58
2145.00,98.60
2144.00,98.64
2143.00,98.69
2142.00,98.72
2141.00,98.71
2140.00,98.68
2139.00,98.65
2138.00,98.61
2137.00,98.57
2136.00,98.53
2135.00,98.53
2134.00,98.58
2133.00,98.66
2132.00,98.73
2131.00,98.77
2130.00,98.78
2129.00,98.75
2128.00,98.72
2127.00,98.71
2126.00,98.71
2125.00,98.70
2124.00,98.67
2123.00,98.64
2122.00,98.61
2121.00,98.59
2120.00,98.60
2119.00,98.62
2118.00,98.63
2117.00,98.62
2116.00,98.60
2115.00,98.60
2114.00,98.61
2113.00,98.61
2112.00,98.59
2111.00,98.57
2110.00,98.55
2109.00,98.56
2108.00,98.58
2107.00,98.60
2106.00,98.61
2105.00,98.61
2104.00,98.61
2103.00,98.61
2102.00,98.60
2101.00,98.58
2100.00,98.54
2099.00,98.53
2098.00,98.54
2097.00,98.58
2096.00,98.60
2095.00,98.60
2094.00,98.58
2093.00,98.54
2092.00,98.51
2091.00,98.51
2090.00,98.55
2089.00,98.59
2088.00,98.63
2087.00,98.66
2086.00,98.68
2085.00,98.67
2084.00,98.63
2083.00,98.60
2082.00,98.58
2081.00,98.59
2080.00,98.62
2079.00,98.64
2078.00,98.65
2077.00,98.61
2076.00,98.55
2075.00,98.52
2074.00,98.52
2073.00,98.55
2072.00,98.58
2071.00,98.63
2070.00,98.70
2069.00,98.73
2068.00,98.73
2067.00,98.68
2066.00,98.64
2065.00,98.60
2064.00,98.58
2063.00,98.57
2062.00,98.56
2061.00,98.54
2060.00,98.54
2059.00,98.57
2058.00,98.61
2057.00,98.64
2056.00,98.64
2055.00,98.62
2054.00,98.57
2053.00,98.49
2052.00,98.41
2051.00,98.38
2050.00,98.43
2049.00,98.53
2048.00,98.62
2047.00,98.66
2046.00,98.64
2045.00,98.58
2044.00,98.51
2043.00,98.48
2042.00,98.49
2041.00,98.51
2040.00,98.51
2039.00,98.49
2038.00,98.46
2037.00,98.46
2036.00,98.49
2035.00,98.56
2034.00,98.62
2033.00,98.62
2032.00,98.58
2031.00,98.57
2030.00,98.60
2029.00,98.65
2028.00,98.68
2027.00,98.70
2026.00,98.70
2025.00,98.71
2024.00,98.72
2023.00,98.72
2022.00,98.73
2021.00,98.73
2020.00,98.73
2019.00,98.74
2018.00,98.75
2017.00,98.75
2016.00,98.72
2015.00,98.70
2014.00,98.69
2013.00,98.68
2012.00,98.68
2011.00,98.68
2010.00,98.68
2009.00,98.66
2008.00,98.65
2007.00,98.68
2006.00,98.72
2005.00,98.73
2004.00,98.71
2003.00,98.69
2002.00,98.72
2001.00,98.75
2000.00,98.77
1999.00,98.76
1998.00,98.75
1997.00,98.71
1996.00,98.68
1995.00,98.65
1994.00,98.63
1993.00,98.60
1992.00,98.56
1991.00,98.55
1990.00,98.59
1989.00,98.65
1988.00,98.68
1987.00,98.67
1986.00,98.64
1985.00,98.61
1984.00,98.57
1983.00,98.52
1982.00,98.47
1981.00,98.44
1980.00,98.48
1979.00,98.56
1978.00,98.65
1977.00,98.71
1976.00,98.75
1975.00,98.77
1974.00,98.76
1973.00,98.71
1972.00,98.68
1971.00,98.69
1970.00,98.73
1969.00,98.73
1968.00,98.69
1967.00,98.64
1966.00,98.62
1965.00,98.64
1964.00,98.68
1963.00,98.71
1962.00,98.73
1961.00,98.70
1960.00,98.66
1959.00,98.63
1958.00,98.66
1957.00,98.71
1956.00,98.77
1955.00,98.84
1954.00,98.89
1953.00,98.92
1952.00,98.92
1951.00,98.89
1950.00,98.85
1949.00,98.81
1948.00,98.80
1947.00,98.80
1946.00,98.81
1945.00,98.80
1944.00,98.79
1943.00,98.80
1942.00,98.81
1941.00,98.80
1940.00,98.77
1939.00,98.75
1938.00,98.76
1937.00,98.76
1936.00,98.77
1935.00,98.77
1934.00,98.79
1933.00,98.82
1932.00,98.84
1931.00,98.85
1930.00,98.85
1929.00,98.84
1928.00,98.83
1927.00,98.81
1926.00,98.80
1925.00,98.78
1924.00,98.75
1923.00,98.73
1922.00,98.72
1921.00,98.73
1920.00,98.76
1919.00,98.81
1918.00,98.83
1917.00,98.83
1916.00,98.80
1915.00,98.80
1914.00,98.82
1913.00,98.86
1912.00,98.87
1911.00,98.88
1910.00,98.87
1909.00,98.85
1908.00,98.82
1907.00,98.80
1906.00,98.79
1905.00,98.79
1904.00,98.80
1903.00,98.81
1902.00,98.81
1901.00,98.79
1900.00,98.77
1899.00,98.76
1898.00,98.78
1897.00,98.79
1896.00,98.79
1895.00,98.79
1894.00,98.79
1893.00,98.78
1892.00,98.77
1891.00,98.76
1890.00,98.77
1889.00,98.77
1888.00,98.77
1887.00,98.76
1886.00,98.78
1885.00,98.81
1884.00,98.84
1883.00,98.86
1882.00,98.87
1881.00,98.88
1880.00,98.89
1879.00,98.90
1878.00,98.89
1877.00,98.86
1876.00,98.83
1875.00,98.80
1874.00,98.77
1873.00,98.74
1872.00,98.71
1871.00,98.69
1870.00,98.70
1869.00,98.71
1868.00,98.72
1867.00,98.75
1866.00,98.79
1865.00,98.82
1864.00,98.84
1863.00,98.85
1862.00,98.86
1861.00,98.85
1860.00,98.83
1859.00,98.82
1858.00,98.83
1857.00,98.84
1856.00,98.85
1855.00,98.85
1854.00,98.84
1853.00,98.83
1852.00,98.82
1851.00,98.84
1850.00,98.86
1849.00,98.86
1848.00,98.84
1847.00,98.83
1846.00,98.83
1845.00,98.84
1844.00,98.85
1843.00,98.86
1842.00,98.86
1841.00,98.84
1840.00,98.84
1839.00,98.85
1838.00,98.87
1837.00,98.88
1836.00,98.89
1835.00,98.89
1834.00,98.87
1833.00,98.83
1832.00,98.78
1831.00,98.74
1830.00,98.73
1829.00,98.73
1828.00,98.75
1827.00,98.78
1826.00,98.79
1825.00,98.79
1824.00,98.77
1823.00,98.76
1822.00,98.77
1821.00,98.76
1820.00,98.76
1819.00,98.77
1818.00,98.78
1817.00,98.78
1816.00,98.75
1815.00,98.73
1814.00,98.72
1813.00,98.71
1812.00,98.68
1811.00,98.65
1810.00,98.63
1809.00,98.61
1808.00,98.60
1807.00,98.59
1806.00,98.58
1805.00,98.58
1804.00,98.56
1803.00,98.54
1802.00,98.51
1801.00,98.46
1800.00,98.41
1799.00,98.38
1798.00,98.36
1797.00,98.34
1796.00,98.32
1795.00,98.29
1794.00,98.27
1793.00,98.24
1792.00,98.20
1791.00,98.17
1790.00,98.14
1789.00,98.08
1788.00,98.02
1787.00,97.98
1786.00,97.95
1785.00,97.92
1784.00,97.86
1783.00,97.79
1782.00,97.72
1781.00,97.65
1780.00,97.58
1779.00,97.52
1778.00,97.46
1777.00,97.39
1776.00,97.32
1775.00,97.26
1774.00,97.17
1773.00,97.04
1772.00,96.89
1771.00,96.80
1770.00,96.76
1769.00,96.71
1768.00,96.60
1767.00,96.44
1766.00,96.29
1765.00,96.15
1764.00,96.03
1763.00,95.90
1762.00,95.76
1761.00,95.61
1760.00,95.46
1759.00,95.33
1758.00,95.19
1757.00,95.00
1756.00,94.76
1755.00,94.52
1754.00,94.31
1753.00,94.07
1752.00,93.72
1751.00,93.25
1750.00,92.73
1749.00,92.22
1748.00,91.72
1747.00,91.24
1746.00,90.78
1745.00,90.29
1744.00,89.74
1743.00,89.16
1742.00,88.57
1741.00,87.95
1740.00,87.31
1739.00,86.75
1738.00,86.35
1737.00,86.11
1736.00,85.96
1735.00,85.89
1734.00,85.93
1733.00,86.02
1732.00,86.15
1731.00,86.37
1730.00,86.70
1729.00,87.05
1728.00,87.39
1727.00,87.72
1726.00,88.03
1725.00,88.31
1724.00,88.55
1723.00,88.75
1722.00,88.91
1721.00,89.03
1720.00,89.13
1719.00,89.24
1718.00,89.34
1717.00,89.37
1716.00,89.35
1715.00,89.32
1714.00,89.33
1713.00,89.34
1712.00,89.33
1711.00,89.33
1710.00,89.32
1709.00,89.27
1708.00,89.19
1707.00,89.10
1706.00,89.03
1705.00,88.96
1704.00,88.92
1703.00,88.91
1702.00,88.86
1701.00,88.67
1700.00,88.42
1699.00,88.27
1698.00,88.20
1697.00,88.09
1696.00,87.82
1695.00,87.46
1694.00,87.13
1693.00,86.86
1692.00,86.62
1691.00,86.36
1690.00,86.07
1689.00,85.77
1688.00,85.53
1687.00,85.36
1686.00,85.13
1685.00,84.66
1684.00,84.04
1683.00,83.55
1682.00,83.23
1681.00,82.94
1680.00,82.59
1679.00,82.24
1678.00,81.91
1677.00,81.59
1676.00,81.23
1675.00,80.90
1674.00,80.65
1673.00,80.46
1672.00,80.30
1671.00,80.13
1670.00,79.96
1669.00,79.80
1668.00,79.66
1667.00,79.54
1666.00,79.41
1665.00,79.24
1664.00,79.00
1663.00,78.75
1662.00,78.53
1661.00,78.34
1660.00,78.14
1659.00,77.94
1658.00,77.74
1657.00,77.58
1656.00,77.47
1655.00,77.35
1654.00,77.10
1653.00,76.73
1652.00,76.40
1651.00,76.15
1650.00,75.96
1649.00,75.83
1648.00,75.73
1647.00,75.64
1646.00,75.62
1645.00,75.61
1644.00,75.57
1643.00,75.54
1642.00,75.51
1641.00,75.47
1640.00,75.40
1639.00,75.35
1638.00,75.33
1637.00,75.29
1636.00,75.23
1635.00,75.19
1634.00,75.20
1633.00,75.24
1632.00,75.29
1631.00,75.34
1630.00,75.39
1629.00,75.42
1628.00,75.46
1627.00,75.53
1626.00,75.63
1625.00,75.75
1624.00,75.88
1623.00,76.05
1622.00,76.23
1621.00,76.41
1620.00,76.62
1619.00,76.85
1618.00,77.09
1617.00,77.32
1616.00,77.51
1615.00,77.68
1614.00,77.85
1613.00,78.05
1612.00,78.27
1611.00,78.48
1610.00,78.68
1609.00,78.88
1608.00,79.09
1607.00,79.29
1606.00,79.46
1605.00,79.62
1604.00,79.77
1603.00,79.91
1602.00,80.02
1601.00,80.12
1600.00,80.20
1599.00,80.28
1598.00,80.35
1597.00,80.40
1596.00,80.44
1595.00,80.48
1594.00,80.52
1593.00,80.57
1592.00,80.61
1591.00,80.63
1590.00,80.63
1589.00,80.61
1588.00,80.57
1587.00,80.52
1586.00,80.46
1585.00,80.40
1584.00,80.33
1583.00,80.27
1582.00,80.19
1581.00,80.10
1580.00,80.03
1579.00,79.99
1578.00,79.96
1577.00,79.86
1576.00,79.69
1575.00,79.50
1574.00,79.33
1573.00,79.22
1572.00,79.13
1571.00,79.00
1570.00,78.83
1569.00,78.68
1568.00,78.57
1567.00,78.49
1566.00,78.40
1565.00,78.29
1564.00,78.22
1563.00,78.22
1562.00,78.26
1561.00,78.23
1560.00,78.04
1559.00,77.76
1558.00,77.56
1557.00,77.51
1556.00,77.50
1555.00,77.49
1554.00,77.44
1553.00,77.38
1552.00,77.33
1551.00,77.32
1550.00,77.30
1549.00,77.27
1548.00,77.26
1547.00,77.28
1546.00,77.32
1545.00,77.36
1544.00,77.40
1543.00,77.44
1542.00,77.51
1541.00,77.61
1540.00,77.77
1539.00,77.96
1538.00,78.09
1537.00,78.15
1536.00,78.21
1535.00,78.31
1534.00,78.46
1533.00,78.63
1532.00,78.81
1531.00,78.96
1530.00,79.09
1529.00,79.23
1528.00,79.37
1527.00,79.52
1526.00,79.66
1525.00,79.79
1524.00,79.93
1523.00,80.10
1522.00,80.29
1521.00,80.40
1520.00,80.43
1519.00,80.42
1518.00,80.46
1517.00,80.56
1516.00,80.70
1515.00,80.87
1514.00,81.07
1513.00,81.29
1512.00,81.53
1511.00,81.77
1510.00,82.03
1509.00,82.29
1508.00,82.57
1507.00,82.89
1506.00,83.24
1505.00,83.51
1504.00,83.71
1503.00,83.90
1502.00,84.13
1501.00,84.36
1500.00,84.58
1499.00,84.83
1498.00,85.14
1497.00,85.48
1496.00,85.80
1495.00,86.05
1494.00,86.27
1493.00,86.47
1492.00,86.66
1491.00,86.87
1490.00,87.08
1489.00,87.27
1488.00,87.43
1487.00,87.58
1486.00,87.71
1485.00,87.80
1484.00,87.83
1483.00,87.82
1482.00,87.77
1481.00,87.65
1480.00,87.46
1479.00,87.21
1478.00,86.84
1477.00,86.28
1476.00,85.55
1475.00,84.67
1474.00,83.60
1473.00,82.37
1472.00,81.25
1471.00,80.45
1470.00,79.91
1469.00,79.47
1468.00,79.08
1467.00,78.74
1466.00,78.48
1465.00,78.32
1464.00,78.32
1463.00,78.49
1462.00,78.80
1461.00,79.18
1460.00,79.58
1459.00,79.95
1458.00,80.25
1457.00,80.47
1456.00,80.62
1455.00,80.74
1454.00,80.89
1453.00,81.10
1452.00,81.33
1451.00,81.55
1450.00,81.73
1449.00,81.89
1448.00,82.02
1447.00,82.14
1446.00,82.25
1445.00,82.36
1444.00,82.45
1443.00,82.52
1442.00,82.59
1441.00,82.67
1440.00,82.77
1439.00,82.89
1438.00,83.01
1437.00,83.13
1436.00,83.21
1435.00,83.27
1434.00,83.34
1433.00,83.45
1432.00,83.55
1431.00,83.63
1430.00,83.69
1429.00,83.73
1428.00,83.72
1427.00,83.68
1426.00,83.61
1425.00,83.52
1424.00,83.40
1423.00,83.27
1422.00,83.16
1421.00,83.04
1420.00,82.84
1419.00,82.57
1418.00,82.30
1417.00,82.09
1416.00,81.94
1415.00,81.81
1414.00,81.71
1413.00,81.63
1412.00,81.55
1411.00,81.45
1410.00,81.35
1409.00,81.24
1408.00,81.14
1407.00,81.03
1406.00,80.92
1405.00,80.79
1404.00,80.66
1403.00,80.54
1402.00,80.45
1401.00,80.36
1400.00,80.26
1399.00,80.15
1398.00,80.07
1397.00,80.01
1396.00,79.97
1395.00,79.91
1394.00,79.86
1393.00,79.81
1392.00,79.78
1391.00,79.75
1390.00,79.72
1389.00,79.64
1388.00,79.47
1387.00,79.22
1386.00,78.96
1385.00,78.74
1384.00,78.61
1383.00,78.57
1382.00,78.60
1381.00,78.67
1380.00,78.75
1379.00,78.84
1378.00,78.95
1377.00,79.09
1376.00,79.28
1375.00,79.55
1374.00,79.87
1373.00,80.19
1372.00,80.46
1371.00,80.68
1370.00,80.84
1369.00,80.93
1368.00,80.99
1367.00,81.06
1366.00,81.20
1365.00,81.45
1364.00,81.81
1363.00,82.23
1362.00,82.63
1361.00,82.96
1360.00,83.21
1359.00,83.42
1358.00,83.59
1357.00,83.74
1356.00,83.89
1355.00,84.03
1354.00,84.16
1353.00,84.27
1352.00,84.36
1351.00,84.45
1350.00,84.53
1349.00,84.60
1348.00,84.65
1347.00,84.70
1346.00,84.74
1345.00,84.79
1344.00,84.83
1343.00,84.87
1342.00,84.92
1341.00,84.98
1340.00,85.05
1339.00,85.10
1338.00,85.11
1337.00,85.09
1336.00,85.05
1335.00,85.02
1334.00,84.99
1333.00,84.97
1332.00,84.96
1331.00,84.95
1330.00,84.95
1329.00,84.95
1328.00,84.96
1327.00,84.95
1326.00,84.93
1325.00,84.90
1324.00,84.87
1323.00,84.84
1322.00,84.81
1321.00,84.78
1320.00,84.74
1319.00,84.72
1318.00,84.69
1317.00,84.67
1316.00,84.65
1315.00,84.64
1314.00,84.63
1313.00,84.60
1312.00,84.56
1311.00,84.52
1310.00,84.48
1309.00,84.46
1308.00,84.45
1307.00,84.43
1306.00,84.41
1305.00,84.38
1304.00,84.34
1303.00,84.29
1302.00,84.25
1301.00,84.22
1300.00,84.20
1299.00,84.18
1298.00,84.15
1297.00,84.13
1296.00,84.11
1295.00,84.10
1294.00,84.09
1293.00,84.07
1292.00,84.05
1291.00,84.04
1290.00,84.03
1289.00,84.02
1288.00,84.01
1287.00,84.00
1286.00,83.98
1285.00,83.95
1284.00,83.93
1283.00,83.90
1282.00,83.88
1281.00,83.86
1280.00,83.82
1279.00,83.78
1278.00,83.74
1277.00,83.70
1276.00,83.65
1275.00,83.60
1274.00,83.54
1273.00,83.48
1272.00,83.42
1271.00,83.35
1270.00,83.28
1269.00,83.21
1268.00,83.14
1267.00,83.07
1266.00,83.01
1265.00,82.95
1264.00,82.89
1263.00,82.84
1262.00,82.78
1261.00,82.72
1260.00,82.65
1259.00,82.57
1258.00,82.49
1257.00,82.39
1256.00,82.30
1255.00,82.20
1254.00,82.11
1253.00,82.03
1252.00,81.95
1251.00,81.88
1250.00,81.82
1249.00,81.76
1248.00,81.72
1247.00,81.68
1246.00,81.65
1245.00,81.62
1244.00,81.57
1243.00,81.53
1242.00,81.50
1241.00,81.47
1240.00,81.45
1239.00,81.43
1238.00,81.41
1237.00,81.40
1236.00,81.38
1235.00,81.37
1234.00,81.37
1233.00,81.38
1232.00,81.41
1231.00,81.44
1230.00,81.48
1229.00,81.51
1228.00,81.54
1227.00,81.58
1226.00,81.62
1225.00,81.64
1224.00,81.65
1223.00,81.67
1222.00,81.70
1221.00,81.74
1220.00,81.78
1219.00,81.83
1218.00,81.87
1217.00,81.90
1216.00,81.92
1215.00,81.94
1214.00,81.97
1213.00,81.98
1212.00,81.98
1211.00,81.96
1210.00,81.92
1209.00,81.87
1208.00,81.79
1207.00,81.70
1206.00,81.62
1205.00,81.55
1204.00,81.48
1203.00,81.42
1202.00,81.36
1201.00,81.30
1200.00,81.22
1199.00,81.13
1198.00,81.04
1197.00,80.95
1196.00,80.87
1195.00,80.78
1194.00,80.69
1193.00,80.59
1192.00,80.48
1191.00,80.37
1190.00,80.25
1189.00,80.12
1188.00,80.01
1187.00,79.90
1186.00,79.77
1185.00,79.61
1184.00,79.40
1183.00,79.17
1182.00,78.92
1181.00,78.65
1180.00,78.37
1179.00,78.10
1178.00,77.85
1177.00,77.63
1176.00,77.42
1175.00,77.24
1174.00,77.08
1173.00,76.94
1172.00,76.83
1171.00,76.77
1170.00,76.76
1169.00,76.78
1168.00,76.83
1167.00,76.90
1166.00,76.97
1165.00,77.04
1164.00,77.14
1163.00,77.27
1162.00,77.44
1161.00,77.64
1160.00,77.85
1159.00,78.06
1158.00,78.27
1157.00,78.46
1156.00,78.61
1155.00,78.74
1154.00,78.86
1153.00,78.97
1152.00,79.06
1151.00,79.15
1150.00,79.24
1149.00,79.34
1148.00,79.44
1147.00,79.56
1146.00,79.67
1145.00,79.77
1144.00,79.84
1143.00,79.90
1142.00,79.94
1141.00,79.95
1140.00,79.94
1139.00,79.89
1138.00,79.84
1137.00,79.75
1136.00,79.64
1135.00,79.51
1134.00,79.37
1133.00,79.23
1132.00,79.09
1131.00,78.94
1130.00,78.78
1129.00,78.59
1128.00,78.39
1127.00,78.18
1126.00,77.98
1125.00,77.79
1124.00,77.62
1123.00,77.47
1122.00,77.31
1121.00,77.14
1120.00,76.95
1119.00,76.76
1118.00,76.57
1117.00,76.39
1116.00,76.21
1115.00,76.04
1114.00,75.88
1113.00,75.74
1112.00,75.59
1111.00,75.45
1110.00,75.33
1109.00,75.22
1108.00,75.12
1107.00,75.02
1106.00,74.91
1105.00,74.79
1104.00,74.65
1103.00,74.51
1102.00,74.39
1101.00,74.28
1100.00,74.18
1099.00,74.10
1098.00,74.02
1097.00,73.94
1096.00,73.86
1095.00,73.79
1094.00,73.74
1093.00,73.66
1092.00,73.55
1091.00,73.45
1090.00,73.35
1089.00,73.24
1088.00,73.12
1087.00,73.00
1086.00,72.88
1085.00,72.75
1084.00,72.65
1083.00,72.58
1082.00,72.53
1081.00,72.48
1080.00,72.40
1079.00,72.34
1078.00,72.29
1077.00,72.26
1076.00,72.23
1075.00,72.19
1074.00,72.15
1073.00,72.09
1072.00,72.03
1071.00,71.98
1070.00,71.94
1069.00,71.88
1068.00,71.79
1067.00,71.67
1066.00,71.55
1065.00,71.40
1064.00,71.24
1063.00,71.09
1062.00,70.96
1061.00,70.84
1060.00,70.71
1059.00,70.60
1058.00,70.49
1057.00,70.35
1056.00,70.20
1055.00,70.04
1054.00,69.90
1053.00,69.73
1052.00,69.53
1051.00,69.31
1050.00,69.08
1049.00,68.85
1048.00,68.63
1047.00,68.42
1046.00,68.21
1045.00,68.01
1044.00,67.81
1043.00,67.61
1042.00,67.44
1041.00,67.28
1040.00,67.14
1039.00,67.02
1038.00,66.92
1037.00,66.82
1036.00,66.71
1035.00,66.62
1034.00,66.53
1033.00,66.46
1032.00,66.39
1031.00,66.34
1030.00,66.30
1029.00,66.26
1028.00,66.22
1027.00,66.23
1026.00,66.28
1025.00,66.34
1024.00,66.39
1023.00,66.42
1022.00,66.44
1021.00,66.45
1020.00,66.46
1019.00,66.49
1018.00,66.55
1017.00,66.60
1016.00,66.63
1015.00,66.65
1014.00,66.66
1013.00,66.67
1012.00,66.67
1011.00,66.70
1010.00,66.76
1009.00,66.83
1008.00,66.92
1007.00,67.01
1006.00,67.11
1005.00,67.22
1004.00,67.32
1003.00,67.42
1002.00,67.54
1001.00,67.68
1000.00,67.84
999.00,68.01
998.00,68.17
997.00,68.32
996.00,68.44
995.00,68.56
994.00,68.68
993.00,68.80
992.00,68.92
991.00,69.05
990.00,69.19
989.00,69.33
988.00,69.46
987.00,69.59
986.00,69.74
985.00,69.89
984.00,70.04
983.00,70.20
982.00,70.35
981.00,70.51
980.00,70.68
979.00,70.86
978.00,71.06
977.00,71.26
976.00,71.47
975.00,71.70
974.00,71.93
973.00,72.15
972.00,72.37
971.00,72.60
970.00,72.84
969.00,73.07
968.00,73.27
967.00,73.46
966.00,73.64
965.00,73.82
964.00,73.99
963.00,74.16
962.00,74.30
961.00,74.43
960.00,74.54
959.00,74.66
958.00,74.81
957.00,74.97
956.00,75.13
955.00,75.31
954.00,75.48
953.00,75.65
952.00,75.81
951.00,75.96
950.00,76.13
949.00,76.31
948.00,76.47
947.00,76.62
946.00,76.75
945.00,76.86
944.00,76.95
943.00,77.04
942.00,77.10
941.00,77.15
940.00,77.19
939.00,77.23
938.00,77.27
937.00,77.31
936.00,77.35
935.00,77.40
934.00,77.47
933.00,77.57
932.00,77.68
931.00,77.81
930.00,77.93
929.00,78.02
928.00,78.07
927.00,78.09
926.00,78.10
925.00,78.11
924.00,78.12
923.00,78.14
922.00,78.16
921.00,78.18
920.00,78.20
919.00,78.23
918.00,78.28
917.00,78.34
916.00,78.40
915.00,78.49
914.00,78.59
913.00,78.69
912.00,78.79
911.00,78.90
910.00,79.02
909.00,79.17
908.00,79.33
907.00,79.50
906.00,79.67
905.00,79.82
904.00,79.97
903.00,80.14
902.00,80.32
901.00,80.51
900.00,80.67
899.00,80.83
898.00,80.97
897.00,81.10
896.00,81.21
895.00,81.32
894.00,81.43
893.00,81.53
892.00,81.63
891.00,81.72
890.00,81.81
889.00,81.90
888.00,82.02
887.00,82.14
886.00,82.25
885.00,82.33
884.00,82.40
883.00,82.48
882.00,82.56
881.00,82.64
880.00,82.73
879.00,82.82
878.00,82.90
877.00,82.95
876.00,82.99
875.00,83.03
874.00,83.11
873.00,83.21
872.00,83.32
871.00,83.46
870.00,83.59
869.00,83.71
868.00,83.80
867.00,83.88
866.00,83.99
865.00,84.13
864.00,84.31
863.00,84.48
862.00,84.64
861.00,84.75
860.00,84.83
859.00,84.91
858.00,85.01
857.00,85.11
856.00,85.22
855.00,85.32
854.00,85.43
853.00,85.51
852.00,85.57
851.00,85.61
850.00,85.65
849.00,85.70
848.00,85.75
847.00,85.79
846.00,85.82
845.00,85.84
844.00,85.83
843.00,85.80
842.00,85.76
841.00,85.69
840.00,85.62
839.00,85.54
838.00,85.46
837.00,85.38
836.00,85.32
835.00,85.30
834.00,85.32
833.00,85.35
832.00,85.35
831.00,85.33
830.00,85.30
829.00,85.28
828.00,85.27
827.00,85.25
826.00,85.22
825.00,85.19
824.00,85.18
823.00,85.21
822.00,85.25
821.00,85.27
820.00,85.29
819.00,85.29
818.00,85.28
817.00,85.22
816.00,85.12
815.00,84.96
814.00,84.79
813.00,84.60
812.00,84.41
811.00,84.18
810.00,83.90
809.00,83.52
808.00,83.08
807.00,82.59
806.00,82.10
805.00,81.58
804.00,81.02
803.00,80.42
802.00,79.82
801.00,79.24
800.00,78.73
799.00,78.33
798.00,78.05
797.00,77.92
796.00,77.89
795.00,77.94
794.00,78.00
793.00,78.05
792.00,78.10
791.00,78.15
790.00,78.20
789.00,78.22
788.00,78.20
787.00,78.15
786.00,78.07
785.00,77.94
784.00,77.74
783.00,77.49
782.00,77.23
781.00,76.96
780.00,76.69
779.00,76.46
778.00,76.29
777.00,76.18
776.00,76.13
775.00,76.15
774.00,76.26
773.00,76.40
772.00,76.52
771.00,76.62
770.00,76.70
769.00,76.79
768.00,76.88
767.00,76.98
766.00,77.05
765.00,77.10
764.00,77.12
763.00,77.13
762.00,77.13
761.00,77.11
760.00,77.08
759.00,77.06
758.00,77.08
757.00,77.10
756.00,77.10
755.00,77.08
754.00,77.07
753.00,77.06
752.00,77.06
751.00,77.07
750.00,77.06
749.00,77.05
748.00,77.03
747.00,77.04
746.00,77.06
745.00,77.07
744.00,77.06
743.00,77.06
742.00,77.09
741.00,77.12
740.00,77.13
739.00,77.13
738.00,77.10
737.00,77.04
736.00,76.93
735.00,76.80
734.00,76.64
733.00,76.38
732.00,75.99
731.00,75.57
730.00,75.24
729.00,75.04
728.00,74.94
727.00,74.85
726.00,74.70
725.00,74.46
724.00,74.11
723.00,73.69
722.00,73.23
721.00,72.81
720.00,72.55
719.00,72.58
718.00,72.93
717.00,73.49
716.00,74.10
715.00,74.64
714.00,75.07
713.00,75.37
712.00,75.56
711.00,75.67
710.00,75.70
709.00,75.68
708.00,75.61
707.00,75.52
706.00,75.43
705.00,75.31
704.00,75.15
703.00,74.96
702.00,74.76
701.00,74.56
700.00,74.33
699.00,74.06
698.00,73.75
697.00,73.39
696.00,73.03
695.00,72.75
694.00,72.61
693.00,72.60
692.00,72.65
691.00,72.73
690.00,72.85
689.00,72.98
688.00,73.11
687.00,73.22
686.00,73.30
685.00,73.37
684.00,73.42
683.00,73.48
682.00,73.58
681.00,73.69
680.00,73.78
679.00,73.79
678.00,73.77
677.00,73.74
676.00,73.71
675.00,73.68
674.00,73.64
673.00,73.60
672.00,73.56
671.00,73.51
670.00,73.46
669.00,73.43
668.00,73.49
667.00,73.56
666.00,73.55
665.00,73.47
664.00,73.39
663.00,73.38
662.00,73.43
661.00,73.46
660.00,73.39
659.00,73.29
658.00,73.25
657.00,73.28
656.00,73.30
655.00,73.24
654.00,73.10
653.00,72.92
652.00,72.75
651.00,72.59
650.00,72.47
649.00,72.36
648.00,72.29
647.00,72.26
646.00,72.29
645.00,72.35
644.00,72.40
643.00,72.45
642.00,72.48
641.00,72.43
640.00,72.25
639.00,72.02
638.00,71.87
637.00,71.86
636.00,71.96
635.00,72.09
634.00,72.16
633.00,72.09
632.00,71.93
631.00,71.79
630.00,71.73
629.00,71.70
628.00,71.58
627.00,71.37
626.00,71.19
625.00,71.16
624.00,71.27
623.00,71.47
622.00,71.63
621.00,71.59
620.00,71.30
619.00,70.90
618.00,70.64
617.00,70.66
616.00,70.82
615.00,70.86
614.00,70.62
613.00,70.25
612.00,70.02
611.00,70.10
610.00,70.37
609.00,70.64
608.00,70.83
607.00,71.00
606.00,71.11
605.00,71.02
604.00,70.48
603.00,69.36
602.00,67.86
601.00,66.64
600.00,66.42
599.00,67.34
598.00,68.68
597.00,69.57
596.00,69.84
595.00,69.98
594.00,70.30
593.00,70.59
592.00,70.56
591.00,70.21
590.00,69.74
589.00,69.30
588.00,69.00
587.00,68.93
586.00,68.94
585.00,68.74
584.00,68.35
583.00,68.08
582.00,68.10
581.00,68.18
580.00,68.14
579.00,68.15
578.00,68.25
577.00,68.18
576.00,67.75
575.00,67.17
574.00,66.62
573.00,66.09
572.00,65.73
571.00,65.85
570.00,66.24
569.00,66.30
568.00,65.88
567.00,65.40
566.00,65.14
565.00,64.91
564.00,64.64
563.00,64.56
562.00,64.60
561.00,64.37
560.00,63.81
559.00,63.31
558.00,62.89
557.00,62.07
556.00,60.85
555.00,60.02
554.00,60.16
553.00,60.86
552.00,61.59
551.00,62.28
550.00,62.82
