Created as New Dataset,14.3 Red Wool sheep crepe
cm-1,%T
4000.00,97.51
3999.00,97.53
3998.00,97.55
3997.00,97.56
3996.00,97.56
3995.00,97.54
3994.00,97.54
3993.00,97.54
3992.00,97.55
3991.00,97.57
3990.00,97.57
3989.00,97.55
3988.00,97.53
3987.00,97.52
3986.00,97.52
3985.00,97.53
3984.00,97.53
3983.00,97.51
3982.00,97.49
3981.00,97.47
3980.00,97.47
3979.00,97.47
3978.00,97.48
3977.00,97.50
3976.00,97.50
3975.00,97.51
3974.00,97.52
3973.00,97.53
3972.00,97.52
3971.00,97.51
3970.00,97.50
3969.00,97.48
3968.00,97.48
3967.00,97.49
3966.00,97.50
3965.00,97.52
3964.00,97.54
3963.00,97.55
3962.00,97.55
3961.00,97.54
3960.00,97.53
3959.00,97.53
3958.00,97.52
3957.00,97.52
3956.00,97.52
3955.00,97.53
3954.00,97.53
3953.00,97.53
3952.00,97.52
3951.00,97.51
3950.00,97.49
3949.00,97.49
3948.00,97.50
3947.00,97.51
3946.00,97.51
3945.00,97.51
3944.00,97.51
3943.00,97.52
3942.00,97.52
3941.00,97.51
3940.00,97.51
3939.00,97.50
3938.00,97.50
3937.00,97.50
3936.00,97.49
3935.00,97.48
3934.00,97.48
3933.00,97.48
3932.00,97.47
3931.00,97.46
3930.00,97.45
3929.00,97.45
3928.00,97.45
3927.00,97.46
3926.00,97.47
3925.00,97.48
3924.00,97.47
3923.00,97.45
3922.00,97.44
3921.00,97.45
3920.00,97.47
3919.00,97.49
3918.00,97.50
3917.00,97.49
3916.00,97.47
3915.00,97.46
3914.00,97.47
3913.00,97.50
3912.00,97.54
3911.00,97.57
3910.00,97.58
3909.00,97.56
3908.00,97.53
3907.00,97.49
3906.00,97.45
3905.00,97.43
3904.00,97.40
3903.00,97.37
3902.00,97.33
3901.00,97.33
3900.00,97.35
3899.00,97.38
3898.00,97.40
3897.00,97.42
3896.00,97.42
3895.00,97.41
3894.00,97.40
3893.00,97.41
3892.00,97.42
3891.00,97.43
3890.00,97.43
3889.00,97.40
3888.00,97.38
3887.00,97.39
3886.00,97.41
3885.00,97.41
3884.00,97.39
3883.00,97.37
3882.00,97.37
3881.00,97.40
3880.00,97.42
3879.00,97.42
3878.00,97.40
3877.00,97.38
3876.00,97.38
3875.00,97.40
3874.00,97.39
3873.00,97.36
3872.00,97.34
3871.00,97.35
3870.00,97.38
3869.00,97.39
3868.00,97.37
3867.00,97.36
3866.00,97.38
3865.00,97.42
3864.00,97.43
3863.00,97.42
3862.00,97.41
3861.00,97.41
3860.00,97.42
3859.00,97.42
3858.00,97.41
3857.00,97.37
3856.00,97.32
3855.00,97.31
3854.00,97.31
3853.00,97.31
3852.00,97.29
3851.00,97.29
3850.00,97.31
3849.00,97.34
3848.00,97.37
3847.00,97.39
3846.00,97.41
3845.00,97.42
3844.00,97.40
3843.00,97.36
3842.00,97.31
3841.00,97.26
3840.00,97.26
3839.00,97.29
3838.00,97.31
3837.00,97.33
3836.00,97.33
3835.00,97.32
3834.00,97.33
3833.00,97.35
3832.00,97.37
3831.00,97.37
3830.00,97.37
3829.00,97.37
3828.00,97.37
3827.00,97.38
3826.00,97.38
3825.00,97.35
3824.00,97.30
3823.00,97.29
3822.00,97.33
3821.00,97.37
3820.00,97.38
3819.00,97.36
3818.00,97.34
3817.00,97.36
3816.00,97.39
3815.00,97.40
3814.00,97.38
3813.00,97.38
3812.00,97.39
3811.00,97.40
3810.00,97.40
3809.00,97.41
3808.00,97.42
3807.00,97.43
3806.00,97.40
3805.00,97.34
3804.00,97.28
3803.00,97.27
3802.00,97.30
3801.00,97.31
3800.00,97.29
3799.00,97.28
3798.00,97.30
3797.00,97.34
3796.00,97.37
3795.00,97.37
3794.00,97.35
3793.00,97.34
3792.00,97.35
3791.00,97.37
3790.00,97.39
3789.00,97.39
3788.00,97.39
3787.00,97.37
3786.00,97.37
3785.00,97.37
3784.00,97.37
3783.00,97.36
3782.00,97.35
3781.00,97.34
3780.00,97.34
3779.00,97.35
3778.00,97.36
3777.00,97.37
3776.00,97.38
3775.00,97.39
3774.00,97.38
3773.00,97.35
3772.00,97.34
3771.00,97.34
3770.00,97.33
3769.00,97.31
3768.00,97.28
3767.00,97.28
3766.00,97.29
3765.00,97.32
3764.00,97.32
3763.00,97.31
3762.00,97.31
3761.00,97.33
3760.00,97.35
3759.00,97.35
3758.00,97.33
3757.00,97.29
3756.00,97.25
3755.00,97.21
3754.00,97.18
3753.00,97.18
3752.00,97.17
3751.00,97.17
3750.00,97.16
3749.00,97.16
3748.00,97.16
3747.00,97.15
3746.00,97.17
3745.00,97.20
3744.00,97.19
3743.00,97.15
3742.00,97.13
3741.00,97.15
3740.00,97.18
3739.00,97.20
3738.00,97.19
3737.00,97.18
3736.00,97.17
3735.00,97.16
3734.00,97.16
3733.00,97.19
3732.00,97.22
3731.00,97.25
3730.00,97.25
3729.00,97.24
3728.00,97.23
3727.00,97.24
3726.00,97.24
3725.00,97.22
3724.00,97.21
3723.00,97.21
3722.00,97.22
3721.00,97.22
3720.00,97.22
3719.00,97.22
3718.00,97.22
3717.00,97.22
3716.00,97.22
3715.00,97.21
3714.00,97.20
3713.00,97.19
3712.00,97.15
3711.00,97.11
3710.00,97.09
3709.00,97.09
3708.00,97.11
3707.00,97.14
3706.00,97.16
3705.00,97.19
3704.00,97.20
3703.00,97.21
3702.00,97.19
3701.00,97.16
3700.00,97.13
3699.00,97.11
3698.00,97.12
3697.00,97.14
3696.00,97.14
3695.00,97.13
3694.00,97.10
3693.00,97.08
3692.00,97.06
3691.00,97.06
3690.00,97.06
3689.00,97.06
3688.00,97.04
3687.00,97.04
3686.00,97.04
3685.00,97.06
3684.00,97.09
3683.00,97.10
3682.00,97.10
3681.00,97.08
3680.00,97.04
3679.00,96.98
3678.00,96.92
3677.00,96.89
3676.00,96.88
3675.00,96.86
3674.00,96.80
3673.00,96.75
3672.00,96.73
3671.00,96.78
3670.00,96.84
3669.00,96.88
3668.00,96.88
3667.00,96.87
3666.00,96.85
3665.00,96.83
3664.00,96.82
3663.00,96.82
3662.00,96.82
3661.00,96.82
3660.00,96.80
3659.00,96.77
3658.00,96.74
3657.00,96.71
3656.00,96.67
3655.00,96.61
3654.00,96.55
3653.00,96.48
3652.00,96.43
3651.00,96.40
3650.00,96.35
3649.00,96.30
3648.00,96.26
3647.00,96.26
3646.00,96.27
3645.00,96.30
3644.00,96.33
3643.00,96.35
3642.00,96.38
3641.00,96.38
3640.00,96.39
3639.00,96.38
3638.00,96.37
3637.00,96.34
3636.00,96.28
3635.00,96.22
3634.00,96.16
3633.00,96.10
3632.00,96.03
3631.00,95.98
3630.00,95.93
3629.00,95.89
3628.00,95.85
3627.00,95.83
3626.00,95.83
3625.00,95.85
3624.00,95.86
3623.00,95.84
3622.00,95.78
3621.00,95.72
3620.00,95.67
3619.00,95.63
3618.00,95.61
3617.00,95.59
3616.00,95.57
3615.00,95.54
3614.00,95.50
3613.00,95.47
3612.00,95.45
3611.00,95.45
3610.00,95.46
3609.00,95.47
3608.00,95.45
3607.00,95.41
3606.00,95.35
3605.00,95.29
3604.00,95.24
3603.00,95.20
3602.00,95.18
3601.00,95.16
3600.00,95.13
3599.00,95.10
3598.00,95.06
3597.00,95.01
3596.00,94.97
3595.00,94.94
3594.00,94.93
3593.00,94.92
3592.00,94.90
3591.00,94.85
3590.00,94.80
3589.00,94.75
3588.00,94.71
3587.00,94.67
3586.00,94.63
3585.00,94.59
3584.00,94.55
3583.00,94.51
3582.00,94.48
3581.00,94.47
3580.00,94.46
3579.00,94.46
3578.00,94.43
3577.00,94.40
3576.00,94.36
3575.00,94.33
3574.00,94.28
3573.00,94.23
3572.00,94.18
3571.00,94.12
3570.00,94.08
3569.00,94.06
3568.00,94.06
3567.00,94.06
3566.00,94.04
3565.00,94.00
3564.00,93.96
3563.00,93.93
3562.00,93.90
3561.00,93.87
3560.00,93.84
3559.00,93.80
3558.00,93.75
3557.00,93.69
3556.00,93.63
3555.00,93.57
3554.00,93.52
3553.00,93.48
3552.00,93.45
3551.00,93.42
3550.00,93.39
3549.00,93.35
3548.00,93.31
3547.00,93.28
3546.00,93.25
3545.00,93.22
3544.00,93.19
3543.00,93.17
3542.00,93.16
3541.00,93.15
3540.00,93.13
3539.00,93.11
3538.00,93.08
3537.00,93.05
3536.00,93.01
3535.00,92.97
3534.00,92.93
3533.00,92.89
3532.00,92.84
3531.00,92.79
3530.00,92.73
3529.00,92.69
3528.00,92.66
3527.00,92.61
3526.00,92.56
3525.00,92.52
3524.00,92.50
3523.00,92.50
3522.00,92.50
3521.00,92.49
3520.00,92.46
3519.00,92.42
3518.00,92.40
3517.00,92.38
3516.00,92.36
3515.00,92.34
3514.00,92.31
3513.00,92.29
3512.00,92.26
3511.00,92.23
3510.00,92.18
3509.00,92.12
3508.00,92.07
3507.00,92.03
3506.00,92.00
3505.00,91.98
3504.00,91.96
3503.00,91.94
3502.00,91.91
3501.00,91.88
3500.00,91.84
3499.00,91.79
3498.00,91.75
3497.00,91.72
3496.00,91.69
3495.00,91.68
3494.00,91.67
3493.00,91.66
3492.00,91.64
3491.00,91.62
3490.00,91.60
3489.00,91.60
3488.00,91.60
3487.00,91.59
3486.00,91.55
3485.00,91.50
3484.00,91.43
3483.00,91.35
3482.00,91.29
3481.00,91.26
3480.00,91.25
3479.00,91.24
3478.00,91.22
3477.00,91.18
3476.00,91.13
3475.00,91.11
3474.00,91.10
3473.00,91.09
3472.00,91.07
3471.00,91.02
3470.00,90.97
3469.00,90.90
3468.00,90.85
3467.00,90.82
3466.00,90.82
3465.00,90.82
3464.00,90.81
3463.00,90.78
3462.00,90.75
3461.00,90.72
3460.00,90.69
3459.00,90.66
3458.00,90.64
3457.00,90.61
3456.00,90.59
3455.00,90.56
3454.00,90.53
3453.00,90.49
3452.00,90.44
3451.00,90.40
3450.00,90.36
3449.00,90.33
3448.00,90.31
3447.00,90.29
3446.00,90.27
3445.00,90.23
3444.00,90.20
3443.00,90.18
3442.00,90.16
3441.00,90.13
3440.00,90.08
3439.00,90.02
3438.00,89.98
3437.00,89.96
3436.00,89.95
3435.00,89.93
3434.00,89.91
3433.00,89.87
3432.00,89.84
3431.00,89.81
3430.00,89.79
3429.00,89.75
3428.00,89.71
3427.00,89.65
3426.00,89.61
3425.00,89.57
3424.00,89.54
3423.00,89.51
3422.00,89.48
3421.00,89.44
3420.00,89.40
3419.00,89.35
3418.00,89.31
3417.00,89.28
3416.00,89.26
3415.00,89.24
3414.00,89.22
3413.00,89.19
3412.00,89.17
3411.00,89.13
3410.00,89.09
3409.00,89.05
3408.00,89.00
3407.00,88.97
3406.00,88.95
3405.00,88.92
3404.00,88.89
3403.00,88.84
3402.00,88.79
3401.00,88.74
3400.00,88.70
3399.00,88.69
3398.00,88.68
3397.00,88.68
3396.00,88.67
3395.00,88.64
3394.00,88.60
3393.00,88.55
3392.00,88.52
3391.00,88.49
3390.00,88.46
3389.00,88.43
3388.00,88.39
3387.00,88.35
3386.00,88.31
3385.00,88.28
3384.00,88.25
3383.00,88.21
3382.00,88.18
3381.00,88.15
3380.00,88.12
3379.00,88.09
3378.00,88.06
3377.00,88.02
3376.00,88.00
3375.00,87.98
3374.00,87.95
3373.00,87.92
3372.00,87.87
3371.00,87.82
3370.00,87.77
3369.00,87.72
3368.00,87.66
3367.00,87.60
3366.00,87.55
3365.00,87.49
3364.00,87.45
3363.00,87.41
3362.00,87.38
3361.00,87.36
3360.00,87.33
3359.00,87.31
3358.00,87.27
3357.00,87.23
3356.00,87.17
3355.00,87.11
3354.00,87.05
3353.00,87.01
3352.00,86.97
3351.00,86.93
3350.00,86.89
3349.00,86.85
3348.00,86.81
3347.00,86.76
3346.00,86.72
3345.00,86.68
3344.00,86.64
3343.00,86.60
3342.00,86.54
3341.00,86.47
3340.00,86.41
3339.00,86.36
3338.00,86.32
3337.00,86.28
3336.00,86.24
3335.00,86.21
3334.00,86.16
3333.00,86.11
3332.00,86.04
3331.00,85.96
3330.00,85.90
3329.00,85.85
3328.00,85.84
3327.00,85.82
3326.00,85.80
3325.00,85.76
3324.00,85.69
3323.00,85.63
3322.00,85.57
3321.00,85.51
3320.00,85.47
3319.00,85.42
3318.00,85.37
3317.00,85.32
3316.00,85.25
3315.00,85.19
3314.00,85.12
3313.00,85.06
3312.00,85.00
3311.00,84.96
3310.00,84.93
3309.00,84.89
3308.00,84.84
3307.00,84.79
3306.00,84.73
3305.00,84.67
3304.00,84.60
3303.00,84.53
3302.00,84.48
3301.00,84.43
3300.00,84.40
3299.00,84.36
3298.00,84.32
3297.00,84.27
3296.00,84.21
3295.00,84.16
3294.00,84.12
3293.00,84.09
3292.00,84.06
3291.00,84.04
3290.00,84.02
3289.00,84.00
3288.00,83.98
3287.00,83.94
3286.00,83.90
3285.00,83.87
3284.00,83.85
3283.00,83.85
3282.00,83.86
3281.00,83.85
3280.00,83.83
3279.00,83.79
3278.00,83.75
3277.00,83.72
3276.00,83.71
3275.00,83.72
3274.00,83.73
3273.00,83.75
3272.00,83.78
3271.00,83.80
3270.00,83.83
3269.00,83.85
3268.00,83.88
3267.00,83.92
3266.00,83.98
3265.00,84.03
3264.00,84.07
3263.00,84.11
3262.00,84.15
3261.00,84.20
3260.00,84.24
3259.00,84.27
3258.00,84.30
3257.00,84.32
3256.00,84.35
3255.00,84.40
3254.00,84.46
3253.00,84.51
3252.00,84.55
3251.00,84.59
3250.00,84.64
3249.00,84.70
3248.00,84.77
3247.00,84.83
3246.00,84.88
3245.00,84.92
3244.00,84.97
3243.00,85.03
3242.00,85.09
3241.00,85.15
3240.00,85.21
3239.00,85.26
3238.00,85.30
3237.00,85.33
3236.00,85.35
3235.00,85.36
3234.00,85.39
3233.00,85.42
3232.00,85.45
3231.00,85.49
3230.00,85.54
3229.00,85.59
3228.00,85.63
3227.00,85.65
3226.00,85.67
3225.00,85.69
3224.00,85.72
3223.00,85.77
3222.00,85.82
3221.00,85.87
3220.00,85.91
3219.00,85.94
3218.00,85.96
3217.00,85.99
3216.00,86.02
3215.00,86.06
3214.00,86.10
3213.00,86.13
3212.00,86.16
3211.00,86.18
3210.00,86.19
3209.00,86.20
3208.00,86.21
3207.00,86.24
3206.00,86.27
3205.00,86.31
3204.00,86.35
3203.00,86.38
3202.00,86.40
3201.00,86.43
3200.00,86.47
3199.00,86.52
3198.00,86.57
3197.00,86.62
3196.00,86.67
3195.00,86.72
3194.00,86.77
3193.00,86.81
3192.00,86.84
3191.00,86.88
3190.00,86.93
3189.00,86.97
3188.00,87.02
3187.00,87.05
3186.00,87.09
3185.00,87.14
3184.00,87.19
3183.00,87.24
3182.00,87.28
3181.00,87.31
3180.00,87.36
3179.00,87.41
3178.00,87.47
3177.00,87.53
3176.00,87.58
3175.00,87.63
3174.00,87.68
3173.00,87.72
3172.00,87.76
3171.00,87.80
3170.00,87.85
3169.00,87.89
3168.00,87.94
3167.00,88.00
3166.00,88.06
3165.00,88.12
3164.00,88.18
3163.00,88.22
3162.00,88.26
3161.00,88.30
3160.00,88.33
3159.00,88.37
3158.00,88.40
3157.00,88.44
3156.00,88.47
3155.00,88.51
3154.00,88.56
3153.00,88.61
3152.00,88.67
3151.00,88.74
3150.00,88.80
3149.00,88.86
3148.00,88.89
3147.00,88.91
3146.00,88.93
3145.00,88.97
3144.00,89.02
3143.00,89.07
3142.00,89.11
3141.00,89.13
3140.00,89.15
3139.00,89.19
3138.00,89.23
3137.00,89.28
3136.00,89.32
3135.00,89.35
3134.00,89.37
3133.00,89.40
3132.00,89.42
3131.00,89.45
3130.00,89.48
3129.00,89.50
3128.00,89.52
3127.00,89.54
3126.00,89.56
3125.00,89.58
3124.00,89.61
3123.00,89.65
3122.00,89.68
3121.00,89.71
3120.00,89.74
3119.00,89.76
3118.00,89.78
3117.00,89.80
3116.00,89.80
3115.00,89.79
3114.00,89.79
3113.00,89.78
3112.00,89.79
3111.00,89.81
3110.00,89.83
3109.00,89.85
3108.00,89.86
3107.00,89.85
3106.00,89.85
3105.00,89.84
3104.00,89.82
3103.00,89.81
3102.00,89.81
3101.00,89.80
3100.00,89.81
3099.00,89.81
3098.00,89.80
3097.00,89.79
3096.00,89.76
3095.00,89.74
3094.00,89.72
3093.00,89.72
3092.00,89.72
3091.00,89.72
3090.00,89.72
3089.00,89.70
3088.00,89.69
3087.00,89.67
3086.00,89.66
3085.00,89.64
3084.00,89.62
3083.00,89.59
3082.00,89.57
3081.00,89.55
3080.00,89.54
3079.00,89.53
3078.00,89.54
3077.00,89.55
3076.00,89.56
3075.00,89.55
3074.00,89.54
3073.00,89.53
3072.00,89.54
3071.00,89.55
3070.00,89.55
3069.00,89.56
3068.00,89.56
3067.00,89.57
3066.00,89.57
3065.00,89.57
3064.00,89.57
3063.00,89.57
3062.00,89.58
3061.00,89.60
3060.00,89.62
3059.00,89.64
3058.00,89.66
3057.00,89.67
3056.00,89.69
3055.00,89.71
3054.00,89.74
3053.00,89.76
3052.00,89.79
3051.00,89.83
3050.00,89.88
3049.00,89.92
3048.00,89.95
3047.00,89.98
3046.00,90.00
3045.00,90.02
3044.00,90.04
3043.00,90.07
3042.00,90.10
3041.00,90.14
3040.00,90.18
3039.00,90.21
3038.00,90.24
3037.00,90.27
3036.00,90.30
3035.00,90.33
3034.00,90.36
3033.00,90.38
3032.00,90.41
3031.00,90.45
3030.00,90.50
3029.00,90.55
3028.00,90.59
3027.00,90.62
3026.00,90.65
3025.00,90.67
3024.00,90.69
3023.00,90.72
3022.00,90.76
3021.00,90.81
3020.00,90.86
3019.00,90.91
3018.00,90.94
3017.00,90.97
3016.00,91.00
3015.00,91.04
3014.00,91.08
3013.00,91.11
3012.00,91.12
3011.00,91.12
3010.00,91.12
3009.00,91.13
3008.00,91.15
3007.00,91.18
3006.00,91.19
3005.00,91.19
3004.00,91.19
3003.00,91.19
3002.00,91.19
3001.00,91.20
3000.00,91.22
2999.00,91.23
2998.00,91.23
2997.00,91.23
2996.00,91.21
2995.00,91.19
2994.00,91.15
2993.00,91.11
2992.00,91.06
2991.00,91.02
2990.00,90.98
2989.00,90.94
2988.00,90.90
2987.00,90.87
2986.00,90.83
2985.00,90.79
2984.00,90.74
2983.00,90.69
2982.00,90.62
2981.00,90.55
2980.00,90.48
2979.00,90.41
2978.00,90.35
2977.00,90.29
2976.00,90.22
2975.00,90.15
2974.00,90.09
2973.00,90.02
2972.00,89.96
2971.00,89.90
2970.00,89.86
2969.00,89.82
2968.00,89.78
2967.00,89.75
2966.00,89.70
2965.00,89.65
2964.00,89.60
2963.00,89.56
2962.00,89.53
2961.00,89.52
2960.00,89.52
2959.00,89.53
2958.00,89.55
2957.00,89.59
2956.00,89.63
2955.00,89.66
2954.00,89.69
2953.00,89.70
2952.00,89.72
2951.00,89.75
2950.00,89.78
2949.00,89.82
2948.00,89.86
2947.00,89.88
2946.00,89.88
2945.00,89.86
2944.00,89.83
2943.00,89.82
2942.00,89.81
2941.00,89.81
2940.00,89.78
2939.00,89.74
2938.00,89.69
2937.00,89.64
2936.00,89.59
2935.00,89.57
2934.00,89.57
2933.00,89.59
2932.00,89.61
2931.00,89.63
2930.00,89.63
2929.00,89.63
2928.00,89.64
2927.00,89.65
2926.00,89.67
2925.00,89.70
2924.00,89.75
2923.00,89.80
2922.00,89.86
2921.00,89.92
2920.00,89.99
2919.00,90.05
2918.00,90.12
2917.00,90.18
2916.00,90.24
2915.00,90.30
2914.00,90.35
2913.00,90.40
2912.00,90.46
2911.00,90.53
2910.00,90.61
2909.00,90.69
2908.00,90.76
2907.00,90.82
2906.00,90.86
2905.00,90.90
2904.00,90.95
2903.00,90.99
2902.00,91.03
2901.00,91.06
2900.00,91.09
2899.00,91.12
2898.00,91.14
2897.00,91.16
2896.00,91.18
2895.00,91.20
2894.00,91.22
2893.00,91.25
2892.00,91.26
2891.00,91.26
2890.00,91.26
2889.00,91.25
2888.00,91.25
2887.00,91.25
2886.00,91.26
2885.00,91.26
2884.00,91.26
2883.00,91.25
2882.00,91.24
2881.00,91.21
2880.00,91.19
2879.00,91.16
2878.00,91.15
2877.00,91.14
2876.00,91.12
2875.00,91.12
2874.00,91.13
2873.00,91.15
2872.00,91.18
2871.00,91.21
2870.00,91.26
2869.00,91.32
2868.00,91.39
2867.00,91.46
2866.00,91.52
2865.00,91.58
2864.00,91.64
2863.00,91.70
2862.00,91.76
2861.00,91.79
2860.00,91.81
2859.00,91.82
2858.00,91.83
2857.00,91.85
2856.00,91.88
2855.00,91.90
2854.00,91.92
2853.00,91.94
2852.00,91.96
2851.00,92.01
2850.00,92.07
2849.00,92.14
2848.00,92.22
2847.00,92.28
2846.00,92.33
2845.00,92.36
2844.00,92.40
2843.00,92.45
2842.00,92.50
2841.00,92.55
2840.00,92.59
2839.00,92.62
2838.00,92.65
2837.00,92.67
2836.00,92.69
2835.00,92.72
2834.00,92.75
2833.00,92.77
2832.00,92.80
2831.00,92.82
2830.00,92.83
2829.00,92.84
2828.00,92.85
2827.00,92.87
2826.00,92.88
2825.00,92.91
2824.00,92.93
2823.00,92.95
2822.00,92.97
2821.00,92.99
2820.00,93.00
2819.00,93.01
2818.00,93.01
2817.00,93.01
2816.00,93.02
2815.00,93.04
2814.00,93.05
2813.00,93.05
2812.00,93.05
2811.00,93.05
2810.00,93.06
2809.00,93.07
2808.00,93.08
2807.00,93.08
2806.00,93.10
2805.00,93.12
2804.00,93.16
2803.00,93.21
2802.00,93.24
2801.00,93.26
2800.00,93.27
2799.00,93.27
2798.00,93.27
2797.00,93.27
2796.00,93.29
2795.00,93.32
2794.00,93.35
2793.00,93.37
2792.00,93.38
2791.00,93.38
2790.00,93.39
2789.00,93.39
2788.00,93.40
2787.00,93.40
2786.00,93.41
2785.00,93.43
2784.00,93.45
2783.00,93.47
2782.00,93.48
2781.00,93.50
2780.00,93.51
2779.00,93.52
2778.00,93.53
2777.00,93.54
2776.00,93.55
2775.00,93.56
2774.00,93.57
2773.00,93.59
2772.00,93.60
2771.00,93.60
2770.00,93.59
2769.00,93.60
2768.00,93.61
2767.00,93.62
2766.00,93.62
2765.00,93.62
2764.00,93.62
2763.00,93.64
2762.00,93.67
2761.00,93.70
2760.00,93.73
2759.00,93.74
2758.00,93.74
2757.00,93.74
2756.00,93.74
2755.00,93.75
2754.00,93.76
2753.00,93.76
2752.00,93.76
2751.00,93.76
2750.00,93.76
2749.00,93.78
2748.00,93.81
2747.00,93.83
2746.00,93.84
2745.00,93.84
2744.00,93.84
2743.00,93.84
2742.00,93.85
2741.00,93.86
2740.00,93.88
2739.00,93.88
2738.00,93.89
2737.00,93.91
2736.00,93.92
2735.00,93.94
2734.00,93.95
2733.00,93.96
2732.00,93.96
2731.00,93.96
2730.00,93.96
2729.00,93.97
2728.00,93.98
2727.00,93.99
2726.00,94.00
2725.00,94.01
2724.00,94.02
2723.00,94.04
2722.00,94.06
2721.00,94.07
2720.00,94.08
2719.00,94.08
2718.00,94.08
2717.00,94.09
2716.00,94.10
2715.00,94.10
2714.00,94.10
2713.00,94.11
2712.00,94.12
2711.00,94.14
2710.00,94.15
2709.00,94.15
2708.00,94.14
2707.00,94.12
2706.00,94.12
2705.00,94.13
2704.00,94.14
2703.00,94.16
2702.00,94.18
2701.00,94.19
2700.00,94.20
2699.00,94.21
2698.00,94.21
2697.00,94.22
2696.00,94.22
2695.00,94.22
2694.00,94.23
2693.00,94.23
2692.00,94.23
2691.00,94.24
2690.00,94.25
2689.00,94.27
2688.00,94.29
2687.00,94.29
2686.00,94.29
2685.00,94.28
2684.00,94.29
2683.00,94.30
2682.00,94.32
2681.00,94.33
2680.00,94.34
2679.00,94.33
2678.00,94.32
2677.00,94.31
2676.00,94.31
2675.00,94.31
2674.00,94.32
2673.00,94.32
2672.00,94.34
2671.00,94.35
2670.00,94.37
2669.00,94.37
2668.00,94.36
2667.00,94.35
2666.00,94.34
2665.00,94.34
2664.00,94.34
2663.00,94.34
2662.00,94.34
2661.00,94.35
2660.00,94.35
2659.00,94.35
2658.00,94.35
2657.00,94.35
2656.00,94.35
2655.00,94.34
2654.00,94.32
2653.00,94.30
2652.00,94.29
2651.00,94.29
2650.00,94.29
2649.00,94.29
2648.00,94.28
2647.00,94.28
2646.00,94.27
2645.00,94.27
2644.00,94.27
2643.00,94.26
2642.00,94.25
2641.00,94.23
2640.00,94.23
2639.00,94.23
2638.00,94.24
2637.00,94.25
2636.00,94.25
2635.00,94.26
2634.00,94.25
2633.00,94.25
2632.00,94.24
2631.00,94.23
2630.00,94.22
2629.00,94.21
2628.00,94.20
2627.00,94.19
2626.00,94.18
2625.00,94.17
2624.00,94.17
2623.00,94.18
2622.00,94.19
2621.00,94.20
2620.00,94.20
2619.00,94.20
2618.00,94.20
2617.00,94.20
2616.00,94.19
2615.00,94.18
2614.00,94.18
2613.00,94.19
2612.00,94.20
2611.00,94.19
2610.00,94.17
2609.00,94.17
2608.00,94.18
2607.00,94.20
2606.00,94.22
2605.00,94.23
2604.00,94.22
2603.00,94.20
2602.00,94.20
2601.00,94.20
2600.00,94.21
2599.00,94.21
2598.00,94.20
2597.00,94.19
2596.00,94.19
2595.00,94.20
2594.00,94.22
2593.00,94.24
2592.00,94.24
2591.00,94.23
2590.00,94.22
2589.00,94.22
2588.00,94.22
2587.00,94.24
2586.00,94.25
2585.00,94.25
2584.00,94.24
2583.00,94.22
2582.00,94.20
2581.00,94.19
2580.00,94.19
2579.00,94.20
2578.00,94.20
2577.00,94.21
2576.00,94.21
2575.00,94.21
2574.00,94.20
2573.00,94.19
2572.00,94.20
2571.00,94.21
2570.00,94.24
2569.00,94.25
2568.00,94.26
2567.00,94.26
2566.00,94.24
2565.00,94.22
2564.00,94.22
2563.00,94.22
2562.00,94.22
2561.00,94.22
2560.00,94.22
2559.00,94.23
2558.00,94.24
2557.00,94.23
2556.00,94.22
2555.00,94.20
2554.00,94.20
2553.00,94.23
2552.00,94.26
2551.00,94.28
2550.00,94.28
2549.00,94.26
2548.00,94.25
2547.00,94.24
2546.00,94.24
2545.00,94.23
2544.00,94.24
2543.00,94.27
2542.00,94.31
2541.00,94.34
2540.00,94.35
2539.00,94.36
2538.00,94.35
2537.00,94.34
2536.00,94.33
2535.00,94.32
2534.00,94.32
2533.00,94.32
2532.00,94.33
2531.00,94.33
2530.00,94.33
2529.00,94.32
2528.00,94.31
2527.00,94.30
2526.00,94.29
2525.00,94.28
2524.00,94.28
2523.00,94.29
2522.00,94.32
2521.00,94.34
2520.00,94.35
2519.00,94.36
2518.00,94.37
2517.00,94.36
2516.00,94.34
2515.00,94.32
2514.00,94.30
2513.00,94.30
2512.00,94.31
2511.00,94.32
2510.00,94.33
2509.00,94.35
2508.00,94.36
2507.00,94.36
2506.00,94.34
2505.00,94.32
2504.00,94.31
2503.00,94.32
2502.00,94.33
2501.00,94.33
2500.00,94.34
2499.00,94.35
2498.00,94.36
2497.00,94.35
2496.00,94.33
2495.00,94.31
2494.00,94.30
2493.00,94.33
2492.00,94.36
2491.00,94.39
2490.00,94.39
2489.00,94.39
2488.00,94.39
2487.00,94.41
2486.00,94.43
2485.00,94.44
2484.00,94.45
2483.00,94.44
2482.00,94.43
2481.00,94.42
2480.00,94.43
2479.00,94.44
2478.00,94.45
2477.00,94.46
2476.00,94.45
2475.00,94.45
2474.00,94.46
2473.00,94.47
2472.00,94.47
2471.00,94.47
2470.00,94.46
2469.00,94.46
2468.00,94.48
2467.00,94.49
2466.00,94.51
2465.00,94.52
2464.00,94.52
2463.00,94.52
2462.00,94.52
2461.00,94.52
2460.00,94.51
2459.00,94.49
2458.00,94.47
2457.00,94.46
2456.00,94.46
2455.00,94.46
2454.00,94.46
2453.00,94.46
2452.00,94.47
2451.00,94.47
2450.00,94.47
2449.00,94.48
2448.00,94.50
2447.00,94.53
2446.00,94.56
2445.00,94.58
2444.00,94.59
2443.00,94.58
2442.00,94.56
2441.00,94.54
2440.00,94.53
2439.00,94.55
2438.00,94.57
2437.00,94.60
2436.00,94.61
2435.00,94.62
2434.00,94.61
2433.00,94.60
2432.00,94.60
2431.00,94.60
2430.00,94.61
2429.00,94.63
2428.00,94.63
2427.00,94.63
2426.00,94.63
2425.00,94.62
2424.00,94.63
2423.00,94.66
2422.00,94.69
2421.00,94.72
2420.00,94.73
2419.00,94.73
2418.00,94.72
2417.00,94.70
2416.00,94.69
2415.00,94.68
2414.00,94.67
2413.00,94.67
2412.00,94.69
2411.00,94.71
2410.00,94.73
2409.00,94.74
2408.00,94.73
2407.00,94.73
2406.00,94.72
2405.00,94.72
2404.00,94.72
2403.00,94.71
2402.00,94.71
2401.00,94.71
2400.00,94.72
2399.00,94.74
2398.00,94.75
2397.00,94.76
2396.00,94.77
2395.00,94.78
2394.00,94.79
2393.00,94.80
2392.00,94.80
2391.00,94.82
2390.00,94.83
2389.00,94.84
2388.00,94.86
2387.00,94.86
2386.00,94.87
2385.00,94.86
2384.00,94.85
2383.00,94.87
2382.00,94.89
2381.00,94.91
2380.00,94.93
2379.00,94.93
2378.00,94.92
2377.00,94.90
2376.00,94.89
2375.00,94.90
2374.00,94.94
2373.00,95.01
2372.00,95.06
2371.00,95.08
2370.00,95.06
2369.00,95.02
2368.00,94.99
2367.00,94.98
2366.00,94.97
2365.00,94.94
2364.00,94.91
2363.00,94.91
2362.00,94.95
2361.00,94.99
2360.00,95.01
2359.00,95.01
2358.00,94.99
2357.00,94.98
2356.00,94.95
2355.00,94.91
2354.00,94.89
2353.00,94.91
2352.00,94.98
2351.00,95.06
2350.00,95.11
2349.00,95.12
2348.00,95.12
2347.00,95.13
2346.00,95.11
2345.00,95.06
2344.00,94.97
2343.00,94.91
2342.00,94.87
2341.00,94.86
2340.00,94.85
2339.00,94.85
2338.00,94.86
2337.00,94.88
2336.00,94.90
2335.00,94.90
2334.00,94.89
2333.00,94.88
2332.00,94.86
2331.00,94.86
2330.00,94.86
2329.00,94.85
2328.00,94.83
2327.00,94.80
2326.00,94.75
2325.00,94.71
2324.00,94.71
2323.00,94.74
2322.00,94.78
2321.00,94.81
2320.00,94.79
2319.00,94.76
2318.00,94.75
2317.00,94.75
2316.00,94.77
2315.00,94.77
2314.00,94.75
2313.00,94.73
2312.00,94.73
2311.00,94.74
2310.00,94.76
2309.00,94.75
2308.00,94.74
2307.00,94.71
2306.00,94.69
2305.00,94.69
2304.00,94.69
2303.00,94.71
2302.00,94.73
2301.00,94.74
2300.00,94.75
2299.00,94.76
2298.00,94.75
2297.00,94.73
2296.00,94.71
2295.00,94.69
2294.00,94.67
2293.00,94.66
2292.00,94.65
2291.00,94.65
2290.00,94.63
2289.00,94.60
2288.00,94.57
2287.00,94.54
2286.00,94.52
2285.00,94.50
2284.00,94.49
2283.00,94.49
2282.00,94.48
2281.00,94.47
2280.00,94.47
2279.00,94.48
2278.00,94.47
2277.00,94.45
2276.00,94.42
2275.00,94.41
2274.00,94.42
2273.00,94.43
2272.00,94.44
2271.00,94.42
2270.00,94.40
2269.00,94.40
2268.00,94.40
2267.00,94.41
2266.00,94.41
2265.00,94.39
2264.00,94.39
2263.00,94.39
2262.00,94.40
2261.00,94.38
2260.00,94.34
2259.00,94.30
2258.00,94.28
2257.00,94.28
2256.00,94.29
2255.00,94.32
2254.00,94.34
2253.00,94.34
2252.00,94.33
2251.00,94.31
2250.00,94.29
2249.00,94.28
2248.00,94.31
2247.00,94.35
2246.00,94.39
2245.00,94.39
2244.00,94.38
2243.00,94.35
2242.00,94.32
2241.00,94.28
2240.00,94.23
2239.00,94.19
2238.00,94.16
2237.00,94.14
2236.00,94.13
2235.00,94.14
2234.00,94.15
2233.00,94.15
2232.00,94.13
2231.00,94.10
2230.00,94.08
2229.00,94.07
2228.00,94.08
2227.00,94.10
2226.00,94.13
2225.00,94.16
2224.00,94.19
2223.00,94.19
2222.00,94.17
2221.00,94.15
2220.00,94.14
2219.00,94.13
2218.00,94.10
2217.00,94.05
2216.00,94.01
2215.00,94.01
2214.00,94.05
2213.00,94.08
2212.00,94.09
2211.00,94.07
2210.00,94.05
2209.00,94.04
2208.00,94.02
2207.00,93.99
2206.00,93.97
2205.00,93.98
2204.00,94.03
2203.00,94.08
2202.00,94.09
2201.00,94.07
2200.00,94.03
2199.00,94.01
2198.00,94.00
2197.00,94.01
2196.00,94.01
2195.00,93.99
2194.00,93.94
2193.00,93.89
2192.00,93.84
2191.00,93.82
2190.00,93.83
2189.00,93.87
2188.00,93.88
2187.00,93.84
2186.00,93.74
2185.00,93.65
2184.00,93.64
2183.00,93.72
2182.00,93.82
2181.00,93.89
2180.00,93.91
2179.00,93.89
2178.00,93.85
2177.00,93.79
2176.00,93.74
2175.00,93.70
2174.00,93.70
2173.00,93.71
2172.00,93.72
2171.00,93.70
2170.00,93.66
2169.00,93.60
2168.00,93.58
2167.00,93.60
2166.00,93.60
2165.00,93.55
2164.00,93.47
2163.00,93.41
2162.00,93.39
2161.00,93.43
2160.00,93.53
2159.00,93.65
2158.00,93.77
2157.00,93.82
2156.00,93.84
2155.00,93.86
2154.00,93.88
2153.00,93.93
2152.00,93.97
2151.00,93.99
2150.00,93.96
2149.00,93.91
2148.00,93.86
2147.00,93.83
2146.00,93.83
2145.00,93.85
2144.00,93.91
2143.00,94.00
2142.00,94.10
2141.00,94.16
2140.00,94.18
2139.00,94.18
2138.00,94.17
2137.00,94.18
2136.00,94.22
2135.00,94.28
2134.00,94.33
2133.00,94.37
2132.00,94.39
2131.00,94.41
2130.00,94.43
2129.00,94.46
2128.00,94.49
2127.00,94.54
2126.00,94.56
2125.00,94.54
2124.00,94.49
2123.00,94.46
2122.00,94.45
2121.00,94.46
2120.00,94.50
2119.00,94.52
2118.00,94.50
2117.00,94.45
2116.00,94.39
2115.00,94.37
2114.00,94.38
2113.00,94.40
2112.00,94.43
2111.00,94.45
2110.00,94.46
2109.00,94.44
2108.00,94.41
2107.00,94.39
2106.00,94.39
2105.00,94.38
2104.00,94.36
2103.00,94.35
2102.00,94.35
2101.00,94.37
2100.00,94.38
2099.00,94.36
2098.00,94.33
2097.00,94.30
2096.00,94.30
2095.00,94.33
2094.00,94.36
2093.00,94.38
2092.00,94.39
2091.00,94.40
2090.00,94.43
2089.00,94.46
2088.00,94.49
2087.00,94.50
2086.00,94.49
2085.00,94.48
2084.00,94.46
2083.00,94.43
2082.00,94.41
2081.00,94.38
2080.00,94.36
2079.00,94.35
2078.00,94.34
2077.00,94.32
2076.00,94.31
2075.00,94.34
2074.00,94.37
2073.00,94.38
2072.00,94.35
2071.00,94.30
2070.00,94.27
2069.00,94.27
2068.00,94.29
2067.00,94.32
2066.00,94.37
2065.00,94.40
2064.00,94.38
2063.00,94.33
2062.00,94.27
2061.00,94.23
2060.00,94.25
2059.00,94.29
2058.00,94.33
2057.00,94.34
2056.00,94.34
2055.00,94.34
2054.00,94.32
2053.00,94.26
2052.00,94.16
2051.00,94.07
2050.00,94.00
2049.00,93.96
2048.00,93.94
2047.00,93.93
2046.00,93.94
2045.00,93.97
2044.00,94.01
2043.00,94.05
2042.00,94.06
2041.00,94.04
2040.00,94.01
2039.00,94.00
2038.00,94.01
2037.00,94.00
2036.00,93.99
2035.00,93.98
2034.00,93.98
2033.00,93.97
2032.00,93.95
2031.00,93.93
2030.00,93.95
2029.00,93.99
2028.00,94.04
2027.00,94.09
2026.00,94.13
2025.00,94.16
2024.00,94.14
2023.00,94.09
2022.00,94.02
2021.00,93.97
2020.00,93.98
2019.00,94.04
2018.00,94.10
2017.00,94.12
2016.00,94.12
2015.00,94.12
2014.00,94.12
2013.00,94.14
2012.00,94.15
2011.00,94.16
2010.00,94.16
2009.00,94.15
2008.00,94.15
2007.00,94.17
2006.00,94.19
2005.00,94.19
2004.00,94.20
2003.00,94.23
2002.00,94.25
2001.00,94.27
2000.00,94.29
1999.00,94.31
1998.00,94.33
1997.00,94.32
1996.00,94.29
1995.00,94.25
1994.00,94.23
1993.00,94.23
1992.00,94.24
1991.00,94.25
1990.00,94.25
1989.00,94.25
1988.00,94.26
1987.00,94.26
1986.00,94.23
1985.00,94.15
1984.00,94.04
1983.00,93.96
1982.00,93.91
1981.00,93.88
1980.00,93.86
1979.00,93.88
1978.00,93.95
1977.00,94.06
1976.00,94.16
1975.00,94.25
1974.00,94.32
1973.00,94.36
1972.00,94.37
1971.00,94.35
1970.00,94.34
1969.00,94.34
1968.00,94.37
1967.00,94.39
1966.00,94.37
1965.00,94.33
1964.00,94.31
1963.00,94.33
1962.00,94.36
1961.00,94.37
1960.00,94.37
1959.00,94.37
1958.00,94.40
1957.00,94.45
1956.00,94.52
1955.00,94.60
1954.00,94.68
1953.00,94.71
1952.00,94.71
1951.00,94.69
1950.00,94.67
1949.00,94.65
1948.00,94.64
1947.00,94.64
1946.00,94.67
1945.00,94.71
1944.00,94.74
1943.00,94.75
1942.00,94.75
1941.00,94.74
1940.00,94.74
1939.00,94.77
1938.00,94.80
1937.00,94.84
1936.00,94.85
1935.00,94.85
1934.00,94.82
1933.00,94.81
1932.00,94.82
1931.00,94.86
1930.00,94.90
1929.00,94.92
1928.00,94.92
1927.00,94.93
1926.00,94.94
1925.00,94.96
1924.00,94.97
1923.00,94.98
1922.00,94.98
1921.00,94.99
1920.00,95.01
1919.00,95.05
1918.00,95.07
1917.00,95.05
1916.00,95.01
1915.00,95.01
1914.00,95.03
1913.00,95.05
1912.00,95.07
1911.00,95.08
1910.00,95.08
1909.00,95.07
1908.00,95.07
1907.00,95.07
1906.00,95.07
1905.00,95.06
1904.00,95.05
1903.00,95.07
1902.00,95.10
1901.00,95.13
1900.00,95.15
1899.00,95.16
1898.00,95.16
1897.00,95.14
1896.00,95.14
1895.00,95.15
1894.00,95.15
1893.00,95.13
1892.00,95.12
1891.00,95.13
1890.00,95.15
1889.00,95.17
1888.00,95.18
1887.00,95.21
1886.00,95.24
1885.00,95.26
1884.00,95.28
1883.00,95.29
1882.00,95.30
1881.00,95.28
1880.00,95.27
1879.00,95.26
1878.00,95.28
1877.00,95.29
1876.00,95.31
1875.00,95.33
1874.00,95.34
1873.00,95.33
1872.00,95.32
1871.00,95.35
1870.00,95.39
1869.00,95.42
1868.00,95.42
1867.00,95.42
1866.00,95.43
1865.00,95.45
1864.00,95.45
1863.00,95.46
1862.00,95.47
1861.00,95.47
1860.00,95.47
1859.00,95.47
1858.00,95.48
1857.00,95.49
1856.00,95.49
1855.00,95.49
1854.00,95.48
1853.00,95.48
1852.00,95.47
1851.00,95.48
1850.00,95.49
1849.00,95.49
1848.00,95.49
1847.00,95.49
1846.00,95.51
1845.00,95.54
1844.00,95.57
1843.00,95.59
1842.00,95.59
1841.00,95.60
1840.00,95.61
1839.00,95.64
1838.00,95.66
1837.00,95.66
1836.00,95.64
1835.00,95.63
1834.00,95.62
1833.00,95.61
1832.00,95.61
1831.00,95.64
1830.00,95.65
1829.00,95.64
1828.00,95.62
1827.00,95.63
1826.00,95.65
1825.00,95.67
1824.00,95.66
1823.00,95.65
1822.00,95.66
1821.00,95.68
1820.00,95.71
1819.00,95.75
1818.00,95.78
1817.00,95.79
1816.00,95.78
1815.00,95.78
1814.00,95.79
1813.00,95.78
1812.00,95.77
1811.00,95.77
1810.00,95.77
1809.00,95.78
1808.00,95.78
1807.00,95.79
1806.00,95.79
1805.00,95.79
1804.00,95.78
1803.00,95.77
1802.00,95.75
1801.00,95.75
1800.00,95.77
1799.00,95.82
1798.00,95.86
1797.00,95.88
1796.00,95.87
1795.00,95.85
1794.00,95.85
1793.00,95.85
1792.00,95.83
1791.00,95.83
1790.00,95.83
1789.00,95.83
1788.00,95.85
1787.00,95.87
1786.00,95.89
1785.00,95.89
1784.00,95.87
1783.00,95.87
1782.00,95.88
1781.00,95.89
1780.00,95.88
1779.00,95.87
1778.00,95.86
1777.00,95.86
1776.00,95.85
1775.00,95.84
1774.00,95.86
1773.00,95.90
1772.00,95.92
1771.00,95.92
1770.00,95.91
1769.00,95.90
1768.00,95.89
1767.00,95.88
1766.00,95.86
1765.00,95.84
1764.00,95.82
1763.00,95.82
1762.00,95.83
1761.00,95.82
1760.00,95.79
1759.00,95.76
1758.00,95.76
1757.00,95.75
1756.00,95.73
1755.00,95.70
1754.00,95.68
1753.00,95.67
1752.00,95.66
1751.00,95.64
1750.00,95.63
1749.00,95.60
1748.00,95.57
1747.00,95.53
1746.00,95.48
1745.00,95.41
1744.00,95.34
1743.00,95.27
1742.00,95.23
1741.00,95.20
1740.00,95.17
1739.00,95.12
1738.00,95.04
1737.00,94.96
1736.00,94.89
1735.00,94.87
1734.00,94.86
1733.00,94.81
1732.00,94.75
1731.00,94.71
1730.00,94.68
1729.00,94.62
1728.00,94.55
1727.00,94.48
1726.00,94.41
1725.00,94.33
1724.00,94.24
1723.00,94.14
1722.00,94.04
1721.00,93.94
1720.00,93.87
1719.00,93.85
1718.00,93.83
1717.00,93.73
1716.00,93.60
1715.00,93.49
1714.00,93.41
1713.00,93.33
1712.00,93.22
1711.00,93.10
1710.00,92.96
1709.00,92.80
1708.00,92.61
1707.00,92.42
1706.00,92.21
1705.00,91.95
1704.00,91.64
1703.00,91.35
1702.00,91.08
1701.00,90.74
1700.00,90.28
1699.00,89.87
1698.00,89.54
1697.00,89.19
1696.00,88.73
1695.00,88.24
1694.00,87.83
1693.00,87.46
1692.00,87.10
1691.00,86.73
1690.00,86.33
1689.00,85.93
1688.00,85.55
1687.00,85.22
1686.00,84.92
1685.00,84.51
1684.00,83.96
1683.00,83.48
1682.00,83.13
1681.00,82.81
1680.00,82.46
1679.00,82.10
1678.00,81.78
1677.00,81.45
1676.00,81.06
1675.00,80.62
1674.00,80.22
1673.00,79.86
1672.00,79.51
1671.00,79.15
1670.00,78.76
1669.00,78.32
1668.00,77.91
1667.00,77.56
1666.00,77.25
1665.00,76.92
1664.00,76.53
1663.00,76.08
1662.00,75.62
1661.00,75.17
1660.00,74.73
1659.00,74.30
1658.00,73.90
1657.00,73.50
1656.00,73.12
1655.00,72.76
1654.00,72.33
1653.00,71.71
1652.00,71.13
1651.00,70.76
1650.00,70.50
1649.00,70.27
1648.00,70.01
1647.00,69.74
1646.00,69.50
1645.00,69.31
1644.00,69.16
1643.00,69.03
1642.00,68.93
1641.00,68.84
1640.00,68.75
1639.00,68.66
1638.00,68.61
1637.00,68.56
1636.00,68.49
1635.00,68.41
1634.00,68.36
1633.00,68.32
1632.00,68.27
1631.00,68.23
1630.00,68.23
1629.00,68.27
1628.00,68.31
1627.00,68.36
1626.00,68.42
1625.00,68.53
1624.00,68.71
1623.00,68.94
1622.00,69.21
1621.00,69.46
1620.00,69.71
1619.00,70.00
1618.00,70.37
1617.00,70.84
1616.00,71.33
1615.00,71.76
1614.00,72.17
1613.00,72.61
1612.00,73.10
1611.00,73.62
1610.00,74.14
1609.00,74.67
1608.00,75.19
1607.00,75.70
1606.00,76.18
1605.00,76.65
1604.00,77.11
1603.00,77.57
1602.00,77.98
1601.00,78.36
1600.00,78.71
1599.00,79.05
1598.00,79.36
1597.00,79.66
1596.00,79.94
1595.00,80.21
1594.00,80.45
1593.00,80.68
1592.00,80.92
1591.00,81.16
1590.00,81.37
1589.00,81.56
1588.00,81.76
1587.00,81.95
1586.00,82.12
1585.00,82.27
1584.00,82.42
1583.00,82.53
1582.00,82.59
1581.00,82.61
1580.00,82.63
1579.00,82.63
1578.00,82.61
1577.00,82.58
1576.00,82.52
1575.00,82.42
1574.00,82.29
1573.00,82.16
1572.00,82.04
1571.00,81.91
1570.00,81.72
1569.00,81.48
1568.00,81.27
1567.00,81.07
1566.00,80.83
1565.00,80.57
1564.00,80.29
1563.00,80.03
1562.00,79.77
1561.00,79.51
1560.00,79.20
1559.00,78.65
1558.00,78.08
1557.00,77.71
1556.00,77.42
1555.00,77.10
1554.00,76.71
1553.00,76.32
1552.00,75.98
1551.00,75.64
1550.00,75.27
1549.00,74.90
1548.00,74.58
1547.00,74.30
1546.00,74.03
1545.00,73.75
1544.00,73.48
1543.00,73.22
1542.00,72.99
1541.00,72.74
1540.00,72.49
1539.00,72.27
1538.00,72.09
1537.00,71.94
1536.00,71.82
1535.00,71.71
1534.00,71.61
1533.00,71.49
1532.00,71.40
1531.00,71.33
1530.00,71.26
1529.00,71.21
1528.00,71.17
1527.00,71.14
1526.00,71.10
1525.00,71.06
1524.00,71.03
1523.00,71.02
1522.00,70.99
1521.00,70.90
1520.00,70.81
1519.00,70.74
1518.00,70.67
1517.00,70.63
1516.00,70.61
1515.00,70.64
1514.00,70.71
1513.00,70.85
1512.00,71.04
1511.00,71.25
1510.00,71.45
1509.00,71.67
1508.00,71.99
1507.00,72.42
1506.00,72.87
1505.00,73.24
1504.00,73.54
1503.00,73.82
1502.00,74.13
1501.00,74.46
1500.00,74.80
1499.00,75.17
1498.00,75.58
1497.00,76.03
1496.00,76.51
1495.00,76.94
1494.00,77.31
1493.00,77.67
1492.00,78.05
1491.00,78.50
1490.00,78.97
1489.00,79.42
1488.00,79.83
1487.00,80.21
1486.00,80.57
1485.00,80.88
1484.00,81.15
1483.00,81.39
1482.00,81.61
1481.00,81.80
1480.00,81.94
1479.00,82.04
1478.00,82.12
1477.00,82.15
1476.00,82.15
1475.00,82.12
1474.00,82.07
1473.00,81.97
1472.00,81.82
1471.00,81.68
1470.00,81.57
1469.00,81.46
1468.00,81.36
1467.00,81.29
1466.00,81.23
1465.00,81.18
1464.00,81.12
1463.00,81.07
1462.00,81.01
1461.00,80.94
1460.00,80.85
1459.00,80.75
1458.00,80.62
1457.00,80.44
1456.00,80.26
1455.00,80.12
1454.00,80.04
1453.00,79.98
1452.00,79.94
1451.00,79.92
1450.00,79.93
1449.00,79.95
1448.00,79.96
1447.00,79.98
1446.00,80.02
1445.00,80.07
1444.00,80.13
1443.00,80.20
1442.00,80.28
1441.00,80.35
1440.00,80.43
1439.00,80.52
1438.00,80.66
1437.00,80.82
1436.00,80.99
1435.00,81.14
1434.00,81.28
1433.00,81.42
1432.00,81.57
1431.00,81.71
1430.00,81.85
1429.00,81.98
1428.00,82.08
1427.00,82.16
1426.00,82.22
1425.00,82.27
1424.00,82.28
1423.00,82.27
1422.00,82.25
1421.00,82.24
1420.00,82.23
1419.00,82.19
1418.00,82.14
1417.00,82.09
1416.00,82.05
1415.00,82.02
1414.00,82.00
1413.00,81.98
1412.00,81.96
1411.00,81.94
1410.00,81.93
1409.00,81.92
1408.00,81.91
1407.00,81.90
1406.00,81.90
1405.00,81.92
1404.00,81.95
1403.00,81.97
1402.00,81.98
1401.00,81.99
1400.00,81.99
1399.00,81.98
1398.00,81.96
1397.00,81.95
1396.00,81.95
1395.00,81.95
1394.00,81.95
1393.00,81.94
1392.00,81.92
1391.00,81.90
1390.00,81.89
1389.00,81.91
1388.00,81.93
1387.00,81.97
1386.00,82.01
1385.00,82.06
1384.00,82.13
1383.00,82.22
1382.00,82.31
1381.00,82.41
1380.00,82.50
1379.00,82.59
1378.00,82.67
1377.00,82.75
1376.00,82.83
1375.00,82.91
1374.00,82.97
1373.00,83.01
1372.00,83.04
1371.00,83.07
1370.00,83.11
1369.00,83.16
1368.00,83.22
1367.00,83.30
1366.00,83.39
1365.00,83.50
1364.00,83.61
1363.00,83.71
1362.00,83.79
1361.00,83.85
1360.00,83.90
1359.00,83.95
1358.00,83.99
1357.00,84.02
1356.00,84.04
1355.00,84.05
1354.00,84.07
1353.00,84.07
1352.00,84.06
1351.00,84.02
1350.00,83.98
1349.00,83.94
1348.00,83.89
1347.00,83.85
1346.00,83.82
1345.00,83.80
1344.00,83.77
1343.00,83.74
1342.00,83.72
1341.00,83.71
1340.00,83.69
1339.00,83.68
1338.00,83.67
1337.00,83.68
1336.00,83.71
1335.00,83.75
1334.00,83.79
1333.00,83.84
1332.00,83.88
1331.00,83.92
1330.00,83.96
1329.00,83.99
1328.00,84.02
1327.00,84.05
1326.00,84.07
1325.00,84.07
1324.00,84.06
1323.00,84.04
1322.00,84.02
1321.00,84.00
1320.00,83.97
1319.00,83.95
1318.00,83.93
1317.00,83.90
1316.00,83.88
1315.00,83.85
1314.00,83.83
1313.00,83.81
1312.00,83.80
1311.00,83.78
1310.00,83.76
1309.00,83.76
1308.00,83.75
1307.00,83.74
1306.00,83.73
1305.00,83.72
1304.00,83.71
1303.00,83.70
1302.00,83.67
1301.00,83.65
1300.00,83.62
1299.00,83.61
1298.00,83.61
1297.00,83.60
1296.00,83.58
1295.00,83.56
1294.00,83.54
1293.00,83.52
1292.00,83.50
1291.00,83.48
1290.00,83.46
1289.00,83.44
1288.00,83.42
1287.00,83.41
1286.00,83.40
1285.00,83.38
1284.00,83.35
1283.00,83.31
1282.00,83.27
1281.00,83.23
1280.00,83.18
1279.00,83.14
1278.00,83.10
1277.00,83.05
1276.00,83.01
1275.00,82.96
1274.00,82.92
1273.00,82.88
1272.00,82.85
1271.00,82.82
1270.00,82.78
1269.00,82.73
1268.00,82.69
1267.00,82.64
1266.00,82.58
1265.00,82.52
1264.00,82.45
1263.00,82.39
1262.00,82.33
1261.00,82.28
1260.00,82.22
1259.00,82.15
1258.00,82.07
1257.00,81.97
1256.00,81.86
1255.00,81.77
1254.00,81.68
1253.00,81.61
1252.00,81.52
1251.00,81.42
1250.00,81.32
1249.00,81.22
1248.00,81.14
1247.00,81.06
1246.00,80.97
1245.00,80.89
1244.00,80.82
1243.00,80.76
1242.00,80.71
1241.00,80.67
1240.00,80.63
1239.00,80.59
1238.00,80.55
1237.00,80.53
1236.00,80.52
1235.00,80.52
1234.00,80.53
1233.00,80.54
1232.00,80.57
1231.00,80.60
1230.00,80.64
1229.00,80.68
1228.00,80.74
1227.00,80.81
1226.00,80.90
1225.00,80.99
1224.00,81.08
1223.00,81.18
1222.00,81.29
1221.00,81.40
1220.00,81.49
1219.00,81.59
1218.00,81.68
1217.00,81.79
1216.00,81.91
1215.00,82.03
1214.00,82.15
1213.00,82.25
1212.00,82.34
1211.00,82.42
1210.00,82.49
1209.00,82.54
1208.00,82.60
1207.00,82.66
1206.00,82.74
1205.00,82.82
1204.00,82.89
1203.00,82.96
1202.00,83.02
1201.00,83.07
1200.00,83.12
1199.00,83.18
1198.00,83.25
1197.00,83.33
1196.00,83.41
1195.00,83.47
1194.00,83.53
1193.00,83.58
1192.00,83.63
1191.00,83.67
1190.00,83.70
1189.00,83.73
1188.00,83.75
1187.00,83.76
1186.00,83.76
1185.00,83.75
1184.00,83.73
1183.00,83.71
1182.00,83.70
1181.00,83.71
1180.00,83.72
1179.00,83.75
1178.00,83.76
1177.00,83.75
1176.00,83.73
1175.00,83.73
1174.00,83.75
1173.00,83.79
1172.00,83.85
1171.00,83.91
1170.00,83.98
1169.00,84.03
1168.00,84.08
1167.00,84.14
1166.00,84.19
1165.00,84.24
1164.00,84.26
1163.00,84.26
1162.00,84.27
1161.00,84.28
1160.00,84.30
1159.00,84.32
1158.00,84.33
1157.00,84.33
1156.00,84.32
1155.00,84.32
1154.00,84.33
1153.00,84.37
1152.00,84.41
1151.00,84.46
1150.00,84.51
1149.00,84.55
1148.00,84.58
1147.00,84.58
1146.00,84.58
1145.00,84.56
1144.00,84.54
1143.00,84.52
1142.00,84.50
1141.00,84.49
1140.00,84.45
1139.00,84.38
1138.00,84.31
1137.00,84.26
1136.00,84.21
1135.00,84.15
1134.00,84.07
1133.00,83.97
1132.00,83.89
1131.00,83.81
1130.00,83.75
1129.00,83.68
1128.00,83.60
1127.00,83.51
1126.00,83.42
1125.00,83.33
1124.00,83.25
1123.00,83.19
1122.00,83.15
1121.00,83.12
1120.00,83.07
1119.00,83.02
1118.00,82.97
1117.00,82.92
1116.00,82.89
1115.00,82.86
1114.00,82.83
1113.00,82.80
1112.00,82.74
1111.00,82.68
1110.00,82.61
1109.00,82.54
1108.00,82.47
1107.00,82.39
1106.00,82.30
1105.00,82.22
1104.00,82.14
1103.00,82.07
1102.00,82.01
1101.00,81.95
1100.00,81.89
1099.00,81.82
1098.00,81.75
1097.00,81.65
1096.00,81.55
1095.00,81.48
1094.00,81.45
1093.00,81.42
1092.00,81.38
1091.00,81.36
1090.00,81.34
1089.00,81.31
1088.00,81.26
1087.00,81.19
1086.00,81.10
1085.00,81.01
1084.00,80.91
1083.00,80.84
1082.00,80.78
1081.00,80.73
1080.00,80.68
1079.00,80.63
1078.00,80.59
1077.00,80.56
1076.00,80.53
1075.00,80.52
1074.00,80.53
1073.00,80.56
1072.00,80.60
1071.00,80.64
1070.00,80.66
1069.00,80.68
1068.00,80.71
1067.00,80.75
1066.00,80.80
1065.00,80.85
1064.00,80.89
1063.00,80.91
1062.00,80.93
1061.00,80.97
1060.00,81.03
1059.00,81.11
1058.00,81.18
1057.00,81.24
1056.00,81.27
1055.00,81.29
1054.00,81.34
1053.00,81.40
1052.00,81.47
1051.00,81.53
1050.00,81.60
1049.00,81.65
1048.00,81.71
1047.00,81.77
1046.00,81.85
1045.00,81.93
1044.00,82.02
1043.00,82.11
1042.00,82.20
1041.00,82.29
1040.00,82.37
1039.00,82.47
1038.00,82.58
1037.00,82.69
1036.00,82.79
1035.00,82.87
1034.00,82.96
1033.00,83.04
1032.00,83.14
1031.00,83.26
1030.00,83.38
1029.00,83.51
1028.00,83.63
1027.00,83.76
1026.00,83.88
1025.00,84.02
1024.00,84.16
1023.00,84.31
1022.00,84.45
1021.00,84.59
1020.00,84.72
1019.00,84.86
1018.00,84.99
1017.00,85.11
1016.00,85.21
1015.00,85.31
1014.00,85.41
1013.00,85.51
1012.00,85.61
1011.00,85.70
1010.00,85.81
1009.00,85.93
1008.00,86.05
1007.00,86.16
1006.00,86.26
1005.00,86.35
1004.00,86.44
1003.00,86.51
1002.00,86.59
1001.00,86.67
1000.00,86.75
999.00,86.82
998.00,86.90
997.00,86.98
996.00,87.06
995.00,87.12
994.00,87.17
993.00,87.21
992.00,87.24
991.00,87.27
990.00,87.30
989.00,87.35
988.00,87.40
987.00,87.46
986.00,87.50
985.00,87.54
984.00,87.56
983.00,87.56
982.00,87.57
981.00,87.57
980.00,87.56
979.00,87.54
978.00,87.51
977.00,87.50
976.00,87.51
975.00,87.53
974.00,87.56
973.00,87.60
972.00,87.64
971.00,87.67
970.00,87.68
969.00,87.69
968.00,87.72
967.00,87.75
966.00,87.79
965.00,87.83
964.00,87.87
963.00,87.91
962.00,87.95
961.00,87.99
960.00,88.03
959.00,88.08
958.00,88.13
957.00,88.17
956.00,88.19
955.00,88.19
954.00,88.19
953.00,88.21
952.00,88.24
951.00,88.28
950.00,88.31
949.00,88.33
948.00,88.34
947.00,88.34
946.00,88.34
945.00,88.32
944.00,88.31
943.00,88.30
942.00,88.30
941.00,88.31
940.00,88.32
939.00,88.32
938.00,88.31
937.00,88.28
936.00,88.26
935.00,88.25
934.00,88.25
933.00,88.24
932.00,88.23
931.00,88.21
930.00,88.21
929.00,88.21
928.00,88.23
927.00,88.24
926.00,88.25
925.00,88.24
924.00,88.21
923.00,88.20
922.00,88.20
921.00,88.23
920.00,88.27
919.00,88.32
918.00,88.36
917.00,88.40
916.00,88.43
915.00,88.47
914.00,88.51
913.00,88.55
912.00,88.59
911.00,88.62
910.00,88.65
909.00,88.68
908.00,88.70
907.00,88.69
906.00,88.66
905.00,88.62
904.00,88.59
903.00,88.59
902.00,88.61
901.00,88.64
900.00,88.66
899.00,88.67
898.00,88.66
897.00,88.65
896.00,88.64
895.00,88.62
894.00,88.62
893.00,88.62
892.00,88.62
891.00,88.61
890.00,88.60
889.00,88.59
888.00,88.58
887.00,88.58
886.00,88.59
885.00,88.59
884.00,88.58
883.00,88.56
882.00,88.55
881.00,88.54
880.00,88.54
879.00,88.55
878.00,88.54
877.00,88.53
876.00,88.53
875.00,88.55
874.00,88.59
873.00,88.64
872.00,88.66
871.00,88.67
870.00,88.66
869.00,88.65
868.00,88.65
867.00,88.65
866.00,88.63
865.00,88.61
864.00,88.59
863.00,88.57
862.00,88.57
861.00,88.57
860.00,88.57
859.00,88.56
858.00,88.55
857.00,88.52
856.00,88.48
855.00,88.44
854.00,88.39
853.00,88.34
852.00,88.29
851.00,88.25
850.00,88.24
849.00,88.22
848.00,88.18
847.00,88.13
846.00,88.07
845.00,88.03
844.00,87.99
843.00,87.96
842.00,87.91
841.00,87.85
840.00,87.78
839.00,87.70
838.00,87.62
837.00,87.57
836.00,87.53
835.00,87.48
834.00,87.43
833.00,87.38
832.00,87.34
831.00,87.31
830.00,87.31
829.00,87.30
828.00,87.28
827.00,87.25
826.00,87.22
825.00,87.20
824.00,87.18
823.00,87.17
822.00,87.17
821.00,87.17
820.00,87.16
819.00,87.15
818.00,87.12
817.00,87.10
816.00,87.07
815.00,87.05
814.00,87.02
813.00,86.99
812.00,86.95
811.00,86.91
810.00,86.86
809.00,86.83
808.00,86.83
807.00,86.82
806.00,86.79
805.00,86.72
804.00,86.62
803.00,86.53
802.00,86.47
801.00,86.44
800.00,86.43
799.00,86.41
798.00,86.36
797.00,86.31
796.00,86.25
795.00,86.21
794.00,86.18
793.00,86.13
792.00,86.08
791.00,86.02
790.00,85.96
789.00,85.91
788.00,85.88
787.00,85.85
786.00,85.81
785.00,85.75
784.00,85.68
783.00,85.63
782.00,85.62
781.00,85.62
780.00,85.60
779.00,85.54
778.00,85.47
777.00,85.39
776.00,85.31
775.00,85.23
774.00,85.16
773.00,85.09
772.00,85.02
771.00,84.94
770.00,84.88
769.00,84.84
768.00,84.82
767.00,84.78
766.00,84.72
765.00,84.64
764.00,84.54
763.00,84.44
762.00,84.35
761.00,84.28
760.00,84.21
759.00,84.14
758.00,84.06
757.00,84.00
756.00,83.96
755.00,83.93
754.00,83.89
753.00,83.85
752.00,83.80
751.00,83.73
750.00,83.65
749.00,83.56
748.00,83.46
747.00,83.37
746.00,83.30
745.00,83.22
744.00,83.14
743.00,83.06
742.00,83.02
741.00,82.99
740.00,82.97
739.00,82.93
738.00,82.87
737.00,82.79
736.00,82.71
735.00,82.66
734.00,82.66
733.00,82.69
732.00,82.69
731.00,82.64
730.00,82.55
729.00,82.46
728.00,82.40
727.00,82.36
726.00,82.32
725.00,82.25
724.00,82.15
723.00,82.06
722.00,81.98
721.00,81.91
720.00,81.83
719.00,81.75
718.00,81.67
717.00,81.61
716.00,81.56
715.00,81.49
714.00,81.40
713.00,81.29
712.00,81.15
711.00,80.99
710.00,80.83
709.00,80.68
708.00,80.54
707.00,80.42
706.00,80.32
705.00,80.20
704.00,80.05
703.00,79.91
702.00,79.77
701.00,79.64
700.00,79.52
699.00,79.43
698.00,79.40
697.00,79.40
696.00,79.40
695.00,79.40
694.00,79.39
693.00,79.37
692.00,79.33
691.00,79.29
690.00,79.25
689.00,79.20
688.00,79.10
687.00,78.98
686.00,78.87
685.00,78.80
684.00,78.74
683.00,78.67
682.00,78.61
681.00,78.57
680.00,78.55
679.00,78.56
678.00,78.54
677.00,78.47
676.00,78.33
675.00,78.17
674.00,78.02
673.00,77.90
672.00,77.82
671.00,77.78
670.00,77.74
669.00,77.64
668.00,77.44
667.00,77.28
666.00,77.22
665.00,77.20
664.00,77.14
663.00,77.08
662.00,77.07
661.00,77.09
660.00,77.09
659.00,77.03
658.00,76.92
657.00,76.84
656.00,76.82
655.00,76.81
654.00,76.80
653.00,76.74
652.00,76.64
651.00,76.55
650.00,76.49
649.00,76.46
648.00,76.42
647.00,76.34
646.00,76.25
645.00,76.17
644.00,76.10
643.00,76.06
642.00,76.05
641.00,76.07
640.00,76.09
639.00,76.10
638.00,76.10
637.00,76.10
636.00,76.09
635.00,76.07
634.00,76.01
633.00,75.92
632.00,75.80
631.00,75.67
630.00,75.49
629.00,75.26
628.00,75.06
627.00,74.94
626.00,74.87
625.00,74.71
624.00,74.40
623.00,74.09
622.00,73.99
621.00,74.13
620.00,74.36
619.00,74.49
618.00,74.42
617.00,74.22
616.00,74.02
615.00,73.86
614.00,73.69
613.00,73.45
612.00,73.23
611.00,73.15
610.00,73.23
609.00,73.34
608.00,73.35
607.00,73.26
606.00,73.07
605.00,72.86
604.00,72.75
603.00,72.84
602.00,73.07
601.00,73.28
600.00,73.38
599.00,73.38
598.00,73.29
597.00,73.08
596.00,72.81
595.00,72.65
594.00,72.67
593.00,72.81
592.00,73.02
591.00,73.33
590.00,73.60
589.00,73.62
588.00,73.42
587.00,73.26
586.00,73.30
585.00,73.34
584.00,73.15
583.00,72.82
582.00,72.62
581.00,72.70
580.00,73.07
579.00,73.68
578.00,74.27
577.00,74.40
576.00,73.89
575.00,73.14
574.00,72.71
573.00,72.66
572.00,72.72
571.00,72.69
570.00,72.53
569.00,72.27
568.00,72.00
567.00,71.88
566.00,71.84
565.00,71.66
564.00,71.39
563.00,71.42
562.00,71.90
561.00,72.49
560.00,72.86
559.00,73.05
558.00,73.20
557.00,73.23
556.00,73.06
555.00,72.84
554.00,72.85
553.00,73.03
552.00,73.15
551.00,72.92
550.00,72.33
