Created as New Dataset,12.3 Lincoln Sheep
cm-1,%T
4000.00,101.35
3999.00,101.35
3998.00,101.33
3997.00,101.32
3996.00,101.32
3995.00,101.33
3994.00,101.35
3993.00,101.36
3992.00,101.36
3991.00,101.34
3990.00,101.32
3989.00,101.30
3988.00,101.30
3987.00,101.29
3986.00,101.28
3985.00,101.27
3984.00,101.28
3983.00,101.29
3982.00,101.31
3981.00,101.32
3980.00,101.32
3979.00,101.31
3978.00,101.30
3977.00,101.30
3976.00,101.30
3975.00,101.31
3974.00,101.32
3973.00,101.32
3972.00,101.33
3971.00,101.33
3970.00,101.32
3969.00,101.31
3968.00,101.31
3967.00,101.32
3966.00,101.34
3965.00,101.36
3964.00,101.37
3963.00,101.37
3962.00,101.36
3961.00,101.36
3960.00,101.35
3959.00,101.34
3958.00,101.34
3957.00,101.33
3956.00,101.31
3955.00,101.30
3954.00,101.29
3953.00,101.29
3952.00,101.29
3951.00,101.29
3950.00,101.30
3949.00,101.31
3948.00,101.32
3947.00,101.32
3946.00,101.32
3945.00,101.33
3944.00,101.36
3943.00,101.39
3942.00,101.42
3941.00,101.42
3940.00,101.41
3939.00,101.39
3938.00,101.36
3937.00,101.34
3936.00,101.33
3935.00,101.32
3934.00,101.32
3933.00,101.31
3932.00,101.29
3931.00,101.26
3930.00,101.24
3929.00,101.24
3928.00,101.26
3927.00,101.27
3926.00,101.28
3925.00,101.28
3924.00,101.27
3923.00,101.26
3922.00,101.24
3921.00,101.23
3920.00,101.23
3919.00,101.25
3918.00,101.27
3917.00,101.29
3916.00,101.30
3915.00,101.29
3914.00,101.28
3913.00,101.27
3912.00,101.27
3911.00,101.28
3910.00,101.28
3909.00,101.27
3908.00,101.26
3907.00,101.26
3906.00,101.27
3905.00,101.27
3904.00,101.26
3903.00,101.23
3902.00,101.19
3901.00,101.17
3900.00,101.19
3899.00,101.22
3898.00,101.26
3897.00,101.28
3896.00,101.30
3895.00,101.30
3894.00,101.29
3893.00,101.29
3892.00,101.28
3891.00,101.27
3890.00,101.25
3889.00,101.23
3888.00,101.22
3887.00,101.23
3886.00,101.25
3885.00,101.24
3884.00,101.20
3883.00,101.17
3882.00,101.16
3881.00,101.17
3880.00,101.19
3879.00,101.19
3878.00,101.19
3877.00,101.20
3876.00,101.22
3875.00,101.24
3874.00,101.24
3873.00,101.22
3872.00,101.20
3871.00,101.21
3870.00,101.22
3869.00,101.21
3868.00,101.17
3867.00,101.15
3866.00,101.15
3865.00,101.17
3864.00,101.18
3863.00,101.19
3862.00,101.20
3861.00,101.22
3860.00,101.25
3859.00,101.28
3858.00,101.29
3857.00,101.29
3856.00,101.29
3855.00,101.30
3854.00,101.30
3853.00,101.24
3852.00,101.18
3851.00,101.14
3850.00,101.15
3849.00,101.17
3848.00,101.19
3847.00,101.20
3846.00,101.20
3845.00,101.21
3844.00,101.22
3843.00,101.21
3842.00,101.19
3841.00,101.17
3840.00,101.17
3839.00,101.18
3838.00,101.19
3837.00,101.18
3836.00,101.16
3835.00,101.14
3834.00,101.14
3833.00,101.16
3832.00,101.17
3831.00,101.18
3830.00,101.18
3829.00,101.17
3828.00,101.18
3827.00,101.20
3826.00,101.20
3825.00,101.19
3824.00,101.16
3823.00,101.14
3822.00,101.14
3821.00,101.12
3820.00,101.08
3819.00,101.04
3818.00,101.04
3817.00,101.10
3816.00,101.17
3815.00,101.22
3814.00,101.23
3813.00,101.23
3812.00,101.23
3811.00,101.23
3810.00,101.22
3809.00,101.22
3808.00,101.22
3807.00,101.21
3806.00,101.17
3805.00,101.10
3804.00,101.05
3803.00,101.04
3802.00,101.07
3801.00,101.08
3800.00,101.07
3799.00,101.07
3798.00,101.09
3797.00,101.14
3796.00,101.18
3795.00,101.19
3794.00,101.19
3793.00,101.19
3792.00,101.18
3791.00,101.18
3790.00,101.17
3789.00,101.14
3788.00,101.12
3787.00,101.10
3786.00,101.10
3785.00,101.13
3784.00,101.15
3783.00,101.16
3782.00,101.16
3781.00,101.15
3780.00,101.15
3779.00,101.15
3778.00,101.14
3777.00,101.14
3776.00,101.16
3775.00,101.18
3774.00,101.18
3773.00,101.17
3772.00,101.14
3771.00,101.11
3770.00,101.08
3769.00,101.07
3768.00,101.06
3767.00,101.07
3766.00,101.08
3765.00,101.08
3764.00,101.07
3763.00,101.05
3762.00,101.04
3761.00,101.05
3760.00,101.05
3759.00,101.06
3758.00,101.05
3757.00,101.05
3756.00,101.04
3755.00,101.02
3754.00,101.01
3753.00,101.01
3752.00,101.02
3751.00,101.03
3750.00,101.03
3749.00,101.02
3748.00,100.99
3747.00,100.97
3746.00,100.98
3745.00,101.01
3744.00,101.02
3743.00,100.99
3742.00,100.98
3741.00,100.98
3740.00,100.99
3739.00,100.99
3738.00,100.98
3737.00,100.95
3736.00,100.92
3735.00,100.91
3734.00,100.93
3733.00,100.97
3732.00,101.02
3731.00,101.05
3730.00,101.05
3729.00,101.04
3728.00,101.03
3727.00,101.03
3726.00,101.03
3725.00,101.02
3724.00,101.03
3723.00,101.04
3722.00,101.05
3721.00,101.04
3720.00,101.01
3719.00,100.98
3718.00,100.96
3717.00,100.95
3716.00,100.94
3715.00,100.93
3714.00,100.93
3713.00,100.92
3712.00,100.90
3711.00,100.87
3710.00,100.85
3709.00,100.85
3708.00,100.87
3707.00,100.89
3706.00,100.90
3705.00,100.90
3704.00,100.90
3703.00,100.91
3702.00,100.94
3701.00,100.96
3700.00,100.98
3699.00,100.98
3698.00,100.97
3697.00,100.95
3696.00,100.92
3695.00,100.88
3694.00,100.82
3693.00,100.76
3692.00,100.71
3691.00,100.68
3690.00,100.66
3689.00,100.66
3688.00,100.68
3687.00,100.69
3686.00,100.72
3685.00,100.75
3684.00,100.76
3683.00,100.76
3682.00,100.74
3681.00,100.70
3680.00,100.67
3679.00,100.63
3678.00,100.61
3677.00,100.63
3676.00,100.67
3675.00,100.68
3674.00,100.62
3673.00,100.56
3672.00,100.53
3671.00,100.55
3670.00,100.59
3669.00,100.60
3668.00,100.59
3667.00,100.56
3666.00,100.53
3665.00,100.50
3664.00,100.47
3663.00,100.45
3662.00,100.43
3661.00,100.42
3660.00,100.40
3659.00,100.37
3658.00,100.36
3657.00,100.35
3656.00,100.32
3655.00,100.29
3654.00,100.25
3653.00,100.22
3652.00,100.21
3651.00,100.21
3650.00,100.18
3649.00,100.11
3648.00,100.05
3647.00,100.01
3646.00,100.01
3645.00,100.01
3644.00,100.02
3643.00,100.03
3642.00,100.02
3641.00,100.00
3640.00,99.97
3639.00,99.94
3638.00,99.91
3637.00,99.90
3636.00,99.89
3635.00,99.89
3634.00,99.89
3633.00,99.86
3632.00,99.81
3631.00,99.74
3630.00,99.69
3629.00,99.64
3628.00,99.60
3627.00,99.57
3626.00,99.57
3625.00,99.57
3624.00,99.56
3623.00,99.53
3622.00,99.48
3621.00,99.44
3620.00,99.41
3619.00,99.37
3618.00,99.33
3617.00,99.28
3616.00,99.23
3615.00,99.19
3614.00,99.16
3613.00,99.14
3612.00,99.11
3611.00,99.09
3610.00,99.08
3609.00,99.07
3608.00,99.04
3607.00,99.00
3606.00,98.96
3605.00,98.93
3604.00,98.91
3603.00,98.89
3602.00,98.87
3601.00,98.84
3600.00,98.80
3599.00,98.76
3598.00,98.74
3597.00,98.71
3596.00,98.68
3595.00,98.65
3594.00,98.61
3593.00,98.57
3592.00,98.52
3591.00,98.47
3590.00,98.43
3589.00,98.38
3588.00,98.33
3587.00,98.28
3586.00,98.23
3585.00,98.21
3584.00,98.19
3583.00,98.18
3582.00,98.16
3581.00,98.13
3580.00,98.09
3579.00,98.05
3578.00,98.01
3577.00,97.97
3576.00,97.92
3575.00,97.87
3574.00,97.82
3573.00,97.77
3572.00,97.73
3571.00,97.69
3570.00,97.65
3569.00,97.61
3568.00,97.58
3567.00,97.55
3566.00,97.50
3565.00,97.44
3564.00,97.37
3563.00,97.32
3562.00,97.29
3561.00,97.26
3560.00,97.23
3559.00,97.18
3558.00,97.13
3557.00,97.08
3556.00,97.04
3555.00,97.00
3554.00,96.96
3553.00,96.93
3552.00,96.91
3551.00,96.89
3550.00,96.86
3549.00,96.82
3548.00,96.75
3547.00,96.66
3546.00,96.57
3545.00,96.51
3544.00,96.49
3543.00,96.47
3542.00,96.45
3541.00,96.41
3540.00,96.35
3539.00,96.29
3538.00,96.23
3537.00,96.18
3536.00,96.14
3535.00,96.10
3534.00,96.07
3533.00,96.04
3532.00,96.01
3531.00,95.98
3530.00,95.93
3529.00,95.87
3528.00,95.80
3527.00,95.74
3526.00,95.71
3525.00,95.69
3524.00,95.67
3523.00,95.65
3522.00,95.60
3521.00,95.56
3520.00,95.53
3519.00,95.50
3518.00,95.47
3517.00,95.44
3516.00,95.40
3515.00,95.37
3514.00,95.32
3513.00,95.27
3512.00,95.22
3511.00,95.17
3510.00,95.13
3509.00,95.09
3508.00,95.07
3507.00,95.05
3506.00,95.03
3505.00,95.00
3504.00,94.96
3503.00,94.92
3502.00,94.88
3501.00,94.84
3500.00,94.79
3499.00,94.74
3498.00,94.70
3497.00,94.66
3496.00,94.63
3495.00,94.61
3494.00,94.59
3493.00,94.56
3492.00,94.54
3491.00,94.51
3490.00,94.49
3489.00,94.47
3488.00,94.44
3487.00,94.40
3486.00,94.35
3485.00,94.30
3484.00,94.25
3483.00,94.22
3482.00,94.19
3481.00,94.17
3480.00,94.15
3479.00,94.14
3478.00,94.11
3477.00,94.08
3476.00,94.02
3475.00,93.96
3474.00,93.92
3473.00,93.88
3472.00,93.86
3471.00,93.84
3470.00,93.82
3469.00,93.80
3468.00,93.77
3467.00,93.73
3466.00,93.69
3465.00,93.65
3464.00,93.62
3463.00,93.61
3462.00,93.61
3461.00,93.59
3460.00,93.56
3459.00,93.52
3458.00,93.47
3457.00,93.42
3456.00,93.37
3455.00,93.33
3454.00,93.31
3453.00,93.30
3452.00,93.28
3451.00,93.25
3450.00,93.21
3449.00,93.17
3448.00,93.13
3447.00,93.10
3446.00,93.07
3445.00,93.05
3444.00,93.03
3443.00,93.01
3442.00,92.99
3441.00,92.97
3440.00,92.95
3439.00,92.94
3438.00,92.91
3437.00,92.88
3436.00,92.82
3435.00,92.77
3434.00,92.73
3433.00,92.71
3432.00,92.70
3431.00,92.71
3430.00,92.70
3429.00,92.68
3428.00,92.65
3427.00,92.61
3426.00,92.57
3425.00,92.54
3424.00,92.50
3423.00,92.47
3422.00,92.44
3421.00,92.42
3420.00,92.39
3419.00,92.37
3418.00,92.35
3417.00,92.33
3416.00,92.31
3415.00,92.29
3414.00,92.26
3413.00,92.23
3412.00,92.20
3411.00,92.17
3410.00,92.15
3409.00,92.14
3408.00,92.11
3407.00,92.06
3406.00,92.01
3405.00,91.96
3404.00,91.92
3403.00,91.89
3402.00,91.86
3401.00,91.83
3400.00,91.80
3399.00,91.77
3398.00,91.74
3397.00,91.70
3396.00,91.65
3395.00,91.62
3394.00,91.61
3393.00,91.60
3392.00,91.59
3391.00,91.57
3390.00,91.54
3389.00,91.50
3388.00,91.47
3387.00,91.45
3386.00,91.43
3385.00,91.41
3384.00,91.40
3383.00,91.38
3382.00,91.35
3381.00,91.32
3380.00,91.28
3379.00,91.24
3378.00,91.20
3377.00,91.18
3376.00,91.17
3375.00,91.17
3374.00,91.16
3373.00,91.15
3372.00,91.12
3371.00,91.08
3370.00,91.02
3369.00,90.97
3368.00,90.93
3367.00,90.90
3366.00,90.88
3365.00,90.86
3364.00,90.82
3363.00,90.78
3362.00,90.74
3361.00,90.71
3360.00,90.67
3359.00,90.62
3358.00,90.57
3357.00,90.52
3356.00,90.48
3355.00,90.45
3354.00,90.42
3353.00,90.40
3352.00,90.39
3351.00,90.37
3350.00,90.34
3349.00,90.29
3348.00,90.24
3347.00,90.19
3346.00,90.15
3345.00,90.12
3344.00,90.08
3343.00,90.04
3342.00,90.00
3341.00,89.96
3340.00,89.92
3339.00,89.89
3338.00,89.86
3337.00,89.83
3336.00,89.79
3335.00,89.75
3334.00,89.70
3333.00,89.67
3332.00,89.64
3331.00,89.61
3330.00,89.57
3329.00,89.53
3328.00,89.48
3327.00,89.44
3326.00,89.38
3325.00,89.32
3324.00,89.27
3323.00,89.23
3322.00,89.19
3321.00,89.16
3320.00,89.12
3319.00,89.07
3318.00,89.02
3317.00,88.97
3316.00,88.92
3315.00,88.88
3314.00,88.84
3313.00,88.82
3312.00,88.80
3311.00,88.75
3310.00,88.69
3309.00,88.63
3308.00,88.57
3307.00,88.54
3306.00,88.51
3305.00,88.48
3304.00,88.42
3303.00,88.37
3302.00,88.33
3301.00,88.29
3300.00,88.27
3299.00,88.24
3298.00,88.20
3297.00,88.15
3296.00,88.11
3295.00,88.06
3294.00,88.03
3293.00,88.00
3292.00,87.98
3291.00,87.95
3290.00,87.93
3289.00,87.90
3288.00,87.88
3287.00,87.87
3286.00,87.86
3285.00,87.86
3284.00,87.85
3283.00,87.83
3282.00,87.81
3281.00,87.78
3280.00,87.76
3279.00,87.75
3278.00,87.75
3277.00,87.77
3276.00,87.79
3275.00,87.82
3274.00,87.83
3273.00,87.85
3272.00,87.86
3271.00,87.88
3270.00,87.90
3269.00,87.92
3268.00,87.95
3267.00,87.98
3266.00,88.01
3265.00,88.04
3264.00,88.07
3263.00,88.11
3262.00,88.16
3261.00,88.22
3260.00,88.27
3259.00,88.31
3258.00,88.36
3257.00,88.41
3256.00,88.46
3255.00,88.51
3254.00,88.55
3253.00,88.59
3252.00,88.64
3251.00,88.70
3250.00,88.77
3249.00,88.82
3248.00,88.87
3247.00,88.91
3246.00,88.96
3245.00,89.01
3244.00,89.07
3243.00,89.12
3242.00,89.17
3241.00,89.20
3240.00,89.23
3239.00,89.25
3238.00,89.29
3237.00,89.34
3236.00,89.39
3235.00,89.42
3234.00,89.44
3233.00,89.45
3232.00,89.48
3231.00,89.52
3230.00,89.57
3229.00,89.62
3228.00,89.67
3227.00,89.72
3226.00,89.77
3225.00,89.82
3224.00,89.86
3223.00,89.89
3222.00,89.93
3221.00,89.96
3220.00,89.98
3219.00,90.01
3218.00,90.04
3217.00,90.06
3216.00,90.09
3215.00,90.11
3214.00,90.14
3213.00,90.17
3212.00,90.19
3211.00,90.22
3210.00,90.26
3209.00,90.29
3208.00,90.32
3207.00,90.34
3206.00,90.36
3205.00,90.40
3204.00,90.44
3203.00,90.49
3202.00,90.55
3201.00,90.61
3200.00,90.67
3199.00,90.71
3198.00,90.74
3197.00,90.75
3196.00,90.77
3195.00,90.79
3194.00,90.84
3193.00,90.89
3192.00,90.94
3191.00,90.98
3190.00,91.01
3189.00,91.04
3188.00,91.08
3187.00,91.13
3186.00,91.19
3185.00,91.24
3184.00,91.29
3183.00,91.34
3182.00,91.39
3181.00,91.46
3180.00,91.53
3179.00,91.60
3178.00,91.65
3177.00,91.69
3176.00,91.73
3175.00,91.78
3174.00,91.83
3173.00,91.87
3172.00,91.90
3171.00,91.93
3170.00,91.98
3169.00,92.05
3168.00,92.12
3167.00,92.19
3166.00,92.24
3165.00,92.29
3164.00,92.34
3163.00,92.38
3162.00,92.42
3161.00,92.45
3160.00,92.48
3159.00,92.50
3158.00,92.53
3157.00,92.58
3156.00,92.65
3155.00,92.72
3154.00,92.79
3153.00,92.86
3152.00,92.91
3151.00,92.95
3150.00,93.00
3149.00,93.04
3148.00,93.09
3147.00,93.13
3146.00,93.15
3145.00,93.18
3144.00,93.20
3143.00,93.24
3142.00,93.29
3141.00,93.35
3140.00,93.39
3139.00,93.42
3138.00,93.44
3137.00,93.46
3136.00,93.50
3135.00,93.55
3134.00,93.60
3133.00,93.65
3132.00,93.69
3131.00,93.71
3130.00,93.72
3129.00,93.72
3128.00,93.73
3127.00,93.75
3126.00,93.78
3125.00,93.81
3124.00,93.84
3123.00,93.87
3122.00,93.91
3121.00,93.94
3120.00,93.97
3119.00,93.99
3118.00,94.00
3117.00,93.99
3116.00,93.98
3115.00,93.97
3114.00,93.96
3113.00,93.96
3112.00,93.97
3111.00,94.00
3110.00,94.03
3109.00,94.04
3108.00,94.05
3107.00,94.03
3106.00,94.02
3105.00,94.00
3104.00,93.99
3103.00,94.00
3102.00,94.01
3101.00,94.04
3100.00,94.06
3099.00,94.07
3098.00,94.05
3097.00,94.03
3096.00,94.01
3095.00,93.98
3094.00,93.96
3093.00,93.93
3092.00,93.92
3091.00,93.92
3090.00,93.92
3089.00,93.92
3088.00,93.91
3087.00,93.89
3086.00,93.87
3085.00,93.84
3084.00,93.82
3083.00,93.80
3082.00,93.80
3081.00,93.79
3080.00,93.78
3079.00,93.76
3078.00,93.73
3077.00,93.71
3076.00,93.70
3075.00,93.70
3074.00,93.70
3073.00,93.69
3072.00,93.68
3071.00,93.67
3070.00,93.66
3069.00,93.67
3068.00,93.68
3067.00,93.70
3066.00,93.71
3065.00,93.72
3064.00,93.73
3063.00,93.74
3062.00,93.75
3061.00,93.76
3060.00,93.78
3059.00,93.80
3058.00,93.82
3057.00,93.84
3056.00,93.87
3055.00,93.90
3054.00,93.92
3053.00,93.94
3052.00,93.97
3051.00,93.99
3050.00,94.02
3049.00,94.05
3048.00,94.08
3047.00,94.11
3046.00,94.15
3045.00,94.18
3044.00,94.21
3043.00,94.23
3042.00,94.25
3041.00,94.25
3040.00,94.26
3039.00,94.28
3038.00,94.30
3037.00,94.33
3036.00,94.36
3035.00,94.38
3034.00,94.40
3033.00,94.41
3032.00,94.42
3031.00,94.42
3030.00,94.43
3029.00,94.46
3028.00,94.48
3027.00,94.51
3026.00,94.54
3025.00,94.56
3024.00,94.59
3023.00,94.60
3022.00,94.61
3021.00,94.62
3020.00,94.63
3019.00,94.65
3018.00,94.66
3017.00,94.66
3016.00,94.66
3015.00,94.65
3014.00,94.64
3013.00,94.63
3012.00,94.62
3011.00,94.60
3010.00,94.57
3009.00,94.54
3008.00,94.50
3007.00,94.47
3006.00,94.43
3005.00,94.38
3004.00,94.34
3003.00,94.30
3002.00,94.26
3001.00,94.21
3000.00,94.16
2999.00,94.09
2998.00,94.02
2997.00,93.94
2996.00,93.85
2995.00,93.74
2994.00,93.64
2993.00,93.52
2992.00,93.39
2991.00,93.25
2990.00,93.09
2989.00,92.94
2988.00,92.78
2987.00,92.63
2986.00,92.45
2985.00,92.27
2984.00,92.08
2983.00,91.89
2982.00,91.69
2981.00,91.48
2980.00,91.26
2979.00,91.02
2978.00,90.77
2977.00,90.49
2976.00,90.20
2975.00,89.91
2974.00,89.61
2973.00,89.30
2972.00,88.97
2971.00,88.62
2970.00,88.26
2969.00,87.89
2968.00,87.51
2967.00,87.12
2966.00,86.72
2965.00,86.33
2964.00,85.94
2963.00,85.57
2962.00,85.22
2961.00,84.88
2960.00,84.57
2959.00,84.27
2958.00,84.00
2957.00,83.77
2956.00,83.62
2955.00,83.54
2954.00,83.54
2953.00,83.60
2952.00,83.70
2951.00,83.81
2950.00,83.89
2949.00,83.94
2948.00,83.94
2947.00,83.87
2946.00,83.74
2945.00,83.54
2944.00,83.25
2943.00,82.90
2942.00,82.49
2941.00,82.04
2940.00,81.54
2939.00,80.98
2938.00,80.36
2937.00,79.68
2936.00,78.97
2935.00,78.23
2934.00,77.47
2933.00,76.69
2932.00,75.89
2931.00,75.07
2930.00,74.22
2929.00,73.36
2928.00,72.49
2927.00,71.61
2926.00,70.73
2925.00,69.85
2924.00,68.95
2923.00,68.04
2922.00,67.12
2921.00,66.20
2920.00,65.32
2919.00,64.57
2918.00,64.05
2917.00,63.89
2916.00,64.23
2915.00,65.12
2914.00,66.49
2913.00,68.21
2912.00,70.06
2911.00,71.87
2910.00,73.51
2909.00,74.94
2908.00,76.16
2907.00,77.20
2906.00,78.08
2905.00,78.84
2904.00,79.50
2903.00,80.09
2902.00,80.62
2901.00,81.09
2900.00,81.54
2899.00,81.97
2898.00,82.38
2897.00,82.77
2896.00,83.16
2895.00,83.54
2894.00,83.91
2893.00,84.28
2892.00,84.64
2891.00,84.99
2890.00,85.32
2889.00,85.64
2888.00,85.93
2887.00,86.21
2886.00,86.47
2885.00,86.72
2884.00,86.93
2883.00,87.11
2882.00,87.24
2881.00,87.34
2880.00,87.39
2879.00,87.41
2878.00,87.38
2877.00,87.32
2876.00,87.22
2875.00,87.08
2874.00,86.94
2873.00,86.81
2872.00,86.72
2871.00,86.67
2870.00,86.67
2869.00,86.69
2868.00,86.71
2867.00,86.69
2866.00,86.60
2865.00,86.44
2864.00,86.17
2863.00,85.80
2862.00,85.31
2861.00,84.69
2860.00,83.96
2859.00,83.11
2858.00,82.16
2857.00,81.11
2856.00,79.96
2855.00,78.70
2854.00,77.34
2853.00,75.89
2852.00,74.48
2851.00,73.30
2850.00,72.63
2849.00,72.73
2848.00,73.70
2847.00,75.46
2846.00,77.71
2845.00,80.15
2844.00,82.48
2843.00,84.56
2842.00,86.34
2841.00,87.83
2840.00,89.07
2839.00,90.09
2838.00,90.92
2837.00,91.60
2836.00,92.17
2835.00,92.66
2834.00,93.06
2833.00,93.39
2832.00,93.67
2831.00,93.91
2830.00,94.13
2829.00,94.34
2828.00,94.52
2827.00,94.69
2826.00,94.84
2825.00,94.99
2824.00,95.12
2823.00,95.24
2822.00,95.36
2821.00,95.47
2820.00,95.58
2819.00,95.68
2818.00,95.76
2817.00,95.83
2816.00,95.89
2815.00,95.93
2814.00,95.98
2813.00,96.05
2812.00,96.12
2811.00,96.20
2810.00,96.27
2809.00,96.33
2808.00,96.39
2807.00,96.45
2806.00,96.51
2805.00,96.57
2804.00,96.61
2803.00,96.65
2802.00,96.68
2801.00,96.71
2800.00,96.74
2799.00,96.78
2798.00,96.83
2797.00,96.88
2796.00,96.91
2795.00,96.95
2794.00,96.98
2793.00,97.02
2792.00,97.07
2791.00,97.11
2790.00,97.15
2789.00,97.17
2788.00,97.20
2787.00,97.22
2786.00,97.24
2785.00,97.27
2784.00,97.31
2783.00,97.36
2782.00,97.41
2781.00,97.45
2780.00,97.48
2779.00,97.50
2778.00,97.52
2777.00,97.53
2776.00,97.55
2775.00,97.58
2774.00,97.60
2773.00,97.63
2772.00,97.66
2771.00,97.70
2770.00,97.73
2769.00,97.75
2768.00,97.77
2767.00,97.78
2766.00,97.79
2765.00,97.79
2764.00,97.80
2763.00,97.80
2762.00,97.81
2761.00,97.82
2760.00,97.84
2759.00,97.86
2758.00,97.87
2757.00,97.88
2756.00,97.89
2755.00,97.90
2754.00,97.92
2753.00,97.93
2752.00,97.94
2751.00,97.96
2750.00,97.97
2749.00,97.99
2748.00,98.00
2747.00,98.01
2746.00,98.02
2745.00,98.03
2744.00,98.04
2743.00,98.05
2742.00,98.05
2741.00,98.04
2740.00,98.04
2739.00,98.04
2738.00,98.06
2737.00,98.07
2736.00,98.08
2735.00,98.09
2734.00,98.09
2733.00,98.10
2732.00,98.10
2731.00,98.11
2730.00,98.12
2729.00,98.14
2728.00,98.16
2727.00,98.19
2726.00,98.22
2725.00,98.24
2724.00,98.25
2723.00,98.25
2722.00,98.26
2721.00,98.26
2720.00,98.27
2719.00,98.29
2718.00,98.31
2717.00,98.33
2716.00,98.36
2715.00,98.39
2714.00,98.41
2713.00,98.43
2712.00,98.45
2711.00,98.46
2710.00,98.46
2709.00,98.46
2708.00,98.45
2707.00,98.46
2706.00,98.49
2705.00,98.51
2704.00,98.53
2703.00,98.54
2702.00,98.55
2701.00,98.54
2700.00,98.55
2699.00,98.56
2698.00,98.57
2697.00,98.57
2696.00,98.58
2695.00,98.58
2694.00,98.58
2693.00,98.58
2692.00,98.57
2691.00,98.56
2690.00,98.57
2689.00,98.58
2688.00,98.59
2687.00,98.60
2686.00,98.60
2685.00,98.59
2684.00,98.59
2683.00,98.59
2682.00,98.59
2681.00,98.59
2680.00,98.60
2679.00,98.60
2678.00,98.61
2677.00,98.62
2676.00,98.64
2675.00,98.65
2674.00,98.66
2673.00,98.67
2672.00,98.67
2671.00,98.65
2670.00,98.64
2669.00,98.65
2668.00,98.66
2667.00,98.67
2666.00,98.68
2665.00,98.67
2664.00,98.66
2663.00,98.65
2662.00,98.65
2661.00,98.64
2660.00,98.64
2659.00,98.65
2658.00,98.66
2657.00,98.67
2656.00,98.67
2655.00,98.66
2654.00,98.64
2653.00,98.62
2652.00,98.61
2651.00,98.61
2650.00,98.61
2649.00,98.61
2648.00,98.61
2647.00,98.61
2646.00,98.61
2645.00,98.61
2644.00,98.61
2643.00,98.60
2642.00,98.59
2641.00,98.60
2640.00,98.61
2639.00,98.62
2638.00,98.62
2637.00,98.60
2636.00,98.58
2635.00,98.57
2634.00,98.57
2633.00,98.58
2632.00,98.58
2631.00,98.58
2630.00,98.57
2629.00,98.57
2628.00,98.57
2627.00,98.57
2626.00,98.57
2625.00,98.57
2624.00,98.57
2623.00,98.57
2622.00,98.58
2621.00,98.59
2620.00,98.60
2619.00,98.61
2618.00,98.62
2617.00,98.63
2616.00,98.64
2615.00,98.65
2614.00,98.64
2613.00,98.63
2612.00,98.63
2611.00,98.64
2610.00,98.66
2609.00,98.67
2608.00,98.66
2607.00,98.65
2606.00,98.65
2605.00,98.67
2604.00,98.69
2603.00,98.72
2602.00,98.72
2601.00,98.70
2600.00,98.68
2599.00,98.68
2598.00,98.68
2597.00,98.68
2596.00,98.68
2595.00,98.68
2594.00,98.68
2593.00,98.69
2592.00,98.69
2591.00,98.69
2590.00,98.69
2589.00,98.68
2588.00,98.67
2587.00,98.67
2586.00,98.68
2585.00,98.70
2584.00,98.71
2583.00,98.71
2582.00,98.70
2581.00,98.70
2580.00,98.71
2579.00,98.72
2578.00,98.73
2577.00,98.73
2576.00,98.74
2575.00,98.75
2574.00,98.76
2573.00,98.76
2572.00,98.77
2571.00,98.78
2570.00,98.79
2569.00,98.79
2568.00,98.79
2567.00,98.79
2566.00,98.78
2565.00,98.78
2564.00,98.78
2563.00,98.78
2562.00,98.78
2561.00,98.77
2560.00,98.77
2559.00,98.78
2558.00,98.81
2557.00,98.83
2556.00,98.82
2555.00,98.79
2554.00,98.75
2553.00,98.72
2552.00,98.72
2551.00,98.74
2550.00,98.78
2549.00,98.82
2548.00,98.85
2547.00,98.86
2546.00,98.87
2545.00,98.86
2544.00,98.85
2543.00,98.84
2542.00,98.85
2541.00,98.84
2540.00,98.83
2539.00,98.84
2538.00,98.85
2537.00,98.87
2536.00,98.88
2535.00,98.87
2534.00,98.85
2533.00,98.83
2532.00,98.82
2531.00,98.83
2530.00,98.85
2529.00,98.86
2528.00,98.86
2527.00,98.84
2526.00,98.82
2525.00,98.82
2524.00,98.84
2523.00,98.88
2522.00,98.90
2521.00,98.90
2520.00,98.89
2519.00,98.90
2518.00,98.92
2517.00,98.95
2516.00,98.96
2515.00,98.97
2514.00,98.99
2513.00,98.99
2512.00,98.99
2511.00,98.99
2510.00,98.98
2509.00,98.96
2508.00,98.95
2507.00,98.97
2506.00,98.99
2505.00,99.01
2504.00,99.02
2503.00,99.03
2502.00,99.04
2501.00,99.05
2500.00,99.05
2499.00,99.05
2498.00,99.04
2497.00,99.05
2496.00,99.06
2495.00,99.07
2494.00,99.07
2493.00,99.05
2492.00,99.05
2491.00,99.06
2490.00,99.09
2489.00,99.11
2488.00,99.11
2487.00,99.08
2486.00,99.07
2485.00,99.07
2484.00,99.10
2483.00,99.13
2482.00,99.15
2481.00,99.15
2480.00,99.16
2479.00,99.18
2478.00,99.19
2477.00,99.19
2476.00,99.18
2475.00,99.17
2474.00,99.19
2473.00,99.22
2472.00,99.24
2471.00,99.25
2470.00,99.24
2469.00,99.23
2468.00,99.23
2467.00,99.24
2466.00,99.24
2465.00,99.23
2464.00,99.21
2463.00,99.19
2462.00,99.17
2461.00,99.16
2460.00,99.15
2459.00,99.16
2458.00,99.18
2457.00,99.20
2456.00,99.23
2455.00,99.24
2454.00,99.23
2453.00,99.23
2452.00,99.24
2451.00,99.26
2450.00,99.28
2449.00,99.29
2448.00,99.29
2447.00,99.30
2446.00,99.30
2445.00,99.31
2444.00,99.32
2443.00,99.33
2442.00,99.34
2441.00,99.36
2440.00,99.35
2439.00,99.34
2438.00,99.33
2437.00,99.33
2436.00,99.34
2435.00,99.35
2434.00,99.36
2433.00,99.35
2432.00,99.36
2431.00,99.39
2430.00,99.43
2429.00,99.45
2428.00,99.43
2427.00,99.39
2426.00,99.35
2425.00,99.33
2424.00,99.33
2423.00,99.35
2422.00,99.38
2421.00,99.40
2420.00,99.41
2419.00,99.43
2418.00,99.45
2417.00,99.47
2416.00,99.49
2415.00,99.49
2414.00,99.50
2413.00,99.49
2412.00,99.47
2411.00,99.45
2410.00,99.43
2409.00,99.42
2408.00,99.43
2407.00,99.46
2406.00,99.49
2405.00,99.52
2404.00,99.53
2403.00,99.53
2402.00,99.54
2401.00,99.56
2400.00,99.58
2399.00,99.62
2398.00,99.64
2397.00,99.65
2396.00,99.65
2395.00,99.65
2394.00,99.66
2393.00,99.67
2392.00,99.69
2391.00,99.71
2390.00,99.73
2389.00,99.74
2388.00,99.74
2387.00,99.76
2386.00,99.80
2385.00,99.85
2384.00,99.90
2383.00,99.97
2382.00,100.03
2381.00,100.08
2380.00,100.12
2379.00,100.14
2378.00,100.14
2377.00,100.12
2376.00,100.10
2375.00,100.09
2374.00,100.10
2373.00,100.15
2372.00,100.20
2371.00,100.27
2370.00,100.33
2369.00,100.37
2368.00,100.39
2367.00,100.37
2366.00,100.31
2365.00,100.24
2364.00,100.17
2363.00,100.17
2362.00,100.22
2361.00,100.30
2360.00,100.37
2359.00,100.40
2358.00,100.39
2357.00,100.35
2356.00,100.31
2355.00,100.29
2354.00,100.29
2353.00,100.31
2352.00,100.34
2351.00,100.38
2350.00,100.41
2349.00,100.44
2348.00,100.48
2347.00,100.51
2346.00,100.51
2345.00,100.46
2344.00,100.37
2343.00,100.31
2342.00,100.29
2341.00,100.30
2340.00,100.30
2339.00,100.29
2338.00,100.26
2337.00,100.23
2336.00,100.20
2335.00,100.18
2334.00,100.19
2333.00,100.19
2332.00,100.20
2331.00,100.20
2330.00,100.19
2329.00,100.16
2328.00,100.11
2327.00,100.03
2326.00,99.94
2325.00,99.86
2324.00,99.82
2323.00,99.83
2322.00,99.86
2321.00,99.87
2320.00,99.84
2319.00,99.78
2318.00,99.75
2317.00,99.75
2316.00,99.80
2315.00,99.85
2314.00,99.88
2313.00,99.88
2312.00,99.85
2311.00,99.81
2310.00,99.78
2309.00,99.75
2308.00,99.73
2307.00,99.72
2306.00,99.71
2305.00,99.69
2304.00,99.66
2303.00,99.62
2302.00,99.59
2301.00,99.57
2300.00,99.55
2299.00,99.54
2298.00,99.53
2297.00,99.51
2296.00,99.50
2295.00,99.48
2294.00,99.43
2293.00,99.37
2292.00,99.31
2291.00,99.27
2290.00,99.23
2289.00,99.19
2288.00,99.15
2287.00,99.11
2286.00,99.09
2285.00,99.07
2284.00,99.05
2283.00,99.04
2282.00,99.03
2281.00,99.03
2280.00,99.01
2279.00,99.00
2278.00,99.00
2277.00,99.01
2276.00,99.04
2275.00,99.06
2274.00,99.05
2273.00,99.01
2272.00,98.96
2271.00,98.91
2270.00,98.89
2269.00,98.89
2268.00,98.92
2267.00,98.94
2266.00,98.94
2265.00,98.91
2264.00,98.86
2263.00,98.80
2262.00,98.76
2261.00,98.73
2260.00,98.72
2259.00,98.72
2258.00,98.74
2257.00,98.75
2256.00,98.74
2255.00,98.73
2254.00,98.73
2253.00,98.74
2252.00,98.74
2251.00,98.73
2250.00,98.71
2249.00,98.67
2248.00,98.63
2247.00,98.60
2246.00,98.56
2245.00,98.54
2244.00,98.52
2243.00,98.51
2242.00,98.50
2241.00,98.48
2240.00,98.47
2239.00,98.49
2238.00,98.54
2237.00,98.57
2236.00,98.57
2235.00,98.53
2234.00,98.49
2233.00,98.45
2232.00,98.42
2231.00,98.42
2230.00,98.43
2229.00,98.44
2228.00,98.42
2227.00,98.39
2226.00,98.36
2225.00,98.34
2224.00,98.31
2223.00,98.29
2222.00,98.27
2221.00,98.25
2220.00,98.21
2219.00,98.18
2218.00,98.17
2217.00,98.20
2216.00,98.24
2215.00,98.26
2214.00,98.23
2213.00,98.17
2212.00,98.10
2211.00,98.06
2210.00,98.04
2209.00,98.03
2208.00,98.04
2207.00,98.09
2206.00,98.14
2205.00,98.14
2204.00,98.09
2203.00,98.05
2202.00,98.04
2201.00,98.04
2200.00,98.03
2199.00,97.99
2198.00,97.94
2197.00,97.89
2196.00,97.85
2195.00,97.81
2194.00,97.76
2193.00,97.71
2192.00,97.68
2191.00,97.67
2190.00,97.65
2189.00,97.61
2188.00,97.57
2187.00,97.55
2186.00,97.54
2185.00,97.51
2184.00,97.48
2183.00,97.45
2182.00,97.46
2181.00,97.48
2180.00,97.52
2179.00,97.56
2178.00,97.61
2177.00,97.64
2176.00,97.61
2175.00,97.53
2174.00,97.44
2173.00,97.35
2172.00,97.29
2171.00,97.24
2170.00,97.18
2169.00,97.11
2168.00,97.05
2167.00,97.01
2166.00,96.99
2165.00,96.96
2164.00,96.90
2163.00,96.83
2162.00,96.78
2161.00,96.82
2160.00,96.98
2159.00,97.22
2158.00,97.43
2157.00,97.56
2156.00,97.62
2155.00,97.66
2154.00,97.70
2153.00,97.72
2152.00,97.73
2151.00,97.75
2150.00,97.78
2149.00,97.83
2148.00,97.91
2147.00,97.99
2146.00,98.05
2145.00,98.09
2144.00,98.12
2143.00,98.16
2142.00,98.19
2141.00,98.20
2140.00,98.22
2139.00,98.27
2138.00,98.35
2137.00,98.43
2136.00,98.50
2135.00,98.57
2134.00,98.63
2133.00,98.65
2132.00,98.65
2131.00,98.66
2130.00,98.69
2129.00,98.73
2128.00,98.76
2127.00,98.77
2126.00,98.77
2125.00,98.76
2124.00,98.76
2123.00,98.77
2122.00,98.79
2121.00,98.79
2120.00,98.77
2119.00,98.73
2118.00,98.69
2117.00,98.64
2116.00,98.62
2115.00,98.63
2114.00,98.66
2113.00,98.69
2112.00,98.71
2111.00,98.71
2110.00,98.71
2109.00,98.70
2108.00,98.68
2107.00,98.68
2106.00,98.68
2105.00,98.66
2104.00,98.62
2103.00,98.59
2102.00,98.58
2101.00,98.60
2100.00,98.63
2099.00,98.65
2098.00,98.66
2097.00,98.67
2096.00,98.70
2095.00,98.74
2094.00,98.78
2093.00,98.77
2092.00,98.72
2091.00,98.66
2090.00,98.63
2089.00,98.61
2088.00,98.61
2087.00,98.60
2086.00,98.58
2085.00,98.56
2084.00,98.54
2083.00,98.55
2082.00,98.58
2081.00,98.60
2080.00,98.60
2079.00,98.59
2078.00,98.56
2077.00,98.53
2076.00,98.50
2075.00,98.50
2074.00,98.52
2073.00,98.51
2072.00,98.48
2071.00,98.44
2070.00,98.41
2069.00,98.40
2068.00,98.42
2067.00,98.46
2066.00,98.51
2065.00,98.53
2064.00,98.52
2063.00,98.51
2062.00,98.51
2061.00,98.50
2060.00,98.45
2059.00,98.38
2058.00,98.31
2057.00,98.25
2056.00,98.21
2055.00,98.19
2054.00,98.18
2053.00,98.13
2052.00,98.03
2051.00,97.91
2050.00,97.80
2049.00,97.73
2048.00,97.71
2047.00,97.74
2046.00,97.80
2045.00,97.84
2044.00,97.84
2043.00,97.82
2042.00,97.78
2041.00,97.72
2040.00,97.63
2039.00,97.55
2038.00,97.49
2037.00,97.47
2036.00,97.49
2035.00,97.51
2034.00,97.53
2033.00,97.54
2032.00,97.55
2031.00,97.56
2030.00,97.56
2029.00,97.53
2028.00,97.49
2027.00,97.47
2026.00,97.48
2025.00,97.50
2024.00,97.52
2023.00,97.54
2022.00,97.56
2021.00,97.57
2020.00,97.57
2019.00,97.57
2018.00,97.56
2017.00,97.53
2016.00,97.50
2015.00,97.48
2014.00,97.51
2013.00,97.59
2012.00,97.68
2011.00,97.74
2010.00,97.74
2009.00,97.72
2008.00,97.74
2007.00,97.81
2006.00,97.92
2005.00,98.00
2004.00,98.01
2003.00,97.96
2002.00,97.88
2001.00,97.82
2000.00,97.83
1999.00,97.89
1998.00,97.95
1997.00,97.96
1996.00,97.93
1995.00,97.91
1994.00,97.92
1993.00,97.95
1992.00,97.96
1991.00,97.94
1990.00,97.90
1989.00,97.85
1988.00,97.82
1987.00,97.82
1986.00,97.82
1985.00,97.79
1984.00,97.74
1983.00,97.68
1982.00,97.59
1981.00,97.46
1980.00,97.35
1979.00,97.35
1978.00,97.45
1977.00,97.58
1976.00,97.70
1975.00,97.81
1974.00,97.91
1973.00,97.95
1972.00,97.94
1971.00,97.90
1970.00,97.88
1969.00,97.88
1968.00,97.91
1967.00,97.98
1966.00,98.07
1965.00,98.13
1964.00,98.14
1963.00,98.14
1962.00,98.18
1961.00,98.23
1960.00,98.26
1959.00,98.26
1958.00,98.25
1957.00,98.24
1956.00,98.25
1955.00,98.30
1954.00,98.38
1953.00,98.47
1952.00,98.53
1951.00,98.57
1950.00,98.57
1949.00,98.53
1948.00,98.50
1947.00,98.50
1946.00,98.54
1945.00,98.61
1944.00,98.70
1943.00,98.80
1942.00,98.87
1941.00,98.87
1940.00,98.82
1939.00,98.77
1938.00,98.75
1937.00,98.76
1936.00,98.77
1935.00,98.79
1934.00,98.80
1933.00,98.82
1932.00,98.84
1931.00,98.87
1930.00,98.89
1929.00,98.89
1928.00,98.88
1927.00,98.90
1926.00,98.93
1925.00,98.95
1924.00,98.96
1923.00,98.98
1922.00,99.01
1921.00,99.02
1920.00,99.01
1919.00,98.99
1918.00,98.96
1917.00,98.94
1916.00,98.96
1915.00,99.02
1914.00,99.09
1913.00,99.14
1912.00,99.15
1911.00,99.15
1910.00,99.15
1909.00,99.14
1908.00,99.12
1907.00,99.12
1906.00,99.12
1905.00,99.11
1904.00,99.11
1903.00,99.12
1902.00,99.14
1901.00,99.16
1900.00,99.18
1899.00,99.19
1898.00,99.21
1897.00,99.22
1896.00,99.22
1895.00,99.22
1894.00,99.23
1893.00,99.24
1892.00,99.26
1891.00,99.30
1890.00,99.33
1889.00,99.35
1888.00,99.34
1887.00,99.31
1886.00,99.29
1885.00,99.26
1884.00,99.23
1883.00,99.22
1882.00,99.21
1881.00,99.21
1880.00,99.21
1879.00,99.22
1878.00,99.24
1877.00,99.24
1876.00,99.23
1875.00,99.23
1874.00,99.27
1873.00,99.31
1872.00,99.34
1871.00,99.37
1870.00,99.40
1869.00,99.41
1868.00,99.40
1867.00,99.36
1866.00,99.31
1865.00,99.26
1864.00,99.24
1863.00,99.26
1862.00,99.30
1861.00,99.32
1860.00,99.33
1859.00,99.34
1858.00,99.36
1857.00,99.36
1856.00,99.34
1855.00,99.34
1854.00,99.34
1853.00,99.34
1852.00,99.34
1851.00,99.34
1850.00,99.35
1849.00,99.38
1848.00,99.42
1847.00,99.46
1846.00,99.47
1845.00,99.44
1844.00,99.40
1843.00,99.37
1842.00,99.34
1841.00,99.31
1840.00,99.29
1839.00,99.29
1838.00,99.30
1837.00,99.30
1836.00,99.29
1835.00,99.28
1834.00,99.28
1833.00,99.28
1832.00,99.26
1831.00,99.26
1830.00,99.29
1829.00,99.32
1828.00,99.33
1827.00,99.34
1826.00,99.34
1825.00,99.32
1824.00,99.28
1823.00,99.23
1822.00,99.20
1821.00,99.18
1820.00,99.18
1819.00,99.19
1818.00,99.21
1817.00,99.21
1816.00,99.19
1815.00,99.18
1814.00,99.17
1813.00,99.17
1812.00,99.16
1811.00,99.16
1810.00,99.15
1809.00,99.14
1808.00,99.11
1807.00,99.08
1806.00,99.06
1805.00,99.05
1804.00,99.05
1803.00,99.04
1802.00,99.04
1801.00,99.02
1800.00,98.98
1799.00,98.95
1798.00,98.93
1797.00,98.92
1796.00,98.90
1795.00,98.88
1794.00,98.87
1793.00,98.85
1792.00,98.81
1791.00,98.75
1790.00,98.67
1789.00,98.60
1788.00,98.54
1787.00,98.51
1786.00,98.48
1785.00,98.44
1784.00,98.38
1783.00,98.32
1782.00,98.26
1781.00,98.21
1780.00,98.16
1779.00,98.12
1778.00,98.08
1777.00,98.04
1776.00,98.00
1775.00,97.94
1774.00,97.88
1773.00,97.81
1772.00,97.74
1771.00,97.65
1770.00,97.53
1769.00,97.36
1768.00,97.18
1767.00,97.02
1766.00,96.91
1765.00,96.80
1764.00,96.66
1763.00,96.49
1762.00,96.30
1761.00,96.09
1760.00,95.87
1759.00,95.65
1758.00,95.40
1757.00,95.11
1756.00,94.80
1755.00,94.51
1754.00,94.22
1753.00,93.90
1752.00,93.48
1751.00,92.98
1750.00,92.38
1749.00,91.67
1748.00,90.89
1747.00,90.13
1746.00,89.42
1745.00,88.74
1744.00,88.07
1743.00,87.46
1742.00,86.91
1741.00,86.39
1740.00,85.89
1739.00,85.49
1738.00,85.21
1737.00,85.01
1736.00,84.81
1735.00,84.66
1734.00,84.59
1733.00,84.60
1732.00,84.64
1731.00,84.76
1730.00,84.95
1729.00,85.20
1728.00,85.46
1727.00,85.72
1726.00,86.00
1725.00,86.26
1724.00,86.51
1723.00,86.75
1722.00,86.96
1721.00,87.12
1720.00,87.23
1719.00,87.35
1718.00,87.52
1717.00,87.67
1716.00,87.73
1715.00,87.76
1714.00,87.77
1713.00,87.75
1712.00,87.72
1711.00,87.71
1710.00,87.72
1709.00,87.73
1708.00,87.71
1707.00,87.67
1706.00,87.63
1705.00,87.60
1704.00,87.57
1703.00,87.54
1702.00,87.49
1701.00,87.36
1700.00,87.15
1699.00,86.95
1698.00,86.71
1697.00,86.34
1696.00,85.85
1695.00,85.40
1694.00,85.06
1693.00,84.75
1692.00,84.41
1691.00,84.05
1690.00,83.68
1689.00,83.31
1688.00,82.96
1687.00,82.66
1686.00,82.34
1685.00,81.86
1684.00,81.22
1683.00,80.66
1682.00,80.23
1681.00,79.78
1680.00,79.32
1679.00,78.90
1678.00,78.54
1677.00,78.17
1676.00,77.73
1675.00,77.31
1674.00,76.98
1673.00,76.73
1672.00,76.46
1671.00,76.14
1670.00,75.77
1669.00,75.37
1668.00,75.02
1667.00,74.73
1666.00,74.49
1665.00,74.20
1664.00,73.83
1663.00,73.39
1662.00,72.95
1661.00,72.54
1660.00,72.15
1659.00,71.79
1658.00,71.49
1657.00,71.24
1656.00,71.02
1655.00,70.74
1654.00,70.28
1653.00,69.60
1652.00,69.11
1651.00,68.89
1650.00,68.79
1649.00,68.66
1648.00,68.47
1647.00,68.22
1646.00,68.02
1645.00,67.88
1644.00,67.79
1643.00,67.73
1642.00,67.70
1641.00,67.68
1640.00,67.68
1639.00,67.70
1638.00,67.72
1637.00,67.72
1636.00,67.68
1635.00,67.65
1634.00,67.67
1633.00,67.69
1632.00,67.70
1631.00,67.72
1630.00,67.78
1629.00,67.86
1628.00,67.96
1627.00,68.09
1626.00,68.26
1625.00,68.46
1624.00,68.70
1623.00,69.01
1622.00,69.35
1621.00,69.70
1620.00,70.03
1619.00,70.40
1618.00,70.85
1617.00,71.40
1616.00,71.97
1615.00,72.48
1614.00,72.93
1613.00,73.39
1612.00,73.90
1611.00,74.45
1610.00,75.02
1609.00,75.58
1608.00,76.14
1607.00,76.67
1606.00,77.17
1605.00,77.66
1604.00,78.16
1603.00,78.64
1602.00,79.09
1601.00,79.50
1600.00,79.88
1599.00,80.23
1598.00,80.54
1597.00,80.85
1596.00,81.17
1595.00,81.48
1594.00,81.77
1593.00,82.03
1592.00,82.28
1591.00,82.50
1590.00,82.69
1589.00,82.85
1588.00,83.01
1587.00,83.14
1586.00,83.23
1585.00,83.30
1584.00,83.35
1583.00,83.39
1582.00,83.39
1581.00,83.38
1580.00,83.39
1579.00,83.39
1578.00,83.33
1577.00,83.20
1576.00,83.04
1575.00,82.88
1574.00,82.74
1573.00,82.62
1572.00,82.51
1571.00,82.36
1570.00,82.12
1569.00,81.83
1568.00,81.56
1567.00,81.32
1566.00,81.05
1565.00,80.77
1564.00,80.52
1563.00,80.33
1562.00,80.16
1561.00,79.98
1560.00,79.64
1559.00,79.00
1558.00,78.35
1557.00,77.90
1556.00,77.53
1555.00,77.12
1554.00,76.69
1553.00,76.31
1552.00,75.98
1551.00,75.65
1550.00,75.27
1549.00,74.90
1548.00,74.61
1547.00,74.39
1546.00,74.20
1545.00,74.00
1544.00,73.82
1543.00,73.67
1542.00,73.50
1541.00,73.25
1540.00,72.95
1539.00,72.72
1538.00,72.59
1537.00,72.52
1536.00,72.47
1535.00,72.43
1534.00,72.38
1533.00,72.32
1532.00,72.27
1531.00,72.25
1530.00,72.25
1529.00,72.28
1528.00,72.32
1527.00,72.38
1526.00,72.44
1525.00,72.49
1524.00,72.55
1523.00,72.60
1522.00,72.64
1521.00,72.63
1520.00,72.62
1519.00,72.60
1518.00,72.58
1517.00,72.58
1516.00,72.62
1515.00,72.71
1514.00,72.84
1513.00,73.05
1512.00,73.32
1511.00,73.65
1510.00,73.98
1509.00,74.30
1508.00,74.65
1507.00,75.07
1506.00,75.47
1505.00,75.77
1504.00,76.03
1503.00,76.30
1502.00,76.63
1501.00,77.02
1500.00,77.45
1499.00,77.90
1498.00,78.35
1497.00,78.79
1496.00,79.22
1495.00,79.63
1494.00,80.03
1493.00,80.42
1492.00,80.84
1491.00,81.31
1490.00,81.77
1489.00,82.14
1488.00,82.39
1487.00,82.61
1486.00,82.80
1485.00,82.95
1484.00,83.04
1483.00,83.09
1482.00,83.09
1481.00,83.00
1480.00,82.83
1479.00,82.61
1478.00,82.27
1477.00,81.74
1476.00,80.95
1475.00,79.91
1474.00,78.60
1473.00,77.13
1472.00,75.87
1471.00,75.09
1470.00,74.63
1469.00,74.26
1468.00,73.91
1467.00,73.55
1466.00,73.16
1465.00,72.78
1464.00,72.59
1463.00,72.72
1462.00,73.11
1461.00,73.63
1460.00,74.17
1459.00,74.62
1458.00,74.89
1457.00,74.97
1456.00,75.00
1455.00,75.09
1454.00,75.24
1453.00,75.47
1452.00,75.76
1451.00,76.06
1450.00,76.33
1449.00,76.56
1448.00,76.75
1447.00,76.91
1446.00,77.05
1445.00,77.20
1444.00,77.38
1443.00,77.59
1442.00,77.81
1441.00,78.04
1440.00,78.29
1439.00,78.54
1438.00,78.81
1437.00,79.12
1436.00,79.40
1435.00,79.64
1434.00,79.86
1433.00,80.09
1432.00,80.35
1431.00,80.61
1430.00,80.85
1429.00,81.05
1428.00,81.19
1427.00,81.29
1426.00,81.36
1425.00,81.41
1424.00,81.42
1423.00,81.39
1422.00,81.36
1421.00,81.33
1420.00,81.26
1419.00,81.14
1418.00,80.99
1417.00,80.87
1416.00,80.77
1415.00,80.71
1414.00,80.70
1413.00,80.72
1412.00,80.76
1411.00,80.78
1410.00,80.78
1409.00,80.78
1408.00,80.77
1407.00,80.76
1406.00,80.73
1405.00,80.67
1404.00,80.58
1403.00,80.48
1402.00,80.39
1401.00,80.31
1400.00,80.21
1399.00,80.10
1398.00,79.98
1397.00,79.87
1396.00,79.74
1395.00,79.58
1394.00,79.42
1393.00,79.28
1392.00,79.17
1391.00,79.05
1390.00,78.93
1389.00,78.77
1388.00,78.51
1387.00,78.19
1386.00,77.85
1385.00,77.57
1384.00,77.37
1383.00,77.23
1382.00,77.16
1381.00,77.12
1380.00,77.11
1379.00,77.13
1378.00,77.20
1377.00,77.35
1376.00,77.56
1375.00,77.84
1374.00,78.13
1373.00,78.39
1372.00,78.58
1371.00,78.72
1370.00,78.82
1369.00,78.90
1368.00,78.96
1367.00,79.06
1366.00,79.23
1365.00,79.48
1364.00,79.82
1363.00,80.19
1362.00,80.51
1361.00,80.73
1360.00,80.88
1359.00,81.00
1358.00,81.10
1357.00,81.20
1356.00,81.29
1355.00,81.37
1354.00,81.43
1353.00,81.48
1352.00,81.51
1351.00,81.52
1350.00,81.52
1349.00,81.51
1348.00,81.50
1347.00,81.49
1346.00,81.50
1345.00,81.51
1344.00,81.53
1343.00,81.57
1342.00,81.62
1341.00,81.67
1340.00,81.69
1339.00,81.68
1338.00,81.65
1337.00,81.62
1336.00,81.58
1335.00,81.54
1334.00,81.50
1333.00,81.45
1332.00,81.41
1331.00,81.38
1330.00,81.37
1329.00,81.38
1328.00,81.40
1327.00,81.42
1326.00,81.44
1325.00,81.44
1324.00,81.42
1323.00,81.38
1322.00,81.33
1321.00,81.26
1320.00,81.18
1319.00,81.10
1318.00,81.00
1317.00,80.90
1316.00,80.78
1315.00,80.66
1314.00,80.52
1313.00,80.39
1312.00,80.25
1311.00,80.13
1310.00,80.04
1309.00,79.98
1308.00,79.96
1307.00,79.95
1306.00,79.95
1305.00,79.95
1304.00,79.95
1303.00,79.93
1302.00,79.90
1301.00,79.87
1300.00,79.83
1299.00,79.78
1298.00,79.73
1297.00,79.67
1296.00,79.62
1295.00,79.57
1294.00,79.53
1293.00,79.48
1292.00,79.41
1291.00,79.33
1290.00,79.24
1289.00,79.16
1288.00,79.09
1287.00,79.04
1286.00,78.99
1285.00,78.94
1284.00,78.88
1283.00,78.81
1282.00,78.73
1281.00,78.65
1280.00,78.58
1279.00,78.52
1278.00,78.47
1277.00,78.41
1276.00,78.34
1275.00,78.25
1274.00,78.16
1273.00,78.06
1272.00,77.95
1271.00,77.83
1270.00,77.70
1269.00,77.55
1268.00,77.38
1267.00,77.23
1266.00,77.12
1265.00,77.04
1264.00,76.99
1263.00,76.95
1262.00,76.90
1261.00,76.84
1260.00,76.75
1259.00,76.63
1258.00,76.49
1257.00,76.34
1256.00,76.18
1255.00,76.03
1254.00,75.91
1253.00,75.79
1252.00,75.67
1251.00,75.54
1250.00,75.40
1249.00,75.25
1248.00,75.10
1247.00,74.97
1246.00,74.85
1245.00,74.75
1244.00,74.68
1243.00,74.65
1242.00,74.65
1241.00,74.66
1240.00,74.67
1239.00,74.66
1238.00,74.67
1237.00,74.67
1236.00,74.68
1235.00,74.68
1234.00,74.69
1233.00,74.70
1232.00,74.71
1231.00,74.72
1230.00,74.74
1229.00,74.78
1228.00,74.84
1227.00,74.91
1226.00,74.99
1225.00,75.05
1224.00,75.08
1223.00,75.11
1222.00,75.16
1221.00,75.23
1220.00,75.34
1219.00,75.49
1218.00,75.67
1217.00,75.85
1216.00,76.02
1215.00,76.17
1214.00,76.29
1213.00,76.37
1212.00,76.40
1211.00,76.39
1210.00,76.36
1209.00,76.30
1208.00,76.21
1207.00,76.06
1206.00,75.87
1205.00,75.66
1204.00,75.50
1203.00,75.39
1202.00,75.36
1201.00,75.38
1200.00,75.46
1199.00,75.56
1198.00,75.69
1197.00,75.82
1196.00,75.94
1195.00,76.05
1194.00,76.14
1193.00,76.18
1192.00,76.17
1191.00,76.11
1190.00,76.01
1189.00,75.88
1188.00,75.74
1187.00,75.60
1186.00,75.46
1185.00,75.32
1184.00,75.18
1183.00,75.05
1182.00,74.91
1181.00,74.78
1180.00,74.66
1179.00,74.56
1178.00,74.47
1177.00,74.37
1176.00,74.27
1175.00,74.18
1174.00,74.12
1173.00,74.11
1172.00,74.17
1171.00,74.28
1170.00,74.43
1169.00,74.60
1168.00,74.77
1167.00,74.96
1166.00,75.17
1165.00,75.39
1164.00,75.61
1163.00,75.84
1162.00,76.06
1161.00,76.29
1160.00,76.53
1159.00,76.78
1158.00,77.03
1157.00,77.28
1156.00,77.53
1155.00,77.78
1154.00,78.03
1153.00,78.29
1152.00,78.55
1151.00,78.81
1150.00,79.05
1149.00,79.29
1148.00,79.53
1147.00,79.77
1146.00,79.99
1145.00,80.19
1144.00,80.36
1143.00,80.50
1142.00,80.59
1141.00,80.63
1140.00,80.66
1139.00,80.69
1138.00,80.74
1137.00,80.81
1136.00,80.88
1135.00,80.93
1134.00,80.97
1133.00,80.97
1132.00,80.94
1131.00,80.91
1130.00,80.88
1129.00,80.82
1128.00,80.75
1127.00,80.69
1126.00,80.64
1125.00,80.60
1124.00,80.56
1123.00,80.51
1122.00,80.46
1121.00,80.41
1120.00,80.36
1119.00,80.30
1118.00,80.24
1117.00,80.17
1116.00,80.12
1115.00,80.11
1114.00,80.14
1113.00,80.19
1112.00,80.24
1111.00,80.27
1110.00,80.29
1109.00,80.29
1108.00,80.28
1107.00,80.26
1106.00,80.23
1105.00,80.18
1104.00,80.13
1103.00,80.09
1102.00,80.10
1101.00,80.15
1100.00,80.18
1099.00,80.18
1098.00,80.15
1097.00,80.11
1096.00,80.07
1095.00,80.04
1094.00,79.98
1093.00,79.89
1092.00,79.75
1091.00,79.60
1090.00,79.45
1089.00,79.31
1088.00,79.16
1087.00,79.02
1086.00,78.91
1085.00,78.81
1084.00,78.72
1083.00,78.65
1082.00,78.61
1081.00,78.62
1080.00,78.66
1079.00,78.70
1078.00,78.72
1077.00,78.74
1076.00,78.79
1075.00,78.87
1074.00,78.96
1073.00,79.04
1072.00,79.11
1071.00,79.19
1070.00,79.29
1069.00,79.39
1068.00,79.47
1067.00,79.55
1066.00,79.60
1065.00,79.64
1064.00,79.66
1063.00,79.69
1062.00,79.73
1061.00,79.79
1060.00,79.85
1059.00,79.91
1058.00,79.95
1057.00,79.97
1056.00,79.97
1055.00,79.98
1054.00,80.00
1053.00,80.02
1052.00,80.04
1051.00,80.05
1050.00,80.07
1049.00,80.08
1048.00,80.07
1047.00,80.05
1046.00,80.03
1045.00,80.02
1044.00,80.04
1043.00,80.09
1042.00,80.16
1041.00,80.25
1040.00,80.37
1039.00,80.52
1038.00,80.69
1037.00,80.87
1036.00,81.05
1035.00,81.23
1034.00,81.40
1033.00,81.57
1032.00,81.73
1031.00,81.88
1030.00,82.01
1029.00,82.13
1028.00,82.23
1027.00,82.33
1026.00,82.42
1025.00,82.51
1024.00,82.59
1023.00,82.67
1022.00,82.76
1021.00,82.86
1020.00,82.95
1019.00,83.04
1018.00,83.11
1017.00,83.16
1016.00,83.20
1015.00,83.24
1014.00,83.30
1013.00,83.38
1012.00,83.46
1011.00,83.54
1010.00,83.63
1009.00,83.72
1008.00,83.83
1007.00,83.94
1006.00,84.04
1005.00,84.13
1004.00,84.18
1003.00,84.21
1002.00,84.23
1001.00,84.26
1000.00,84.32
999.00,84.38
998.00,84.44
997.00,84.48
996.00,84.51
995.00,84.52
994.00,84.53
993.00,84.54
992.00,84.54
991.00,84.55
990.00,84.56
989.00,84.57
988.00,84.58
987.00,84.59
986.00,84.60
985.00,84.62
984.00,84.66
983.00,84.72
982.00,84.80
981.00,84.89
980.00,84.97
979.00,85.06
978.00,85.15
977.00,85.26
976.00,85.38
975.00,85.50
974.00,85.61
973.00,85.71
972.00,85.80
971.00,85.89
970.00,86.00
969.00,86.12
968.00,86.25
967.00,86.36
966.00,86.43
965.00,86.47
964.00,86.48
963.00,86.47
962.00,86.47
961.00,86.47
960.00,86.48
959.00,86.50
958.00,86.53
957.00,86.58
956.00,86.63
955.00,86.70
954.00,86.77
953.00,86.84
952.00,86.91
951.00,86.96
950.00,87.00
949.00,87.04
948.00,87.07
947.00,87.10
946.00,87.14
945.00,87.16
944.00,87.17
943.00,87.18
942.00,87.17
941.00,87.16
940.00,87.15
939.00,87.13
938.00,87.11
937.00,87.10
936.00,87.09
935.00,87.06
934.00,87.04
933.00,87.04
932.00,87.09
931.00,87.17
930.00,87.25
929.00,87.29
928.00,87.29
927.00,87.26
926.00,87.24
925.00,87.24
924.00,87.26
923.00,87.29
922.00,87.33
921.00,87.36
920.00,87.42
919.00,87.49
918.00,87.59
917.00,87.70
916.00,87.81
915.00,87.90
914.00,87.96
913.00,88.00
912.00,88.04
911.00,88.08
910.00,88.14
909.00,88.20
908.00,88.27
907.00,88.31
906.00,88.32
905.00,88.31
904.00,88.30
903.00,88.29
902.00,88.28
901.00,88.27
900.00,88.25
899.00,88.22
898.00,88.17
897.00,88.12
896.00,88.08
895.00,88.06
894.00,88.05
893.00,88.01
892.00,87.94
891.00,87.86
890.00,87.79
889.00,87.75
888.00,87.73
887.00,87.73
886.00,87.72
885.00,87.71
884.00,87.67
883.00,87.61
882.00,87.56
881.00,87.53
880.00,87.54
879.00,87.56
878.00,87.59
877.00,87.62
876.00,87.63
875.00,87.63
874.00,87.61
873.00,87.60
872.00,87.59
871.00,87.60
870.00,87.65
869.00,87.71
868.00,87.74
867.00,87.74
866.00,87.70
865.00,87.65
864.00,87.62
863.00,87.61
862.00,87.62
861.00,87.64
860.00,87.65
859.00,87.64
858.00,87.61
857.00,87.56
856.00,87.50
855.00,87.45
854.00,87.40
853.00,87.37
852.00,87.35
851.00,87.32
850.00,87.28
849.00,87.23
848.00,87.18
847.00,87.14
846.00,87.11
845.00,87.09
844.00,87.07
843.00,87.02
842.00,86.95
841.00,86.87
840.00,86.81
839.00,86.75
838.00,86.69
837.00,86.62
836.00,86.54
835.00,86.46
834.00,86.39
833.00,86.33
832.00,86.26
831.00,86.19
830.00,86.10
829.00,86.00
828.00,85.91
827.00,85.85
826.00,85.84
825.00,85.86
824.00,85.87
823.00,85.86
822.00,85.83
821.00,85.81
820.00,85.78
819.00,85.74
818.00,85.68
817.00,85.62
816.00,85.55
815.00,85.47
814.00,85.39
813.00,85.30
812.00,85.21
811.00,85.11
810.00,85.01
809.00,84.91
808.00,84.82
807.00,84.71
806.00,84.59
805.00,84.47
804.00,84.38
803.00,84.32
802.00,84.27
801.00,84.18
800.00,84.07
799.00,83.97
798.00,83.91
797.00,83.86
796.00,83.78
795.00,83.68
794.00,83.56
793.00,83.43
792.00,83.32
791.00,83.23
790.00,83.16
789.00,83.09
788.00,83.00
787.00,82.90
786.00,82.79
785.00,82.67
784.00,82.55
783.00,82.41
782.00,82.25
781.00,82.08
780.00,81.92
779.00,81.79
778.00,81.68
777.00,81.59
776.00,81.52
775.00,81.46
774.00,81.38
773.00,81.24
772.00,81.07
771.00,80.91
770.00,80.81
769.00,80.75
768.00,80.71
767.00,80.64
766.00,80.58
765.00,80.52
764.00,80.45
763.00,80.36
762.00,80.23
761.00,80.10
760.00,79.99
759.00,79.91
758.00,79.85
757.00,79.76
756.00,79.63
755.00,79.49
754.00,79.35
753.00,79.21
752.00,79.06
751.00,78.91
750.00,78.76
749.00,78.63
748.00,78.50
747.00,78.38
746.00,78.27
745.00,78.15
744.00,78.04
743.00,77.93
742.00,77.82
741.00,77.68
740.00,77.53
739.00,77.37
738.00,77.21
737.00,77.02
736.00,76.77
735.00,76.47
734.00,76.06
733.00,75.51
732.00,74.86
731.00,74.21
730.00,73.73
729.00,73.45
728.00,73.30
727.00,73.16
726.00,72.91
725.00,72.52
724.00,72.02
723.00,71.43
722.00,70.74
721.00,70.05
720.00,69.56
719.00,69.52
718.00,69.99
717.00,70.77
716.00,71.59
715.00,72.27
714.00,72.76
713.00,73.07
712.00,73.23
711.00,73.29
710.00,73.30
709.00,73.29
708.00,73.25
707.00,73.19
706.00,73.10
705.00,72.99
704.00,72.87
703.00,72.75
702.00,72.64
701.00,72.53
700.00,72.42
699.00,72.32
698.00,72.24
697.00,72.17
696.00,72.12
695.00,72.13
694.00,72.19
693.00,72.25
692.00,72.26
691.00,72.21
690.00,72.14
689.00,72.07
688.00,71.98
687.00,71.88
686.00,71.76
685.00,71.64
684.00,71.54
683.00,71.46
682.00,71.40
681.00,71.30
680.00,71.15
679.00,70.99
678.00,70.85
677.00,70.70
676.00,70.53
675.00,70.37
674.00,70.24
673.00,70.15
672.00,70.08
671.00,69.98
670.00,69.87
669.00,69.70
668.00,69.44
667.00,69.22
666.00,69.16
665.00,69.15
664.00,69.13
663.00,69.10
662.00,69.05
661.00,68.94
660.00,68.79
659.00,68.65
658.00,68.53
657.00,68.35
656.00,68.10
655.00,67.88
654.00,67.79
653.00,67.80
652.00,67.81
651.00,67.77
650.00,67.72
649.00,67.68
648.00,67.64
647.00,67.61
646.00,67.60
645.00,67.59
644.00,67.56
643.00,67.49
642.00,67.41
641.00,67.33
640.00,67.24
639.00,67.14
638.00,66.99
637.00,66.78
636.00,66.57
635.00,66.48
634.00,66.51
633.00,66.50
632.00,66.35
631.00,66.08
630.00,65.77
629.00,65.45
628.00,65.18
627.00,65.08
626.00,65.17
625.00,65.31
624.00,65.34
623.00,65.29
622.00,65.23
621.00,65.11
620.00,64.91
619.00,64.73
618.00,64.69
617.00,64.79
616.00,64.92
615.00,65.03
614.00,65.04
613.00,64.88
612.00,64.65
611.00,64.57
610.00,64.69
609.00,64.81
608.00,64.71
607.00,64.44
606.00,64.18
605.00,63.97
604.00,63.75
603.00,63.40
602.00,62.92
601.00,62.46
600.00,62.31
599.00,62.60
598.00,63.08
597.00,63.30
596.00,63.11
595.00,62.76
594.00,62.47
593.00,62.21
592.00,62.02
591.00,62.13
590.00,62.54
589.00,62.96
588.00,63.17
587.00,63.28
586.00,63.40
585.00,63.41
584.00,63.22
583.00,63.02
582.00,62.95
581.00,62.83
580.00,62.49
579.00,62.18
578.00,62.21
577.00,62.45
576.00,62.60
575.00,62.52
574.00,62.12
573.00,61.28
572.00,60.21
571.00,59.63
570.00,59.89
569.00,60.55
568.00,61.04
567.00,61.26
566.00,61.27
565.00,60.93
564.00,60.29
563.00,59.85
562.00,59.97
561.00,60.39
560.00,60.68
559.00,60.85
558.00,61.13
557.00,61.45
556.00,61.58
555.00,61.40
554.00,60.90
553.00,60.13
552.00,59.33
551.00,59.05
550.00,59.30
