Created as New Dataset,15.4 Red Wool sheep with much darker fibres natural
cm-1,%T
4000.00,100.30
3999.00,100.30
3998.00,100.29
3997.00,100.29
3996.00,100.28
3995.00,100.28
3994.00,100.29
3993.00,100.30
3992.00,100.31
3991.00,100.33
3990.00,100.34
3989.00,100.34
3988.00,100.33
3987.00,100.32
3986.00,100.32
3985.00,100.32
3984.00,100.33
3983.00,100.33
3982.00,100.32
3981.00,100.31
3980.00,100.31
3979.00,100.31
3978.00,100.31
3977.00,100.32
3976.00,100.33
3975.00,100.33
3974.00,100.33
3973.00,100.32
3972.00,100.31
3971.00,100.30
3970.00,100.29
3969.00,100.29
3968.00,100.30
3967.00,100.31
3966.00,100.33
3965.00,100.34
3964.00,100.35
3963.00,100.36
3962.00,100.38
3961.00,100.39
3960.00,100.38
3959.00,100.37
3958.00,100.35
3957.00,100.33
3956.00,100.32
3955.00,100.33
3954.00,100.34
3953.00,100.37
3952.00,100.38
3951.00,100.39
3950.00,100.39
3949.00,100.39
3948.00,100.39
3947.00,100.40
3946.00,100.42
3945.00,100.43
3944.00,100.43
3943.00,100.44
3942.00,100.44
3941.00,100.44
3940.00,100.44
3939.00,100.42
3938.00,100.40
3937.00,100.39
3936.00,100.39
3935.00,100.40
3934.00,100.42
3933.00,100.43
3932.00,100.43
3931.00,100.43
3930.00,100.41
3929.00,100.40
3928.00,100.38
3927.00,100.38
3926.00,100.38
3925.00,100.39
3924.00,100.41
3923.00,100.42
3922.00,100.44
3921.00,100.45
3920.00,100.45
3919.00,100.44
3918.00,100.42
3917.00,100.40
3916.00,100.38
3915.00,100.38
3914.00,100.38
3913.00,100.39
3912.00,100.38
3911.00,100.35
3910.00,100.33
3909.00,100.33
3908.00,100.36
3907.00,100.41
3906.00,100.48
3905.00,100.53
3904.00,100.58
3903.00,100.61
3902.00,100.63
3901.00,100.63
3900.00,100.59
3899.00,100.53
3898.00,100.48
3897.00,100.45
3896.00,100.46
3895.00,100.48
3894.00,100.52
3893.00,100.54
3892.00,100.52
3891.00,100.48
3890.00,100.47
3889.00,100.49
3888.00,100.53
3887.00,100.54
3886.00,100.53
3885.00,100.51
3884.00,100.52
3883.00,100.55
3882.00,100.56
3881.00,100.53
3880.00,100.48
3879.00,100.46
3878.00,100.47
3877.00,100.48
3876.00,100.48
3875.00,100.46
3874.00,100.46
3873.00,100.51
3872.00,100.57
3871.00,100.61
3870.00,100.60
3869.00,100.57
3868.00,100.57
3867.00,100.58
3866.00,100.57
3865.00,100.55
3864.00,100.53
3863.00,100.52
3862.00,100.53
3861.00,100.53
3860.00,100.53
3859.00,100.55
3858.00,100.60
3857.00,100.70
3856.00,100.83
3855.00,100.92
3854.00,100.91
3853.00,100.83
3852.00,100.79
3851.00,100.76
3850.00,100.68
3849.00,100.55
3848.00,100.46
3847.00,100.43
3846.00,100.44
3845.00,100.47
3844.00,100.50
3843.00,100.53
3842.00,100.56
3841.00,100.60
3840.00,100.64
3839.00,100.66
3838.00,100.66
3837.00,100.65
3836.00,100.66
3835.00,100.66
3834.00,100.65
3833.00,100.62
3832.00,100.57
3831.00,100.52
3830.00,100.49
3829.00,100.49
3828.00,100.49
3827.00,100.49
3826.00,100.50
3825.00,100.53
3824.00,100.58
3823.00,100.63
3822.00,100.64
3821.00,100.63
3820.00,100.63
3819.00,100.66
3818.00,100.67
3817.00,100.63
3816.00,100.55
3815.00,100.49
3814.00,100.46
3813.00,100.45
3812.00,100.43
3811.00,100.42
3810.00,100.45
3809.00,100.49
3808.00,100.52
3807.00,100.53
3806.00,100.54
3805.00,100.58
3804.00,100.62
3803.00,100.63
3802.00,100.59
3801.00,100.54
3800.00,100.53
3799.00,100.55
3798.00,100.54
3797.00,100.49
3796.00,100.43
3795.00,100.39
3794.00,100.38
3793.00,100.39
3792.00,100.40
3791.00,100.38
3790.00,100.35
3789.00,100.33
3788.00,100.32
3787.00,100.33
3786.00,100.34
3785.00,100.35
3784.00,100.37
3783.00,100.40
3782.00,100.44
3781.00,100.47
3780.00,100.48
3779.00,100.46
3778.00,100.45
3777.00,100.43
3776.00,100.41
3775.00,100.39
3774.00,100.37
3773.00,100.36
3772.00,100.37
3771.00,100.38
3770.00,100.39
3769.00,100.41
3768.00,100.45
3767.00,100.49
3766.00,100.49
3765.00,100.47
3764.00,100.45
3763.00,100.44
3762.00,100.45
3761.00,100.46
3760.00,100.44
3759.00,100.41
3758.00,100.40
3757.00,100.42
3756.00,100.48
3755.00,100.56
3754.00,100.65
3753.00,100.74
3752.00,100.80
3751.00,100.79
3750.00,100.76
3749.00,100.76
3748.00,100.79
3747.00,100.82
3746.00,100.82
3745.00,100.75
3744.00,100.64
3743.00,100.60
3742.00,100.62
3741.00,100.63
3740.00,100.60
3739.00,100.59
3738.00,100.61
3737.00,100.63
3736.00,100.63
3735.00,100.64
3734.00,100.64
3733.00,100.63
3732.00,100.60
3731.00,100.54
3730.00,100.50
3729.00,100.46
3728.00,100.44
3727.00,100.43
3726.00,100.43
3725.00,100.44
3724.00,100.45
3723.00,100.45
3722.00,100.42
3721.00,100.40
3720.00,100.37
3719.00,100.35
3718.00,100.33
3717.00,100.33
3716.00,100.35
3715.00,100.38
3714.00,100.43
3713.00,100.47
3712.00,100.48
3711.00,100.49
3710.00,100.49
3709.00,100.48
3708.00,100.45
3707.00,100.40
3706.00,100.36
3705.00,100.34
3704.00,100.32
3703.00,100.30
3702.00,100.29
3701.00,100.28
3700.00,100.28
3699.00,100.29
3698.00,100.29
3697.00,100.30
3696.00,100.30
3695.00,100.33
3694.00,100.37
3693.00,100.42
3692.00,100.47
3691.00,100.50
3690.00,100.50
3689.00,100.48
3688.00,100.46
3687.00,100.44
3686.00,100.41
3685.00,100.36
3684.00,100.31
3683.00,100.28
3682.00,100.29
3681.00,100.33
3680.00,100.39
3679.00,100.47
3678.00,100.56
3677.00,100.63
3676.00,100.63
3675.00,100.61
3674.00,100.61
3673.00,100.63
3672.00,100.62
3671.00,100.56
3670.00,100.45
3669.00,100.34
3668.00,100.27
3667.00,100.22
3666.00,100.16
3665.00,100.13
3664.00,100.12
3663.00,100.13
3662.00,100.13
3661.00,100.13
3660.00,100.12
3659.00,100.12
3658.00,100.11
3657.00,100.09
3656.00,100.07
3655.00,100.10
3654.00,100.16
3653.00,100.22
3652.00,100.28
3651.00,100.31
3650.00,100.31
3649.00,100.31
3648.00,100.32
3647.00,100.32
3646.00,100.28
3645.00,100.22
3644.00,100.15
3643.00,100.08
3642.00,100.01
3641.00,99.95
3640.00,99.90
3639.00,99.86
3638.00,99.85
3637.00,99.85
3636.00,99.87
3635.00,99.88
3634.00,99.89
3633.00,99.93
3632.00,99.99
3631.00,100.05
3630.00,100.07
3629.00,100.02
3628.00,99.99
3627.00,99.99
3626.00,100.00
3625.00,99.96
3624.00,99.89
3623.00,99.85
3622.00,99.85
3621.00,99.88
3620.00,99.88
3619.00,99.86
3618.00,99.83
3617.00,99.83
3616.00,99.85
3615.00,99.85
3614.00,99.83
3613.00,99.78
3612.00,99.73
3611.00,99.71
3610.00,99.71
3609.00,99.72
3608.00,99.73
3607.00,99.74
3606.00,99.71
3605.00,99.67
3604.00,99.61
3603.00,99.56
3602.00,99.53
3601.00,99.52
3600.00,99.52
3599.00,99.51
3598.00,99.49
3597.00,99.46
3596.00,99.43
3595.00,99.41
3594.00,99.39
3593.00,99.37
3592.00,99.37
3591.00,99.39
3590.00,99.44
3589.00,99.48
3588.00,99.49
3587.00,99.44
3586.00,99.38
3585.00,99.31
3584.00,99.24
3583.00,99.21
3582.00,99.20
3581.00,99.21
3580.00,99.22
3579.00,99.21
3578.00,99.20
3577.00,99.17
3576.00,99.14
3575.00,99.11
3574.00,99.10
3573.00,99.11
3572.00,99.13
3571.00,99.17
3570.00,99.21
3569.00,99.25
3568.00,99.25
3567.00,99.23
3566.00,99.18
3565.00,99.13
3564.00,99.08
3563.00,99.04
3562.00,99.00
3561.00,98.97
3560.00,98.94
3559.00,98.92
3558.00,98.90
3557.00,98.89
3556.00,98.88
3555.00,98.86
3554.00,98.83
3553.00,98.78
3552.00,98.74
3551.00,98.71
3550.00,98.71
3549.00,98.71
3548.00,98.72
3547.00,98.71
3546.00,98.71
3545.00,98.71
3544.00,98.71
3543.00,98.71
3542.00,98.70
3541.00,98.69
3540.00,98.69
3539.00,98.68
3538.00,98.66
3537.00,98.64
3536.00,98.61
3535.00,98.58
3534.00,98.55
3533.00,98.52
3532.00,98.50
3531.00,98.50
3530.00,98.51
3529.00,98.50
3528.00,98.46
3527.00,98.42
3526.00,98.40
3525.00,98.39
3524.00,98.40
3523.00,98.40
3522.00,98.39
3521.00,98.38
3520.00,98.38
3519.00,98.38
3518.00,98.38
3517.00,98.35
3516.00,98.33
3515.00,98.30
3514.00,98.30
3513.00,98.29
3512.00,98.28
3511.00,98.26
3510.00,98.24
3509.00,98.22
3508.00,98.20
3507.00,98.19
3506.00,98.19
3505.00,98.19
3504.00,98.19
3503.00,98.19
3502.00,98.18
3501.00,98.14
3500.00,98.10
3499.00,98.07
3498.00,98.05
3497.00,98.04
3496.00,98.04
3495.00,98.03
3494.00,98.01
3493.00,98.00
3492.00,98.01
3491.00,98.02
3490.00,98.04
3489.00,98.04
3488.00,98.04
3487.00,98.02
3486.00,98.01
3485.00,98.00
3484.00,98.00
3483.00,98.00
3482.00,97.99
3481.00,97.97
3480.00,97.93
3479.00,97.88
3478.00,97.84
3477.00,97.80
3476.00,97.78
3475.00,97.76
3474.00,97.75
3473.00,97.74
3472.00,97.75
3471.00,97.77
3470.00,97.78
3469.00,97.77
3468.00,97.75
3467.00,97.72
3466.00,97.71
3465.00,97.72
3464.00,97.73
3463.00,97.73
3462.00,97.72
3461.00,97.69
3460.00,97.66
3459.00,97.63
3458.00,97.61
3457.00,97.61
3456.00,97.60
3455.00,97.59
3454.00,97.58
3453.00,97.58
3452.00,97.58
3451.00,97.59
3450.00,97.59
3449.00,97.57
3448.00,97.54
3447.00,97.51
3446.00,97.50
3445.00,97.52
3444.00,97.53
3443.00,97.54
3442.00,97.52
3441.00,97.50
3440.00,97.48
3439.00,97.46
3438.00,97.44
3437.00,97.42
3436.00,97.41
3435.00,97.39
3434.00,97.36
3433.00,97.33
3432.00,97.30
3431.00,97.28
3430.00,97.26
3429.00,97.26
3428.00,97.26
3427.00,97.25
3426.00,97.24
3425.00,97.21
3424.00,97.19
3423.00,97.18
3422.00,97.17
3421.00,97.16
3420.00,97.15
3419.00,97.13
3418.00,97.13
3417.00,97.12
3416.00,97.13
3415.00,97.13
3414.00,97.14
3413.00,97.14
3412.00,97.13
3411.00,97.11
3410.00,97.07
3409.00,97.05
3408.00,97.03
3407.00,97.00
3406.00,96.98
3405.00,96.96
3404.00,96.95
3403.00,96.94
3402.00,96.92
3401.00,96.90
3400.00,96.89
3399.00,96.88
3398.00,96.87
3397.00,96.87
3396.00,96.88
3395.00,96.91
3394.00,96.93
3393.00,96.93
3392.00,96.91
3391.00,96.89
3390.00,96.87
3389.00,96.85
3388.00,96.81
3387.00,96.76
3386.00,96.71
3385.00,96.67
3384.00,96.67
3383.00,96.68
3382.00,96.70
3381.00,96.72
3380.00,96.73
3379.00,96.73
3378.00,96.73
3377.00,96.71
3376.00,96.68
3375.00,96.64
3374.00,96.61
3373.00,96.57
3372.00,96.54
3371.00,96.51
3370.00,96.50
3369.00,96.51
3368.00,96.52
3367.00,96.51
3366.00,96.50
3365.00,96.47
3364.00,96.45
3363.00,96.43
3362.00,96.42
3361.00,96.42
3360.00,96.41
3359.00,96.40
3358.00,96.38
3357.00,96.36
3356.00,96.35
3355.00,96.35
3354.00,96.36
3353.00,96.37
3352.00,96.35
3351.00,96.33
3350.00,96.30
3349.00,96.28
3348.00,96.25
3347.00,96.23
3346.00,96.22
3345.00,96.23
3344.00,96.24
3343.00,96.25
3342.00,96.23
3341.00,96.20
3340.00,96.17
3339.00,96.14
3338.00,96.11
3337.00,96.08
3336.00,96.06
3335.00,96.05
3334.00,96.05
3333.00,96.05
3332.00,96.04
3331.00,96.02
3330.00,96.01
3329.00,96.01
3328.00,96.01
3327.00,95.99
3326.00,95.95
3325.00,95.92
3324.00,95.88
3323.00,95.86
3322.00,95.84
3321.00,95.81
3320.00,95.79
3319.00,95.77
3318.00,95.77
3317.00,95.77
3316.00,95.77
3315.00,95.75
3314.00,95.73
3313.00,95.69
3312.00,95.66
3311.00,95.64
3310.00,95.63
3309.00,95.63
3308.00,95.63
3307.00,95.62
3306.00,95.60
3305.00,95.57
3304.00,95.53
3303.00,95.49
3302.00,95.45
3301.00,95.42
3300.00,95.40
3299.00,95.41
3298.00,95.43
3297.00,95.46
3296.00,95.47
3295.00,95.47
3294.00,95.45
3293.00,95.42
3292.00,95.38
3291.00,95.34
3290.00,95.30
3289.00,95.27
3288.00,95.26
3287.00,95.27
3286.00,95.29
3285.00,95.29
3284.00,95.28
3283.00,95.27
3282.00,95.26
3281.00,95.27
3280.00,95.28
3279.00,95.28
3278.00,95.28
3277.00,95.27
3276.00,95.27
3275.00,95.27
3274.00,95.27
3273.00,95.26
3272.00,95.26
3271.00,95.26
3270.00,95.27
3269.00,95.29
3268.00,95.31
3267.00,95.32
3266.00,95.33
3265.00,95.33
3264.00,95.33
3263.00,95.34
3262.00,95.35
3261.00,95.36
3260.00,95.37
3259.00,95.38
3258.00,95.40
3257.00,95.42
3256.00,95.45
3255.00,95.48
3254.00,95.49
3253.00,95.51
3252.00,95.52
3251.00,95.54
3250.00,95.55
3249.00,95.57
3248.00,95.60
3247.00,95.62
3246.00,95.65
3245.00,95.66
3244.00,95.68
3243.00,95.70
3242.00,95.72
3241.00,95.73
3240.00,95.72
3239.00,95.71
3238.00,95.72
3237.00,95.75
3236.00,95.78
3235.00,95.81
3234.00,95.81
3233.00,95.82
3232.00,95.83
3231.00,95.85
3230.00,95.87
3229.00,95.89
3228.00,95.90
3227.00,95.91
3226.00,95.93
3225.00,95.96
3224.00,95.97
3223.00,95.97
3222.00,95.97
3221.00,95.97
3220.00,95.98
3219.00,96.00
3218.00,96.04
3217.00,96.08
3216.00,96.13
3215.00,96.16
3214.00,96.17
3213.00,96.17
3212.00,96.17
3211.00,96.17
3210.00,96.17
3209.00,96.18
3208.00,96.18
3207.00,96.19
3206.00,96.21
3205.00,96.22
3204.00,96.24
3203.00,96.25
3202.00,96.25
3201.00,96.25
3200.00,96.26
3199.00,96.27
3198.00,96.29
3197.00,96.33
3196.00,96.37
3195.00,96.40
3194.00,96.43
3193.00,96.45
3192.00,96.46
3191.00,96.47
3190.00,96.48
3189.00,96.48
3188.00,96.49
3187.00,96.51
3186.00,96.53
3185.00,96.57
3184.00,96.60
3183.00,96.61
3182.00,96.62
3181.00,96.61
3180.00,96.60
3179.00,96.60
3178.00,96.60
3177.00,96.62
3176.00,96.64
3175.00,96.68
3174.00,96.71
3173.00,96.73
3172.00,96.76
3171.00,96.79
3170.00,96.83
3169.00,96.86
3168.00,96.90
3167.00,96.93
3166.00,96.95
3165.00,96.96
3164.00,96.96
3163.00,96.97
3162.00,96.98
3161.00,97.00
3160.00,97.03
3159.00,97.07
3158.00,97.11
3157.00,97.16
3156.00,97.19
3155.00,97.20
3154.00,97.21
3153.00,97.22
3152.00,97.23
3151.00,97.25
3150.00,97.28
3149.00,97.30
3148.00,97.32
3147.00,97.33
3146.00,97.35
3145.00,97.37
3144.00,97.40
3143.00,97.41
3142.00,97.42
3141.00,97.43
3140.00,97.43
3139.00,97.44
3138.00,97.44
3137.00,97.45
3136.00,97.47
3135.00,97.49
3134.00,97.51
3133.00,97.53
3132.00,97.55
3131.00,97.56
3130.00,97.57
3129.00,97.57
3128.00,97.57
3127.00,97.57
3126.00,97.59
3125.00,97.62
3124.00,97.65
3123.00,97.67
3122.00,97.68
3121.00,97.68
3120.00,97.68
3119.00,97.68
3118.00,97.68
3117.00,97.68
3116.00,97.69
3115.00,97.69
3114.00,97.70
3113.00,97.71
3112.00,97.74
3111.00,97.76
3110.00,97.76
3109.00,97.75
3108.00,97.73
3107.00,97.71
3106.00,97.70
3105.00,97.69
3104.00,97.70
3103.00,97.71
3102.00,97.71
3101.00,97.71
3100.00,97.71
3099.00,97.70
3098.00,97.70
3097.00,97.69
3096.00,97.69
3095.00,97.69
3094.00,97.68
3093.00,97.68
3092.00,97.67
3091.00,97.67
3090.00,97.66
3089.00,97.66
3088.00,97.65
3087.00,97.64
3086.00,97.63
3085.00,97.63
3084.00,97.64
3083.00,97.65
3082.00,97.65
3081.00,97.66
3080.00,97.65
3079.00,97.65
3078.00,97.65
3077.00,97.64
3076.00,97.63
3075.00,97.62
3074.00,97.61
3073.00,97.60
3072.00,97.60
3071.00,97.61
3070.00,97.63
3069.00,97.64
3068.00,97.65
3067.00,97.64
3066.00,97.63
3065.00,97.63
3064.00,97.63
3063.00,97.63
3062.00,97.64
3061.00,97.65
3060.00,97.66
3059.00,97.68
3058.00,97.70
3057.00,97.72
3056.00,97.73
3055.00,97.73
3054.00,97.73
3053.00,97.74
3052.00,97.75
3051.00,97.76
3050.00,97.77
3049.00,97.79
3048.00,97.80
3047.00,97.81
3046.00,97.83
3045.00,97.84
3044.00,97.86
3043.00,97.88
3042.00,97.90
3041.00,97.92
3040.00,97.94
3039.00,97.96
3038.00,97.99
3037.00,98.02
3036.00,98.04
3035.00,98.06
3034.00,98.07
3033.00,98.07
3032.00,98.06
3031.00,98.05
3030.00,98.05
3029.00,98.05
3028.00,98.06
3027.00,98.08
3026.00,98.10
3025.00,98.12
3024.00,98.15
3023.00,98.19
3022.00,98.22
3021.00,98.25
3020.00,98.27
3019.00,98.28
3018.00,98.27
3017.00,98.27
3016.00,98.27
3015.00,98.28
3014.00,98.30
3013.00,98.32
3012.00,98.34
3011.00,98.34
3010.00,98.34
3009.00,98.34
3008.00,98.35
3007.00,98.36
3006.00,98.39
3005.00,98.41
3004.00,98.42
3003.00,98.42
3002.00,98.41
3001.00,98.40
3000.00,98.39
2999.00,98.37
2998.00,98.36
2997.00,98.35
2996.00,98.35
2995.00,98.34
2994.00,98.33
2993.00,98.32
2992.00,98.32
2991.00,98.30
2990.00,98.27
2989.00,98.23
2988.00,98.20
2987.00,98.17
2986.00,98.15
2985.00,98.13
2984.00,98.11
2983.00,98.10
2982.00,98.08
2981.00,98.05
2980.00,98.02
2979.00,97.99
2978.00,97.95
2977.00,97.92
2976.00,97.89
2975.00,97.86
2974.00,97.84
2973.00,97.81
2972.00,97.79
2971.00,97.77
2970.00,97.75
2969.00,97.73
2968.00,97.71
2967.00,97.68
2966.00,97.66
2965.00,97.64
2964.00,97.63
2963.00,97.62
2962.00,97.61
2961.00,97.60
2960.00,97.59
2959.00,97.59
2958.00,97.61
2957.00,97.63
2956.00,97.64
2955.00,97.65
2954.00,97.66
2953.00,97.69
2952.00,97.72
2951.00,97.75
2950.00,97.75
2949.00,97.75
2948.00,97.73
2947.00,97.72
2946.00,97.72
2945.00,97.72
2944.00,97.72
2943.00,97.71
2942.00,97.70
2941.00,97.66
2940.00,97.62
2939.00,97.59
2938.00,97.58
2937.00,97.58
2936.00,97.59
2935.00,97.58
2934.00,97.57
2933.00,97.56
2932.00,97.55
2931.00,97.54
2930.00,97.54
2929.00,97.54
2928.00,97.54
2927.00,97.55
2926.00,97.56
2925.00,97.56
2924.00,97.56
2923.00,97.56
2922.00,97.57
2921.00,97.59
2920.00,97.64
2919.00,97.68
2918.00,97.72
2917.00,97.76
2916.00,97.80
2915.00,97.83
2914.00,97.87
2913.00,97.90
2912.00,97.92
2911.00,97.95
2910.00,97.98
2909.00,98.02
2908.00,98.06
2907.00,98.10
2906.00,98.14
2905.00,98.17
2904.00,98.18
2903.00,98.19
2902.00,98.20
2901.00,98.22
2900.00,98.25
2899.00,98.27
2898.00,98.30
2897.00,98.32
2896.00,98.33
2895.00,98.35
2894.00,98.36
2893.00,98.37
2892.00,98.37
2891.00,98.36
2890.00,98.35
2889.00,98.33
2888.00,98.33
2887.00,98.34
2886.00,98.36
2885.00,98.39
2884.00,98.41
2883.00,98.41
2882.00,98.41
2881.00,98.40
2880.00,98.38
2879.00,98.36
2878.00,98.34
2877.00,98.33
2876.00,98.33
2875.00,98.34
2874.00,98.35
2873.00,98.36
2872.00,98.36
2871.00,98.38
2870.00,98.41
2869.00,98.43
2868.00,98.45
2867.00,98.47
2866.00,98.48
2865.00,98.51
2864.00,98.54
2863.00,98.58
2862.00,98.60
2861.00,98.62
2860.00,98.62
2859.00,98.62
2858.00,98.63
2857.00,98.65
2856.00,98.65
2855.00,98.65
2854.00,98.65
2853.00,98.65
2852.00,98.66
2851.00,98.68
2850.00,98.71
2849.00,98.74
2848.00,98.76
2847.00,98.79
2846.00,98.82
2845.00,98.85
2844.00,98.89
2843.00,98.93
2842.00,98.96
2841.00,98.98
2840.00,99.00
2839.00,99.01
2838.00,99.03
2837.00,99.04
2836.00,99.07
2835.00,99.09
2834.00,99.10
2833.00,99.12
2832.00,99.14
2831.00,99.17
2830.00,99.20
2829.00,99.22
2828.00,99.22
2827.00,99.22
2826.00,99.21
2825.00,99.21
2824.00,99.22
2823.00,99.22
2822.00,99.23
2821.00,99.23
2820.00,99.24
2819.00,99.25
2818.00,99.27
2817.00,99.28
2816.00,99.28
2815.00,99.28
2814.00,99.28
2813.00,99.27
2812.00,99.27
2811.00,99.27
2810.00,99.28
2809.00,99.29
2808.00,99.30
2807.00,99.32
2806.00,99.34
2805.00,99.35
2804.00,99.36
2803.00,99.36
2802.00,99.36
2801.00,99.36
2800.00,99.37
2799.00,99.37
2798.00,99.38
2797.00,99.38
2796.00,99.38
2795.00,99.39
2794.00,99.39
2793.00,99.39
2792.00,99.39
2791.00,99.41
2790.00,99.42
2789.00,99.44
2788.00,99.44
2787.00,99.45
2786.00,99.45
2785.00,99.46
2784.00,99.47
2783.00,99.47
2782.00,99.48
2781.00,99.47
2780.00,99.47
2779.00,99.47
2778.00,99.47
2777.00,99.47
2776.00,99.46
2775.00,99.46
2774.00,99.46
2773.00,99.46
2772.00,99.48
2771.00,99.51
2770.00,99.54
2769.00,99.55
2768.00,99.55
2767.00,99.55
2766.00,99.55
2765.00,99.56
2764.00,99.57
2763.00,99.58
2762.00,99.59
2761.00,99.61
2760.00,99.62
2759.00,99.62
2758.00,99.62
2757.00,99.62
2756.00,99.62
2755.00,99.63
2754.00,99.64
2753.00,99.65
2752.00,99.65
2751.00,99.64
2750.00,99.64
2749.00,99.64
2748.00,99.64
2747.00,99.64
2746.00,99.65
2745.00,99.66
2744.00,99.67
2743.00,99.67
2742.00,99.67
2741.00,99.67
2740.00,99.67
2739.00,99.68
2738.00,99.68
2737.00,99.69
2736.00,99.70
2735.00,99.71
2734.00,99.72
2733.00,99.72
2732.00,99.72
2731.00,99.73
2730.00,99.73
2729.00,99.73
2728.00,99.73
2727.00,99.73
2726.00,99.73
2725.00,99.73
2724.00,99.75
2723.00,99.76
2722.00,99.78
2721.00,99.79
2720.00,99.80
2719.00,99.79
2718.00,99.77
2717.00,99.77
2716.00,99.78
2715.00,99.79
2714.00,99.80
2713.00,99.80
2712.00,99.80
2711.00,99.80
2710.00,99.80
2709.00,99.80
2708.00,99.79
2707.00,99.79
2706.00,99.80
2705.00,99.82
2704.00,99.83
2703.00,99.83
2702.00,99.82
2701.00,99.81
2700.00,99.81
2699.00,99.81
2698.00,99.82
2697.00,99.83
2696.00,99.85
2695.00,99.86
2694.00,99.88
2693.00,99.89
2692.00,99.90
2691.00,99.91
2690.00,99.91
2689.00,99.91
2688.00,99.90
2687.00,99.88
2686.00,99.86
2685.00,99.85
2684.00,99.85
2683.00,99.87
2682.00,99.88
2681.00,99.90
2680.00,99.92
2679.00,99.94
2678.00,99.94
2677.00,99.93
2676.00,99.90
2675.00,99.89
2674.00,99.89
2673.00,99.90
2672.00,99.92
2671.00,99.92
2670.00,99.92
2669.00,99.92
2668.00,99.94
2667.00,99.95
2666.00,99.96
2665.00,99.97
2664.00,99.97
2663.00,99.96
2662.00,99.95
2661.00,99.94
2660.00,99.94
2659.00,99.93
2658.00,99.92
2657.00,99.91
2656.00,99.92
2655.00,99.93
2654.00,99.94
2653.00,99.95
2652.00,99.96
2651.00,99.96
2650.00,99.96
2649.00,99.96
2648.00,99.95
2647.00,99.93
2646.00,99.91
2645.00,99.91
2644.00,99.90
2643.00,99.91
2642.00,99.91
2641.00,99.92
2640.00,99.93
2639.00,99.93
2638.00,99.93
2637.00,99.92
2636.00,99.91
2635.00,99.91
2634.00,99.90
2633.00,99.90
2632.00,99.91
2631.00,99.92
2630.00,99.91
2629.00,99.89
2628.00,99.89
2627.00,99.89
2626.00,99.90
2625.00,99.89
2624.00,99.88
2623.00,99.86
2622.00,99.85
2621.00,99.84
2620.00,99.85
2619.00,99.86
2618.00,99.88
2617.00,99.89
2616.00,99.88
2615.00,99.87
2614.00,99.85
2613.00,99.84
2612.00,99.85
2611.00,99.88
2610.00,99.90
2609.00,99.90
2608.00,99.88
2607.00,99.86
2606.00,99.85
2605.00,99.87
2604.00,99.89
2603.00,99.91
2602.00,99.91
2601.00,99.91
2600.00,99.90
2599.00,99.90
2598.00,99.91
2597.00,99.91
2596.00,99.90
2595.00,99.87
2594.00,99.84
2593.00,99.83
2592.00,99.82
2591.00,99.83
2590.00,99.84
2589.00,99.85
2588.00,99.86
2587.00,99.89
2586.00,99.91
2585.00,99.91
2584.00,99.91
2583.00,99.89
2582.00,99.88
2581.00,99.87
2580.00,99.86
2579.00,99.85
2578.00,99.86
2577.00,99.88
2576.00,99.90
2575.00,99.92
2574.00,99.92
2573.00,99.92
2572.00,99.92
2571.00,99.92
2570.00,99.93
2569.00,99.92
2568.00,99.92
2567.00,99.91
2566.00,99.91
2565.00,99.92
2564.00,99.91
2563.00,99.90
2562.00,99.88
2561.00,99.87
2560.00,99.87
2559.00,99.88
2558.00,99.90
2557.00,99.91
2556.00,99.91
2555.00,99.90
2554.00,99.89
2553.00,99.87
2552.00,99.86
2551.00,99.87
2550.00,99.88
2549.00,99.90
2548.00,99.91
2547.00,99.92
2546.00,99.93
2545.00,99.94
2544.00,99.95
2543.00,99.95
2542.00,99.93
2541.00,99.92
2540.00,99.92
2539.00,99.94
2538.00,99.94
2537.00,99.93
2536.00,99.90
2535.00,99.87
2534.00,99.86
2533.00,99.87
2532.00,99.89
2531.00,99.91
2530.00,99.93
2529.00,99.95
2528.00,99.96
2527.00,99.96
2526.00,99.94
2525.00,99.92
2524.00,99.91
2523.00,99.91
2522.00,99.91
2521.00,99.92
2520.00,99.94
2519.00,99.95
2518.00,99.96
2517.00,99.97
2516.00,99.98
2515.00,99.98
2514.00,99.99
2513.00,99.99
2512.00,99.97
2511.00,99.95
2510.00,99.92
2509.00,99.90
2508.00,99.90
2507.00,99.91
2506.00,99.93
2505.00,99.96
2504.00,99.98
2503.00,99.99
2502.00,100.00
2501.00,100.00
2500.00,100.00
2499.00,99.98
2498.00,99.97
2497.00,99.95
2496.00,99.95
2495.00,99.95
2494.00,99.95
2493.00,99.95
2492.00,99.96
2491.00,99.98
2490.00,99.99
2489.00,100.00
2488.00,100.00
2487.00,100.02
2486.00,100.03
2485.00,100.03
2484.00,100.02
2483.00,100.02
2482.00,100.02
2481.00,100.03
2480.00,100.04
2479.00,100.05
2478.00,100.03
2477.00,100.01
2476.00,99.99
2475.00,99.99
2474.00,100.01
2473.00,100.02
2472.00,100.03
2471.00,100.03
2470.00,100.04
2469.00,100.05
2468.00,100.05
2467.00,100.03
2466.00,100.01
2465.00,99.99
2464.00,99.99
2463.00,100.00
2462.00,100.03
2461.00,100.04
2460.00,100.05
2459.00,100.04
2458.00,100.03
2457.00,100.03
2456.00,100.05
2455.00,100.07
2454.00,100.08
2453.00,100.08
2452.00,100.06
2451.00,100.05
2450.00,100.05
2449.00,100.06
2448.00,100.07
2447.00,100.07
2446.00,100.07
2445.00,100.05
2444.00,100.03
2443.00,100.02
2442.00,100.03
2441.00,100.03
2440.00,100.02
2439.00,100.02
2438.00,100.03
2437.00,100.05
2436.00,100.06
2435.00,100.05
2434.00,100.02
2433.00,100.01
2432.00,100.03
2431.00,100.05
2430.00,100.06
2429.00,100.07
2428.00,100.07
2427.00,100.07
2426.00,100.08
2425.00,100.09
2424.00,100.10
2423.00,100.11
2422.00,100.12
2421.00,100.13
2420.00,100.13
2419.00,100.14
2418.00,100.14
2417.00,100.15
2416.00,100.16
2415.00,100.16
2414.00,100.16
2413.00,100.16
2412.00,100.15
2411.00,100.15
2410.00,100.15
2409.00,100.15
2408.00,100.15
2407.00,100.15
2406.00,100.14
2405.00,100.14
2404.00,100.14
2403.00,100.14
2402.00,100.14
2401.00,100.14
2400.00,100.14
2399.00,100.15
2398.00,100.16
2397.00,100.17
2396.00,100.17
2395.00,100.18
2394.00,100.19
2393.00,100.21
2392.00,100.23
2391.00,100.23
2390.00,100.22
2389.00,100.20
2388.00,100.20
2387.00,100.21
2386.00,100.22
2385.00,100.23
2384.00,100.25
2383.00,100.28
2382.00,100.31
2381.00,100.33
2380.00,100.33
2379.00,100.33
2378.00,100.35
2377.00,100.40
2376.00,100.45
2375.00,100.50
2374.00,100.51
2373.00,100.49
2372.00,100.45
2371.00,100.41
2370.00,100.38
2369.00,100.38
2368.00,100.41
2367.00,100.47
2366.00,100.52
2365.00,100.52
2364.00,100.50
2363.00,100.47
2362.00,100.44
2361.00,100.41
2360.00,100.37
2359.00,100.36
2358.00,100.37
2357.00,100.38
2356.00,100.39
2355.00,100.42
2354.00,100.45
2353.00,100.46
2352.00,100.44
2351.00,100.43
2350.00,100.43
2349.00,100.43
2348.00,100.44
2347.00,100.44
2346.00,100.46
2345.00,100.49
2344.00,100.52
2343.00,100.53
2342.00,100.51
2341.00,100.47
2340.00,100.45
2339.00,100.42
2338.00,100.40
2337.00,100.38
2336.00,100.41
2335.00,100.45
2334.00,100.49
2333.00,100.50
2332.00,100.49
2331.00,100.46
2330.00,100.44
2329.00,100.40
2328.00,100.34
2327.00,100.29
2326.00,100.26
2325.00,100.26
2324.00,100.27
2323.00,100.28
2322.00,100.27
2321.00,100.23
2320.00,100.20
2319.00,100.20
2318.00,100.21
2317.00,100.21
2316.00,100.21
2315.00,100.20
2314.00,100.18
2313.00,100.17
2312.00,100.17
2311.00,100.19
2310.00,100.23
2309.00,100.25
2308.00,100.25
2307.00,100.25
2306.00,100.24
2305.00,100.23
2304.00,100.21
2303.00,100.17
2302.00,100.14
2301.00,100.12
2300.00,100.11
2299.00,100.10
2298.00,100.10
2297.00,100.10
2296.00,100.11
2295.00,100.13
2294.00,100.14
2293.00,100.14
2292.00,100.13
2291.00,100.09
2290.00,100.05
2289.00,100.03
2288.00,100.02
2287.00,100.03
2286.00,100.04
2285.00,100.04
2284.00,100.02
2283.00,100.01
2282.00,100.00
2281.00,99.99
2280.00,99.97
2279.00,99.95
2278.00,99.94
2277.00,99.95
2276.00,99.97
2275.00,99.99
2274.00,99.99
2273.00,99.97
2272.00,99.95
2271.00,99.92
2270.00,99.90
2269.00,99.87
2268.00,99.86
2267.00,99.86
2266.00,99.87
2265.00,99.89
2264.00,99.89
2263.00,99.89
2262.00,99.88
2261.00,99.89
2260.00,99.90
2259.00,99.89
2258.00,99.87
2257.00,99.85
2256.00,99.84
2255.00,99.86
2254.00,99.87
2253.00,99.87
2252.00,99.84
2251.00,99.81
2250.00,99.78
2249.00,99.76
2248.00,99.76
2247.00,99.77
2246.00,99.77
2245.00,99.79
2244.00,99.81
2243.00,99.82
2242.00,99.82
2241.00,99.81
2240.00,99.80
2239.00,99.80
2238.00,99.79
2237.00,99.78
2236.00,99.78
2235.00,99.79
2234.00,99.78
2233.00,99.76
2232.00,99.74
2231.00,99.74
2230.00,99.75
2229.00,99.75
2228.00,99.75
2227.00,99.77
2226.00,99.79
2225.00,99.79
2224.00,99.77
2223.00,99.75
2222.00,99.73
2221.00,99.72
2220.00,99.70
2219.00,99.67
2218.00,99.64
2217.00,99.62
2216.00,99.59
2215.00,99.59
2214.00,99.60
2213.00,99.62
2212.00,99.62
2211.00,99.60
2210.00,99.57
2209.00,99.55
2208.00,99.53
2207.00,99.52
2206.00,99.52
2205.00,99.54
2204.00,99.58
2203.00,99.59
2202.00,99.56
2201.00,99.50
2200.00,99.44
2199.00,99.44
2198.00,99.47
2197.00,99.53
2196.00,99.57
2195.00,99.59
2194.00,99.59
2193.00,99.57
2192.00,99.55
2191.00,99.54
2190.00,99.53
2189.00,99.50
2188.00,99.45
2187.00,99.40
2186.00,99.36
2185.00,99.35
2184.00,99.34
2183.00,99.33
2182.00,99.34
2181.00,99.38
2180.00,99.44
2179.00,99.49
2178.00,99.53
2177.00,99.55
2176.00,99.56
2175.00,99.57
2174.00,99.58
2173.00,99.56
2172.00,99.51
2171.00,99.45
2170.00,99.40
2169.00,99.36
2168.00,99.32
2167.00,99.27
2166.00,99.23
2165.00,99.22
2164.00,99.22
2163.00,99.19
2162.00,99.13
2161.00,99.07
2160.00,99.05
2159.00,99.10
2158.00,99.18
2157.00,99.27
2156.00,99.33
2155.00,99.38
2154.00,99.41
2153.00,99.44
2152.00,99.50
2151.00,99.57
2150.00,99.63
2149.00,99.67
2148.00,99.69
2147.00,99.68
2146.00,99.65
2145.00,99.61
2144.00,99.60
2143.00,99.62
2142.00,99.67
2141.00,99.72
2140.00,99.75
2139.00,99.76
2138.00,99.77
2137.00,99.77
2136.00,99.77
2135.00,99.76
2134.00,99.75
2133.00,99.75
2132.00,99.76
2131.00,99.79
2130.00,99.84
2129.00,99.89
2128.00,99.92
2127.00,99.94
2126.00,99.95
2125.00,99.98
2124.00,99.99
2123.00,99.98
2122.00,99.96
2121.00,99.95
2120.00,99.94
2119.00,99.93
2118.00,99.92
2117.00,99.92
2116.00,99.92
2115.00,99.95
2114.00,99.97
2113.00,99.99
2112.00,99.98
2111.00,99.93
2110.00,99.87
2109.00,99.82
2108.00,99.81
2107.00,99.82
2106.00,99.82
2105.00,99.82
2104.00,99.83
2103.00,99.87
2102.00,99.91
2101.00,99.94
2100.00,99.96
2099.00,99.99
2098.00,100.02
2097.00,100.05
2096.00,100.07
2095.00,100.06
2094.00,100.03
2093.00,100.00
2092.00,99.99
2091.00,99.99
2090.00,100.01
2089.00,100.02
2088.00,100.03
2087.00,100.03
2086.00,100.01
2085.00,99.97
2084.00,99.94
2083.00,99.93
2082.00,99.94
2081.00,99.95
2080.00,99.94
2079.00,99.90
2078.00,99.87
2077.00,99.85
2076.00,99.86
2075.00,99.88
2074.00,99.90
2073.00,99.89
2072.00,99.90
2071.00,99.92
2070.00,99.96
2069.00,99.98
2068.00,99.97
2067.00,99.96
2066.00,99.96
2065.00,99.97
2064.00,99.98
2063.00,99.96
2062.00,99.93
2061.00,99.92
2060.00,99.92
2059.00,99.93
2058.00,99.92
2057.00,99.91
2056.00,99.90
2055.00,99.91
2054.00,99.91
2053.00,99.89
2052.00,99.85
2051.00,99.81
2050.00,99.78
2049.00,99.76
2048.00,99.76
2047.00,99.76
2046.00,99.75
2045.00,99.72
2044.00,99.68
2043.00,99.65
2042.00,99.64
2041.00,99.64
2040.00,99.62
2039.00,99.59
2038.00,99.57
2037.00,99.57
2036.00,99.59
2035.00,99.59
2034.00,99.57
2033.00,99.55
2032.00,99.54
2031.00,99.55
2030.00,99.56
2029.00,99.58
2028.00,99.60
2027.00,99.59
2026.00,99.56
2025.00,99.54
2024.00,99.56
2023.00,99.60
2022.00,99.58
2021.00,99.51
2020.00,99.43
2019.00,99.41
2018.00,99.44
2017.00,99.50
2016.00,99.56
2015.00,99.61
2014.00,99.65
2013.00,99.68
2012.00,99.69
2011.00,99.71
2010.00,99.73
2009.00,99.74
2008.00,99.75
2007.00,99.78
2006.00,99.81
2005.00,99.82
2004.00,99.81
2003.00,99.80
2002.00,99.79
2001.00,99.81
2000.00,99.84
1999.00,99.87
1998.00,99.88
1997.00,99.87
1996.00,99.86
1995.00,99.86
1994.00,99.86
1993.00,99.84
1992.00,99.78
1991.00,99.72
1990.00,99.72
1989.00,99.76
1988.00,99.81
1987.00,99.82
1986.00,99.79
1985.00,99.75
1984.00,99.73
1983.00,99.72
1982.00,99.71
1981.00,99.68
1980.00,99.67
1979.00,99.71
1978.00,99.79
1977.00,99.88
1976.00,99.93
1975.00,99.94
1974.00,99.91
1973.00,99.88
1972.00,99.86
1971.00,99.86
1970.00,99.86
1969.00,99.86
1968.00,99.86
1967.00,99.87
1966.00,99.85
1965.00,99.82
1964.00,99.80
1963.00,99.80
1962.00,99.82
1961.00,99.84
1960.00,99.86
1959.00,99.89
1958.00,99.94
1957.00,99.97
1956.00,100.00
1955.00,100.01
1954.00,100.03
1953.00,100.03
1952.00,100.05
1951.00,100.07
1950.00,100.10
1949.00,100.11
1948.00,100.11
1947.00,100.12
1946.00,100.14
1945.00,100.17
1944.00,100.18
1943.00,100.18
1942.00,100.16
1941.00,100.14
1940.00,100.12
1939.00,100.12
1938.00,100.13
1937.00,100.15
1936.00,100.18
1935.00,100.21
1934.00,100.23
1933.00,100.25
1932.00,100.26
1931.00,100.27
1930.00,100.28
1929.00,100.29
1928.00,100.29
1927.00,100.29
1926.00,100.30
1925.00,100.32
1924.00,100.34
1923.00,100.35
1922.00,100.34
1921.00,100.31
1920.00,100.28
1919.00,100.26
1918.00,100.26
1917.00,100.29
1916.00,100.32
1915.00,100.33
1914.00,100.33
1913.00,100.32
1912.00,100.31
1911.00,100.32
1910.00,100.33
1909.00,100.33
1908.00,100.35
1907.00,100.37
1906.00,100.41
1905.00,100.43
1904.00,100.45
1903.00,100.46
1902.00,100.47
1901.00,100.47
1900.00,100.48
1899.00,100.49
1898.00,100.47
1897.00,100.45
1896.00,100.44
1895.00,100.45
1894.00,100.47
1893.00,100.49
1892.00,100.50
1891.00,100.51
1890.00,100.50
1889.00,100.50
1888.00,100.49
1887.00,100.51
1886.00,100.54
1885.00,100.56
1884.00,100.57
1883.00,100.57
1882.00,100.57
1881.00,100.56
1880.00,100.54
1879.00,100.54
1878.00,100.54
1877.00,100.54
1876.00,100.54
1875.00,100.55
1874.00,100.57
1873.00,100.59
1872.00,100.59
1871.00,100.59
1870.00,100.58
1869.00,100.58
1868.00,100.58
1867.00,100.59
1866.00,100.59
1865.00,100.57
1864.00,100.56
1863.00,100.56
1862.00,100.58
1861.00,100.60
1860.00,100.61
1859.00,100.62
1858.00,100.63
1857.00,100.63
1856.00,100.63
1855.00,100.63
1854.00,100.63
1853.00,100.63
1852.00,100.63
1851.00,100.62
1850.00,100.62
1849.00,100.61
1848.00,100.62
1847.00,100.63
1846.00,100.63
1845.00,100.62
1844.00,100.62
1843.00,100.64
1842.00,100.67
1841.00,100.68
1840.00,100.68
1839.00,100.68
1838.00,100.66
1837.00,100.66
1836.00,100.66
1835.00,100.70
1834.00,100.74
1833.00,100.77
1832.00,100.78
1831.00,100.77
1830.00,100.76
1829.00,100.73
1828.00,100.71
1827.00,100.69
1826.00,100.69
1825.00,100.69
1824.00,100.68
1823.00,100.68
1822.00,100.67
1821.00,100.66
1820.00,100.67
1819.00,100.69
1818.00,100.72
1817.00,100.73
1816.00,100.73
1815.00,100.74
1814.00,100.76
1813.00,100.77
1812.00,100.77
1811.00,100.76
1810.00,100.74
1809.00,100.72
1808.00,100.70
1807.00,100.70
1806.00,100.72
1805.00,100.75
1804.00,100.77
1803.00,100.78
1802.00,100.76
1801.00,100.73
1800.00,100.72
1799.00,100.74
1798.00,100.77
1797.00,100.79
1796.00,100.80
1795.00,100.80
1794.00,100.79
1793.00,100.77
1792.00,100.74
1791.00,100.72
1790.00,100.73
1789.00,100.73
1788.00,100.72
1787.00,100.71
1786.00,100.71
1785.00,100.70
1784.00,100.69
1783.00,100.69
1782.00,100.70
1781.00,100.71
1780.00,100.72
1779.00,100.74
1778.00,100.75
1777.00,100.75
1776.00,100.75
1775.00,100.74
1774.00,100.75
1773.00,100.73
1772.00,100.70
1771.00,100.69
1770.00,100.69
1769.00,100.70
1768.00,100.70
1767.00,100.70
1766.00,100.70
1765.00,100.72
1764.00,100.74
1763.00,100.74
1762.00,100.73
1761.00,100.72
1760.00,100.71
1759.00,100.70
1758.00,100.69
1757.00,100.69
1756.00,100.69
1755.00,100.70
1754.00,100.70
1753.00,100.69
1752.00,100.69
1751.00,100.69
1750.00,100.69
1749.00,100.67
1748.00,100.64
1747.00,100.62
1746.00,100.60
1745.00,100.60
1744.00,100.59
1743.00,100.58
1742.00,100.57
1741.00,100.57
1740.00,100.56
1739.00,100.56
1738.00,100.56
1737.00,100.56
1736.00,100.56
1735.00,100.54
1734.00,100.50
1733.00,100.46
1732.00,100.45
1731.00,100.45
1730.00,100.45
1729.00,100.45
1728.00,100.43
1727.00,100.42
1726.00,100.41
1725.00,100.40
1724.00,100.38
1723.00,100.35
1722.00,100.33
1721.00,100.31
1720.00,100.28
1719.00,100.26
1718.00,100.22
1717.00,100.15
1716.00,100.08
1715.00,100.04
1714.00,100.02
1713.00,99.99
1712.00,99.92
1711.00,99.85
1710.00,99.77
1709.00,99.68
1708.00,99.57
1707.00,99.45
1706.00,99.32
1705.00,99.17
1704.00,99.05
1703.00,98.95
1702.00,98.85
1701.00,98.68
1700.00,98.46
1699.00,98.27
1698.00,98.10
1697.00,97.87
1696.00,97.58
1695.00,97.33
1694.00,97.16
1693.00,97.00
1692.00,96.83
1691.00,96.64
1690.00,96.45
1689.00,96.28
1688.00,96.12
1687.00,95.96
1686.00,95.80
1685.00,95.60
1684.00,95.37
1683.00,95.21
1682.00,95.11
1681.00,94.99
1680.00,94.82
1679.00,94.65
1678.00,94.48
1677.00,94.33
1676.00,94.17
1675.00,94.00
1674.00,93.86
1673.00,93.72
1672.00,93.57
1671.00,93.43
1670.00,93.27
1669.00,93.11
1668.00,92.94
1667.00,92.78
1666.00,92.61
1665.00,92.44
1664.00,92.25
1663.00,92.07
1662.00,91.90
1661.00,91.73
1660.00,91.55
1659.00,91.38
1658.00,91.22
1657.00,91.05
1656.00,90.87
1655.00,90.70
1654.00,90.54
1653.00,90.37
1652.00,90.23
1651.00,90.09
1650.00,89.92
1649.00,89.77
1648.00,89.64
1647.00,89.53
1646.00,89.45
1645.00,89.37
1644.00,89.28
1643.00,89.19
1642.00,89.11
1641.00,89.04
1640.00,88.96
1639.00,88.90
1638.00,88.87
1637.00,88.86
1636.00,88.86
1635.00,88.86
1634.00,88.86
1633.00,88.84
1632.00,88.79
1631.00,88.74
1630.00,88.73
1629.00,88.74
1628.00,88.76
1627.00,88.78
1626.00,88.81
1625.00,88.86
1624.00,88.96
1623.00,89.09
1622.00,89.21
1621.00,89.30
1620.00,89.36
1619.00,89.44
1618.00,89.59
1617.00,89.81
1616.00,90.05
1615.00,90.25
1614.00,90.43
1613.00,90.61
1612.00,90.80
1611.00,91.02
1610.00,91.24
1609.00,91.47
1608.00,91.69
1607.00,91.90
1606.00,92.10
1605.00,92.31
1604.00,92.52
1603.00,92.73
1602.00,92.92
1601.00,93.09
1600.00,93.26
1599.00,93.42
1598.00,93.57
1597.00,93.72
1596.00,93.86
1595.00,93.99
1594.00,94.11
1593.00,94.22
1592.00,94.32
1591.00,94.42
1590.00,94.49
1589.00,94.54
1588.00,94.59
1587.00,94.63
1586.00,94.66
1585.00,94.68
1584.00,94.70
1583.00,94.71
1582.00,94.70
1581.00,94.68
1580.00,94.66
1579.00,94.63
1578.00,94.57
1577.00,94.48
1576.00,94.40
1575.00,94.35
1574.00,94.31
1573.00,94.27
1572.00,94.22
1571.00,94.16
1570.00,94.08
1569.00,93.98
1568.00,93.87
1567.00,93.75
1566.00,93.62
1565.00,93.51
1564.00,93.42
1563.00,93.32
1562.00,93.20
1561.00,93.06
1560.00,92.92
1559.00,92.76
1558.00,92.61
1557.00,92.51
1556.00,92.38
1555.00,92.22
1554.00,92.03
1553.00,91.84
1552.00,91.66
1551.00,91.51
1550.00,91.35
1549.00,91.19
1548.00,91.04
1547.00,90.90
1546.00,90.77
1545.00,90.67
1544.00,90.57
1543.00,90.47
1542.00,90.37
1541.00,90.29
1540.00,90.22
1539.00,90.15
1538.00,90.07
1537.00,89.97
1536.00,89.87
1535.00,89.81
1534.00,89.79
1533.00,89.78
1532.00,89.77
1531.00,89.73
1530.00,89.68
1529.00,89.63
1528.00,89.61
1527.00,89.61
1526.00,89.62
1525.00,89.61
1524.00,89.58
1523.00,89.54
1522.00,89.51
1521.00,89.51
1520.00,89.50
1519.00,89.49
1518.00,89.48
1517.00,89.49
1516.00,89.53
1515.00,89.55
1514.00,89.57
1513.00,89.61
1512.00,89.68
1511.00,89.76
1510.00,89.82
1509.00,89.89
1508.00,90.04
1507.00,90.29
1506.00,90.54
1505.00,90.72
1504.00,90.80
1503.00,90.85
1502.00,90.94
1501.00,91.08
1500.00,91.25
1499.00,91.43
1498.00,91.62
1497.00,91.85
1496.00,92.07
1495.00,92.27
1494.00,92.43
1493.00,92.58
1492.00,92.76
1491.00,92.99
1490.00,93.24
1489.00,93.48
1488.00,93.67
1487.00,93.84
1486.00,93.99
1485.00,94.14
1484.00,94.26
1483.00,94.36
1482.00,94.45
1481.00,94.52
1480.00,94.57
1479.00,94.60
1478.00,94.63
1477.00,94.65
1476.00,94.65
1475.00,94.63
1474.00,94.57
1473.00,94.49
1472.00,94.40
1471.00,94.33
1470.00,94.28
1469.00,94.23
1468.00,94.19
1467.00,94.17
1466.00,94.16
1465.00,94.15
1464.00,94.12
1463.00,94.09
1462.00,94.05
1461.00,94.00
1460.00,93.96
1459.00,93.93
1458.00,93.90
1457.00,93.85
1456.00,93.80
1455.00,93.74
1454.00,93.68
1453.00,93.63
1452.00,93.61
1451.00,93.61
1450.00,93.61
1449.00,93.63
1448.00,93.64
1447.00,93.65
1446.00,93.66
1445.00,93.68
1444.00,93.72
1443.00,93.78
1442.00,93.84
1441.00,93.88
1440.00,93.91
1439.00,93.93
1438.00,93.99
1437.00,94.11
1436.00,94.25
1435.00,94.36
1434.00,94.41
1433.00,94.44
1432.00,94.49
1431.00,94.56
1430.00,94.65
1429.00,94.74
1428.00,94.80
1427.00,94.81
1426.00,94.81
1425.00,94.81
1424.00,94.83
1423.00,94.84
1422.00,94.84
1421.00,94.84
1420.00,94.85
1419.00,94.86
1418.00,94.88
1417.00,94.88
1416.00,94.85
1415.00,94.81
1414.00,94.77
1413.00,94.73
1412.00,94.71
1411.00,94.69
1410.00,94.68
1409.00,94.66
1408.00,94.62
1407.00,94.58
1406.00,94.53
1405.00,94.50
1404.00,94.47
1403.00,94.43
1402.00,94.39
1401.00,94.36
1400.00,94.33
1399.00,94.32
1398.00,94.32
1397.00,94.32
1396.00,94.32
1395.00,94.32
1394.00,94.32
1393.00,94.31
1392.00,94.29
1391.00,94.28
1390.00,94.28
1389.00,94.30
1388.00,94.33
1387.00,94.37
1386.00,94.40
1385.00,94.43
1384.00,94.46
1383.00,94.49
1382.00,94.54
1381.00,94.60
1380.00,94.65
1379.00,94.71
1378.00,94.78
1377.00,94.86
1376.00,94.94
1375.00,95.01
1374.00,95.07
1373.00,95.11
1372.00,95.13
1371.00,95.15
1370.00,95.17
1369.00,95.21
1368.00,95.25
1367.00,95.30
1366.00,95.34
1365.00,95.38
1364.00,95.43
1363.00,95.49
1362.00,95.55
1361.00,95.59
1360.00,95.63
1359.00,95.65
1358.00,95.67
1357.00,95.68
1356.00,95.69
1355.00,95.71
1354.00,95.73
1353.00,95.75
1352.00,95.76
1351.00,95.76
1350.00,95.76
1349.00,95.76
1348.00,95.77
1347.00,95.76
1346.00,95.76
1345.00,95.76
1344.00,95.76
1343.00,95.76
1342.00,95.76
1341.00,95.77
1340.00,95.77
1339.00,95.76
1338.00,95.76
1337.00,95.76
1336.00,95.77
1335.00,95.78
1334.00,95.79
1333.00,95.80
1332.00,95.81
1331.00,95.82
1330.00,95.83
1329.00,95.83
1328.00,95.83
1327.00,95.82
1326.00,95.80
1325.00,95.78
1324.00,95.77
1323.00,95.75
1322.00,95.74
1321.00,95.71
1320.00,95.68
1319.00,95.65
1318.00,95.63
1317.00,95.61
1316.00,95.60
1315.00,95.59
1314.00,95.57
1313.00,95.55
1312.00,95.54
1311.00,95.53
1310.00,95.52
1309.00,95.50
1308.00,95.48
1307.00,95.47
1306.00,95.47
1305.00,95.47
1304.00,95.47
1303.00,95.48
1302.00,95.48
1301.00,95.48
1300.00,95.48
1299.00,95.49
1298.00,95.50
1297.00,95.52
1296.00,95.52
1295.00,95.52
1294.00,95.52
1293.00,95.51
1292.00,95.51
1291.00,95.50
1290.00,95.50
1289.00,95.51
1288.00,95.51
1287.00,95.51
1286.00,95.51
1285.00,95.50
1284.00,95.50
1283.00,95.49
1282.00,95.49
1281.00,95.47
1280.00,95.46
1279.00,95.45
1278.00,95.45
1277.00,95.46
1276.00,95.46
1275.00,95.46
1274.00,95.45
1273.00,95.45
1272.00,95.43
1271.00,95.42
1270.00,95.40
1269.00,95.38
1268.00,95.38
1267.00,95.37
1266.00,95.37
1265.00,95.35
1264.00,95.32
1263.00,95.28
1262.00,95.24
1261.00,95.20
1260.00,95.16
1259.00,95.13
1258.00,95.11
1257.00,95.09
1256.00,95.06
1255.00,95.03
1254.00,94.99
1253.00,94.96
1252.00,94.94
1251.00,94.91
1250.00,94.87
1249.00,94.82
1248.00,94.77
1247.00,94.72
1246.00,94.68
1245.00,94.66
1244.00,94.64
1243.00,94.62
1242.00,94.59
1241.00,94.56
1240.00,94.55
1239.00,94.56
1238.00,94.58
1237.00,94.59
1236.00,94.58
1235.00,94.58
1234.00,94.58
1233.00,94.59
1232.00,94.60
1231.00,94.62
1230.00,94.63
1229.00,94.66
1228.00,94.70
1227.00,94.75
1226.00,94.80
1225.00,94.84
1224.00,94.88
1223.00,94.93
1222.00,94.97
1221.00,95.03
1220.00,95.09
1219.00,95.16
1218.00,95.23
1217.00,95.28
1216.00,95.32
1215.00,95.36
1214.00,95.41
1213.00,95.45
1212.00,95.49
1211.00,95.53
1210.00,95.57
1209.00,95.61
1208.00,95.64
1207.00,95.66
1206.00,95.68
1205.00,95.71
1204.00,95.74
1203.00,95.78
1202.00,95.82
1201.00,95.86
1200.00,95.89
1199.00,95.91
1198.00,95.94
1197.00,95.98
1196.00,96.01
1195.00,96.05
1194.00,96.08
1193.00,96.10
1192.00,96.12
1191.00,96.12
1190.00,96.13
1189.00,96.13
1188.00,96.14
1187.00,96.17
1186.00,96.21
1185.00,96.26
1184.00,96.29
1183.00,96.30
1182.00,96.29
1181.00,96.27
1180.00,96.24
1179.00,96.23
1178.00,96.21
1177.00,96.20
1176.00,96.18
1175.00,96.17
1174.00,96.16
1173.00,96.17
1172.00,96.20
1171.00,96.22
1170.00,96.25
1169.00,96.27
1168.00,96.30
1167.00,96.32
1166.00,96.36
1165.00,96.40
1164.00,96.43
1163.00,96.44
1162.00,96.43
1161.00,96.44
1160.00,96.47
1159.00,96.51
1158.00,96.56
1157.00,96.59
1156.00,96.61
1155.00,96.64
1154.00,96.66
1153.00,96.71
1152.00,96.76
1151.00,96.82
1150.00,96.87
1149.00,96.89
1148.00,96.91
1147.00,96.94
1146.00,96.96
1145.00,96.99
1144.00,97.02
1143.00,97.05
1142.00,97.09
1141.00,97.12
1140.00,97.14
1139.00,97.14
1138.00,97.15
1137.00,97.16
1136.00,97.17
1135.00,97.16
1134.00,97.13
1133.00,97.09
1132.00,97.03
1131.00,96.98
1130.00,96.92
1129.00,96.88
1128.00,96.86
1127.00,96.87
1126.00,96.89
1125.00,96.90
1124.00,96.90
1123.00,96.90
1122.00,96.91
1121.00,96.93
1120.00,96.96
1119.00,97.00
1118.00,97.03
1117.00,97.02
1116.00,96.97
1115.00,96.92
1114.00,96.89
1113.00,96.90
1112.00,96.93
1111.00,96.94
1110.00,96.95
1109.00,96.95
1108.00,96.96
1107.00,96.96
1106.00,96.97
1105.00,96.98
1104.00,96.99
1103.00,97.01
1102.00,97.00
1101.00,96.97
1100.00,96.92
1099.00,96.88
1098.00,96.86
1097.00,96.88
1096.00,96.92
1095.00,96.94
1094.00,96.96
1093.00,96.97
1092.00,96.99
1091.00,96.98
1090.00,96.94
1089.00,96.88
1088.00,96.82
1087.00,96.76
1086.00,96.71
1085.00,96.66
1084.00,96.61
1083.00,96.57
1082.00,96.55
1081.00,96.54
1080.00,96.53
1079.00,96.51
1078.00,96.49
1077.00,96.48
1076.00,96.47
1075.00,96.48
1074.00,96.52
1073.00,96.58
1072.00,96.63
1071.00,96.66
1070.00,96.68
1069.00,96.70
1068.00,96.71
1067.00,96.71
1066.00,96.69
1065.00,96.69
1064.00,96.72
1063.00,96.77
1062.00,96.82
1061.00,96.85
1060.00,96.87
1059.00,96.87
1058.00,96.87
1057.00,96.87
1056.00,96.88
1055.00,96.89
1054.00,96.89
1053.00,96.90
1052.00,96.93
1051.00,96.96
1050.00,96.98
1049.00,96.98
1048.00,96.98
1047.00,96.98
1046.00,96.98
1045.00,97.01
1044.00,97.06
1043.00,97.11
1042.00,97.16
1041.00,97.19
1040.00,97.24
1039.00,97.29
1038.00,97.33
1037.00,97.36
1036.00,97.39
1035.00,97.43
1034.00,97.48
1033.00,97.52
1032.00,97.56
1031.00,97.59
1030.00,97.63
1029.00,97.67
1028.00,97.71
1027.00,97.75
1026.00,97.78
1025.00,97.81
1024.00,97.84
1023.00,97.88
1022.00,97.93
1021.00,97.98
1020.00,98.03
1019.00,98.08
1018.00,98.13
1017.00,98.18
1016.00,98.21
1015.00,98.22
1014.00,98.21
1013.00,98.21
1012.00,98.22
1011.00,98.23
1010.00,98.26
1009.00,98.29
1008.00,98.35
1007.00,98.42
1006.00,98.49
1005.00,98.54
1004.00,98.58
1003.00,98.61
1002.00,98.65
1001.00,98.69
1000.00,98.73
999.00,98.75
998.00,98.75
997.00,98.75
996.00,98.77
995.00,98.80
994.00,98.83
993.00,98.86
992.00,98.88
991.00,98.89
990.00,98.91
989.00,98.94
988.00,98.98
987.00,99.01
986.00,99.03
985.00,99.05
984.00,99.06
983.00,99.05
982.00,99.02
981.00,98.99
980.00,98.96
979.00,98.96
978.00,98.97
977.00,99.00
976.00,99.03
975.00,99.05
974.00,99.07
973.00,99.10
972.00,99.12
971.00,99.13
970.00,99.13
969.00,99.16
968.00,99.19
967.00,99.20
966.00,99.19
965.00,99.17
964.00,99.16
963.00,99.16
962.00,99.16
961.00,99.17
960.00,99.17
959.00,99.18
958.00,99.19
957.00,99.23
956.00,99.26
955.00,99.27
954.00,99.24
953.00,99.20
952.00,99.20
951.00,99.22
950.00,99.26
949.00,99.28
948.00,99.28
947.00,99.27
946.00,99.27
945.00,99.28
944.00,99.29
943.00,99.28
942.00,99.27
941.00,99.26
940.00,99.28
939.00,99.29
938.00,99.28
937.00,99.23
936.00,99.18
935.00,99.15
934.00,99.15
933.00,99.17
932.00,99.18
931.00,99.17
930.00,99.14
929.00,99.11
928.00,99.10
927.00,99.10
926.00,99.10
925.00,99.08
924.00,99.08
923.00,99.10
922.00,99.15
921.00,99.18
920.00,99.20
919.00,99.20
918.00,99.21
917.00,99.25
916.00,99.31
915.00,99.36
914.00,99.38
913.00,99.38
912.00,99.38
911.00,99.39
910.00,99.40
909.00,99.41
908.00,99.39
907.00,99.37
906.00,99.38
905.00,99.41
904.00,99.45
903.00,99.46
902.00,99.45
901.00,99.43
900.00,99.43
899.00,99.43
898.00,99.43
897.00,99.41
896.00,99.37
895.00,99.34
894.00,99.34
893.00,99.35
892.00,99.36
891.00,99.36
890.00,99.35
889.00,99.36
888.00,99.38
887.00,99.39
886.00,99.38
885.00,99.36
884.00,99.33
883.00,99.31
882.00,99.30
881.00,99.29
880.00,99.28
879.00,99.28
878.00,99.30
877.00,99.34
876.00,99.38
875.00,99.38
874.00,99.35
873.00,99.33
872.00,99.33
871.00,99.32
870.00,99.28
869.00,99.23
868.00,99.20
867.00,99.21
866.00,99.23
865.00,99.25
864.00,99.23
863.00,99.19
862.00,99.16
861.00,99.15
860.00,99.17
859.00,99.18
858.00,99.17
857.00,99.13
856.00,99.10
855.00,99.08
854.00,99.08
853.00,99.07
852.00,99.06
851.00,99.03
850.00,99.00
849.00,98.96
848.00,98.93
847.00,98.89
846.00,98.82
845.00,98.75
844.00,98.70
843.00,98.68
842.00,98.66
841.00,98.64
840.00,98.62
839.00,98.62
838.00,98.63
837.00,98.64
836.00,98.64
835.00,98.61
834.00,98.56
833.00,98.49
832.00,98.45
831.00,98.42
830.00,98.38
829.00,98.34
828.00,98.32
827.00,98.35
826.00,98.43
825.00,98.48
824.00,98.46
823.00,98.41
822.00,98.34
821.00,98.30
820.00,98.27
819.00,98.25
818.00,98.23
817.00,98.22
816.00,98.22
815.00,98.22
814.00,98.21
813.00,98.17
812.00,98.12
811.00,98.09
810.00,98.08
809.00,98.07
808.00,98.04
807.00,97.99
806.00,97.95
805.00,97.92
804.00,97.92
803.00,97.93
802.00,97.95
801.00,97.94
800.00,97.90
799.00,97.85
798.00,97.83
797.00,97.82
796.00,97.77
795.00,97.70
794.00,97.64
793.00,97.60
792.00,97.58
791.00,97.55
790.00,97.53
789.00,97.52
788.00,97.51
787.00,97.50
786.00,97.49
785.00,97.49
784.00,97.47
783.00,97.44
782.00,97.41
781.00,97.38
780.00,97.32
779.00,97.24
778.00,97.15
777.00,97.09
776.00,97.04
775.00,97.01
774.00,96.98
773.00,96.97
772.00,96.94
771.00,96.90
770.00,96.88
769.00,96.88
768.00,96.90
767.00,96.89
766.00,96.85
765.00,96.82
764.00,96.80
763.00,96.77
762.00,96.72
761.00,96.67
760.00,96.62
759.00,96.56
758.00,96.52
757.00,96.52
756.00,96.52
755.00,96.48
754.00,96.39
753.00,96.31
752.00,96.28
751.00,96.28
750.00,96.25
749.00,96.19
748.00,96.14
747.00,96.13
746.00,96.15
745.00,96.18
744.00,96.19
743.00,96.18
742.00,96.12
741.00,96.04
740.00,95.98
739.00,95.94
738.00,95.88
737.00,95.82
736.00,95.77
735.00,95.76
734.00,95.77
733.00,95.77
732.00,95.76
731.00,95.77
730.00,95.80
729.00,95.82
728.00,95.80
727.00,95.73
726.00,95.64
725.00,95.58
724.00,95.57
723.00,95.56
722.00,95.50
721.00,95.38
720.00,95.27
719.00,95.24
718.00,95.26
717.00,95.25
716.00,95.20
715.00,95.13
714.00,95.08
713.00,95.05
712.00,95.03
711.00,95.00
710.00,94.96
709.00,94.90
708.00,94.82
707.00,94.74
706.00,94.65
705.00,94.55
704.00,94.45
703.00,94.41
702.00,94.42
701.00,94.41
700.00,94.35
699.00,94.24
698.00,94.17
697.00,94.17
696.00,94.22
695.00,94.27
694.00,94.27
693.00,94.24
692.00,94.22
691.00,94.23
690.00,94.29
689.00,94.31
688.00,94.24
687.00,94.09
686.00,93.94
685.00,93.86
684.00,93.84
683.00,93.83
682.00,93.81
681.00,93.80
680.00,93.81
679.00,93.84
678.00,93.86
677.00,93.83
676.00,93.75
675.00,93.67
674.00,93.64
673.00,93.61
672.00,93.53
671.00,93.39
670.00,93.26
669.00,93.24
668.00,93.34
667.00,93.34
666.00,93.22
665.00,93.14
664.00,93.11
663.00,93.09
662.00,93.05
661.00,93.01
660.00,92.96
659.00,92.92
658.00,92.89
657.00,92.92
656.00,92.99
655.00,93.04
654.00,93.02
653.00,92.97
652.00,92.94
651.00,92.93
650.00,92.88
649.00,92.78
648.00,92.65
647.00,92.56
646.00,92.57
645.00,92.68
644.00,92.85
643.00,92.96
642.00,92.93
641.00,92.79
640.00,92.59
639.00,92.38
638.00,92.16
637.00,92.00
636.00,91.96
635.00,92.03
634.00,92.09
633.00,92.08
632.00,92.03
631.00,91.98
630.00,91.94
629.00,91.98
628.00,92.19
627.00,92.52
626.00,92.77
625.00,92.74
624.00,92.47
623.00,92.16
622.00,91.91
621.00,91.74
620.00,91.70
619.00,91.84
618.00,92.10
617.00,92.28
616.00,92.23
615.00,91.98
614.00,91.66
613.00,91.42
612.00,91.44
611.00,91.68
610.00,91.93
609.00,92.02
608.00,92.04
607.00,92.12
606.00,92.19
605.00,92.05
604.00,91.70
603.00,91.44
602.00,91.48
601.00,91.78
600.00,92.14
599.00,92.42
598.00,92.55
597.00,92.49
596.00,92.35
595.00,92.20
594.00,92.03
593.00,91.76
592.00,91.46
591.00,91.37
590.00,91.48
589.00,91.49
588.00,91.13
587.00,90.61
586.00,90.37
585.00,90.68
584.00,91.42
583.00,92.14
582.00,92.35
581.00,91.87
580.00,91.11
579.00,90.77
578.00,91.12
577.00,91.63
576.00,91.75
575.00,91.50
574.00,91.31
573.00,91.26
572.00,91.22
571.00,91.25
570.00,91.43
569.00,91.59
568.00,91.41
567.00,90.95
566.00,90.54
565.00,90.29
564.00,90.06
563.00,89.83
562.00,89.68
561.00,89.51
560.00,89.21
559.00,89.00
558.00,89.21
557.00,89.75
556.00,90.17
555.00,90.24
554.00,90.16
553.00,90.14
552.00,90.06
551.00,89.85
550.00,89.70
