Created as New Dataset,11.4 Red Cormo sheep
cm-1,%T
4000.00,103.48
3999.00,103.48
3998.00,103.49
3997.00,103.49
3996.00,103.50
3995.00,103.50
3994.00,103.49
3993.00,103.48
3992.00,103.47
3991.00,103.47
3990.00,103.48
3989.00,103.49
3988.00,103.50
3987.00,103.50
3986.00,103.49
3985.00,103.47
3984.00,103.44
3983.00,103.42
3982.00,103.42
3981.00,103.43
3980.00,103.43
3979.00,103.44
3978.00,103.45
3977.00,103.47
3976.00,103.50
3975.00,103.53
3974.00,103.55
3973.00,103.56
3972.00,103.54
3971.00,103.52
3970.00,103.50
3969.00,103.49
3968.00,103.48
3967.00,103.48
3966.00,103.49
3965.00,103.50
3964.00,103.50
3963.00,103.50
3962.00,103.49
3961.00,103.49
3960.00,103.48
3959.00,103.48
3958.00,103.49
3957.00,103.49
3956.00,103.49
3955.00,103.49
3954.00,103.48
3953.00,103.49
3952.00,103.49
3951.00,103.51
3950.00,103.51
3949.00,103.52
3948.00,103.52
3947.00,103.51
3946.00,103.49
3945.00,103.47
3944.00,103.46
3943.00,103.48
3942.00,103.50
3941.00,103.51
3940.00,103.50
3939.00,103.49
3938.00,103.48
3937.00,103.49
3936.00,103.48
3935.00,103.47
3934.00,103.47
3933.00,103.48
3932.00,103.49
3931.00,103.50
3930.00,103.50
3929.00,103.51
3928.00,103.51
3927.00,103.50
3926.00,103.48
3925.00,103.47
3924.00,103.46
3923.00,103.45
3922.00,103.44
3921.00,103.45
3920.00,103.47
3919.00,103.48
3918.00,103.47
3917.00,103.45
3916.00,103.43
3915.00,103.42
3914.00,103.40
3913.00,103.40
3912.00,103.41
3911.00,103.44
3910.00,103.47
3909.00,103.49
3908.00,103.51
3907.00,103.52
3906.00,103.52
3905.00,103.52
3904.00,103.52
3903.00,103.48
3902.00,103.41
3901.00,103.33
3900.00,103.30
3899.00,103.33
3898.00,103.37
3897.00,103.40
3896.00,103.41
3895.00,103.40
3894.00,103.38
3893.00,103.34
3892.00,103.34
3891.00,103.39
3890.00,103.46
3889.00,103.47
3888.00,103.44
3887.00,103.42
3886.00,103.46
3885.00,103.51
3884.00,103.50
3883.00,103.42
3882.00,103.36
3881.00,103.37
3880.00,103.43
3879.00,103.48
3878.00,103.47
3877.00,103.42
3876.00,103.40
3875.00,103.44
3874.00,103.51
3873.00,103.52
3872.00,103.46
3871.00,103.41
3870.00,103.45
3869.00,103.51
3868.00,103.50
3867.00,103.43
3866.00,103.38
3865.00,103.40
3864.00,103.42
3863.00,103.42
3862.00,103.40
3861.00,103.40
3860.00,103.43
3859.00,103.48
3858.00,103.52
3857.00,103.54
3856.00,103.52
3855.00,103.49
3854.00,103.49
3853.00,103.50
3852.00,103.49
3851.00,103.44
3850.00,103.39
3849.00,103.38
3848.00,103.40
3847.00,103.42
3846.00,103.44
3845.00,103.45
3844.00,103.47
3843.00,103.49
3842.00,103.51
3841.00,103.49
3840.00,103.47
3839.00,103.44
3838.00,103.42
3837.00,103.40
3836.00,103.38
3835.00,103.35
3834.00,103.32
3833.00,103.32
3832.00,103.34
3831.00,103.39
3830.00,103.41
3829.00,103.40
3828.00,103.37
3827.00,103.38
3826.00,103.42
3825.00,103.44
3824.00,103.40
3823.00,103.34
3822.00,103.33
3821.00,103.39
3820.00,103.44
3819.00,103.41
3818.00,103.32
3817.00,103.30
3816.00,103.37
3815.00,103.45
3814.00,103.46
3813.00,103.42
3812.00,103.42
3811.00,103.45
3810.00,103.47
3809.00,103.44
3808.00,103.42
3807.00,103.47
3806.00,103.53
3805.00,103.52
3804.00,103.43
3803.00,103.33
3802.00,103.33
3801.00,103.40
3800.00,103.42
3799.00,103.35
3798.00,103.28
3797.00,103.27
3796.00,103.32
3795.00,103.36
3794.00,103.37
3793.00,103.37
3792.00,103.38
3791.00,103.40
3790.00,103.41
3789.00,103.42
3788.00,103.42
3787.00,103.40
3786.00,103.38
3785.00,103.38
3784.00,103.39
3783.00,103.40
3782.00,103.39
3781.00,103.39
3780.00,103.41
3779.00,103.42
3778.00,103.42
3777.00,103.38
3776.00,103.35
3775.00,103.35
3774.00,103.39
3773.00,103.41
3772.00,103.41
3771.00,103.41
3770.00,103.41
3769.00,103.40
3768.00,103.36
3767.00,103.31
3766.00,103.31
3765.00,103.35
3764.00,103.39
3763.00,103.38
3762.00,103.34
3761.00,103.33
3760.00,103.33
3759.00,103.33
3758.00,103.32
3757.00,103.34
3756.00,103.38
3755.00,103.42
3754.00,103.48
3753.00,103.53
3752.00,103.55
3751.00,103.51
3750.00,103.46
3749.00,103.45
3748.00,103.44
3747.00,103.38
3746.00,103.34
3745.00,103.40
3744.00,103.52
3743.00,103.55
3742.00,103.47
3741.00,103.39
3740.00,103.39
3739.00,103.45
3738.00,103.51
3737.00,103.55
3736.00,103.55
3735.00,103.49
3734.00,103.36
3733.00,103.26
3732.00,103.26
3731.00,103.31
3730.00,103.36
3729.00,103.38
3728.00,103.39
3727.00,103.42
3726.00,103.44
3725.00,103.40
3724.00,103.34
3723.00,103.29
3722.00,103.28
3721.00,103.28
3720.00,103.25
3719.00,103.22
3718.00,103.21
3717.00,103.24
3716.00,103.29
3715.00,103.33
3714.00,103.34
3713.00,103.34
3712.00,103.30
3711.00,103.24
3710.00,103.18
3709.00,103.18
3708.00,103.21
3707.00,103.27
3706.00,103.32
3705.00,103.34
3704.00,103.32
3703.00,103.30
3702.00,103.28
3701.00,103.27
3700.00,103.26
3699.00,103.26
3698.00,103.26
3697.00,103.28
3696.00,103.30
3695.00,103.30
3694.00,103.28
3693.00,103.27
3692.00,103.28
3691.00,103.26
3690.00,103.20
3689.00,103.14
3688.00,103.12
3687.00,103.12
3686.00,103.12
3685.00,103.11
3684.00,103.13
3683.00,103.16
3682.00,103.15
3681.00,103.15
3680.00,103.16
3679.00,103.17
3678.00,103.12
3677.00,103.04
3676.00,103.00
3675.00,103.03
3674.00,103.05
3673.00,103.02
3672.00,102.96
3671.00,102.96
3670.00,103.00
3669.00,103.02
3668.00,103.00
3667.00,102.97
3666.00,102.97
3665.00,102.99
3664.00,103.00
3663.00,103.01
3662.00,103.01
3661.00,103.01
3660.00,103.00
3659.00,102.96
3658.00,102.92
3657.00,102.91
3656.00,102.93
3655.00,102.95
3654.00,102.91
3653.00,102.84
3652.00,102.81
3651.00,102.82
3650.00,102.83
3649.00,102.77
3648.00,102.69
3647.00,102.64
3646.00,102.63
3645.00,102.63
3644.00,102.63
3643.00,102.65
3642.00,102.66
3641.00,102.65
3640.00,102.61
3639.00,102.57
3638.00,102.55
3637.00,102.56
3636.00,102.56
3635.00,102.58
3634.00,102.60
3633.00,102.60
3632.00,102.55
3631.00,102.45
3630.00,102.38
3629.00,102.37
3628.00,102.36
3627.00,102.33
3626.00,102.28
3625.00,102.24
3624.00,102.24
3623.00,102.25
3622.00,102.24
3621.00,102.22
3620.00,102.19
3619.00,102.17
3618.00,102.14
3617.00,102.12
3616.00,102.09
3615.00,102.06
3614.00,102.04
3613.00,102.03
3612.00,102.00
3611.00,101.95
3610.00,101.90
3609.00,101.86
3608.00,101.84
3607.00,101.82
3606.00,101.80
3605.00,101.78
3604.00,101.77
3603.00,101.75
3602.00,101.73
3601.00,101.69
3600.00,101.66
3599.00,101.62
3598.00,101.59
3597.00,101.57
3596.00,101.57
3595.00,101.58
3594.00,101.59
3593.00,101.60
3592.00,101.60
3591.00,101.56
3590.00,101.49
3589.00,101.41
3588.00,101.37
3587.00,101.35
3586.00,101.33
3585.00,101.31
3584.00,101.27
3583.00,101.24
3582.00,101.22
3581.00,101.20
3580.00,101.19
3579.00,101.19
3578.00,101.17
3577.00,101.14
3576.00,101.11
3575.00,101.09
3574.00,101.08
3573.00,101.08
3572.00,101.06
3571.00,101.02
3570.00,100.96
3569.00,100.90
3568.00,100.85
3567.00,100.80
3566.00,100.76
3565.00,100.72
3564.00,100.68
3563.00,100.65
3562.00,100.63
3561.00,100.61
3560.00,100.57
3559.00,100.53
3558.00,100.51
3557.00,100.50
3556.00,100.50
3555.00,100.50
3554.00,100.47
3553.00,100.40
3552.00,100.34
3551.00,100.28
3550.00,100.25
3549.00,100.23
3548.00,100.23
3547.00,100.23
3546.00,100.22
3545.00,100.19
3544.00,100.15
3543.00,100.12
3542.00,100.09
3541.00,100.07
3540.00,100.04
3539.00,100.00
3538.00,99.95
3537.00,99.92
3536.00,99.89
3535.00,99.88
3534.00,99.87
3533.00,99.84
3532.00,99.81
3531.00,99.76
3530.00,99.72
3529.00,99.69
3528.00,99.68
3527.00,99.68
3526.00,99.67
3525.00,99.65
3524.00,99.61
3523.00,99.57
3522.00,99.52
3521.00,99.47
3520.00,99.44
3519.00,99.42
3518.00,99.42
3517.00,99.42
3516.00,99.40
3515.00,99.37
3514.00,99.34
3513.00,99.31
3512.00,99.29
3511.00,99.26
3510.00,99.23
3509.00,99.20
3508.00,99.16
3507.00,99.14
3506.00,99.12
3505.00,99.12
3504.00,99.14
3503.00,99.15
3502.00,99.15
3501.00,99.13
3500.00,99.10
3499.00,99.07
3498.00,99.05
3497.00,99.02
3496.00,98.98
3495.00,98.94
3494.00,98.89
3493.00,98.87
3492.00,98.85
3491.00,98.84
3490.00,98.83
3489.00,98.81
3488.00,98.80
3487.00,98.79
3486.00,98.77
3485.00,98.74
3484.00,98.70
3483.00,98.66
3482.00,98.63
3481.00,98.62
3480.00,98.62
3479.00,98.62
3478.00,98.60
3477.00,98.58
3476.00,98.55
3475.00,98.53
3474.00,98.51
3473.00,98.49
3472.00,98.48
3471.00,98.47
3470.00,98.45
3469.00,98.42
3468.00,98.38
3467.00,98.35
3466.00,98.32
3465.00,98.30
3464.00,98.28
3463.00,98.25
3462.00,98.23
3461.00,98.21
3460.00,98.20
3459.00,98.20
3458.00,98.18
3457.00,98.15
3456.00,98.12
3455.00,98.10
3454.00,98.10
3453.00,98.11
3452.00,98.11
3451.00,98.12
3450.00,98.11
3449.00,98.08
3448.00,98.03
3447.00,97.97
3446.00,97.92
3445.00,97.89
3444.00,97.88
3443.00,97.87
3442.00,97.87
3441.00,97.86
3440.00,97.84
3439.00,97.80
3438.00,97.75
3437.00,97.72
3436.00,97.71
3435.00,97.71
3434.00,97.72
3433.00,97.72
3432.00,97.71
3431.00,97.68
3430.00,97.65
3429.00,97.61
3428.00,97.57
3427.00,97.55
3426.00,97.53
3425.00,97.52
3424.00,97.50
3423.00,97.48
3422.00,97.45
3421.00,97.42
3420.00,97.40
3419.00,97.40
3418.00,97.40
3417.00,97.40
3416.00,97.39
3415.00,97.36
3414.00,97.32
3413.00,97.27
3412.00,97.23
3411.00,97.20
3410.00,97.21
3409.00,97.23
3408.00,97.24
3407.00,97.23
3406.00,97.18
3405.00,97.12
3404.00,97.08
3403.00,97.05
3402.00,97.05
3401.00,97.06
3400.00,97.06
3399.00,97.03
3398.00,96.99
3397.00,96.96
3396.00,96.94
3395.00,96.94
3394.00,96.94
3393.00,96.93
3392.00,96.91
3391.00,96.87
3390.00,96.83
3389.00,96.78
3388.00,96.75
3387.00,96.74
3386.00,96.74
3385.00,96.73
3384.00,96.71
3383.00,96.68
3382.00,96.65
3381.00,96.63
3380.00,96.61
3379.00,96.60
3378.00,96.60
3377.00,96.60
3376.00,96.59
3375.00,96.56
3374.00,96.53
3373.00,96.50
3372.00,96.49
3371.00,96.49
3370.00,96.49
3369.00,96.47
3368.00,96.44
3367.00,96.39
3366.00,96.37
3365.00,96.35
3364.00,96.33
3363.00,96.30
3362.00,96.27
3361.00,96.23
3360.00,96.20
3359.00,96.17
3358.00,96.14
3357.00,96.09
3356.00,96.05
3355.00,96.03
3354.00,96.04
3353.00,96.07
3352.00,96.07
3351.00,96.05
3350.00,96.01
3349.00,95.96
3348.00,95.93
3347.00,95.89
3346.00,95.86
3345.00,95.82
3344.00,95.79
3343.00,95.78
3342.00,95.77
3341.00,95.75
3340.00,95.73
3339.00,95.69
3338.00,95.66
3337.00,95.63
3336.00,95.61
3335.00,95.59
3334.00,95.57
3333.00,95.55
3332.00,95.53
3331.00,95.51
3330.00,95.48
3329.00,95.46
3328.00,95.44
3327.00,95.42
3326.00,95.40
3325.00,95.37
3324.00,95.34
3323.00,95.30
3322.00,95.25
3321.00,95.21
3320.00,95.17
3319.00,95.13
3318.00,95.11
3317.00,95.10
3316.00,95.11
3315.00,95.10
3314.00,95.08
3313.00,95.04
3312.00,94.98
3311.00,94.93
3310.00,94.89
3309.00,94.86
3308.00,94.84
3307.00,94.81
3306.00,94.77
3305.00,94.73
3304.00,94.70
3303.00,94.67
3302.00,94.66
3301.00,94.65
3300.00,94.64
3299.00,94.61
3298.00,94.58
3297.00,94.55
3296.00,94.54
3295.00,94.54
3294.00,94.54
3293.00,94.52
3292.00,94.48
3291.00,94.43
3290.00,94.39
3289.00,94.36
3288.00,94.35
3287.00,94.34
3286.00,94.32
3285.00,94.30
3284.00,94.27
3283.00,94.25
3282.00,94.25
3281.00,94.25
3280.00,94.26
3279.00,94.27
3278.00,94.29
3277.00,94.30
3276.00,94.31
3275.00,94.31
3274.00,94.33
3273.00,94.34
3272.00,94.35
3271.00,94.37
3270.00,94.39
3269.00,94.41
3268.00,94.42
3267.00,94.43
3266.00,94.44
3265.00,94.44
3264.00,94.46
3263.00,94.48
3262.00,94.51
3261.00,94.53
3260.00,94.56
3259.00,94.57
3258.00,94.59
3257.00,94.61
3256.00,94.63
3255.00,94.66
3254.00,94.71
3253.00,94.76
3252.00,94.79
3251.00,94.82
3250.00,94.85
3249.00,94.89
3248.00,94.92
3247.00,94.95
3246.00,94.97
3245.00,95.00
3244.00,95.03
3243.00,95.06
3242.00,95.09
3241.00,95.11
3240.00,95.11
3239.00,95.12
3238.00,95.13
3237.00,95.16
3236.00,95.21
3235.00,95.25
3234.00,95.28
3233.00,95.30
3232.00,95.32
3231.00,95.36
3230.00,95.40
3229.00,95.43
3228.00,95.46
3227.00,95.47
3226.00,95.48
3225.00,95.48
3224.00,95.49
3223.00,95.51
3222.00,95.52
3221.00,95.54
3220.00,95.55
3219.00,95.55
3218.00,95.56
3217.00,95.58
3216.00,95.60
3215.00,95.63
3214.00,95.65
3213.00,95.67
3212.00,95.70
3211.00,95.74
3210.00,95.78
3209.00,95.82
3208.00,95.86
3207.00,95.87
3206.00,95.88
3205.00,95.88
3204.00,95.88
3203.00,95.88
3202.00,95.89
3201.00,95.91
3200.00,95.94
3199.00,95.98
3198.00,96.02
3197.00,96.04
3196.00,96.05
3195.00,96.06
3194.00,96.07
3193.00,96.09
3192.00,96.12
3191.00,96.15
3190.00,96.18
3189.00,96.21
3188.00,96.24
3187.00,96.27
3186.00,96.30
3185.00,96.33
3184.00,96.37
3183.00,96.40
3182.00,96.43
3181.00,96.46
3180.00,96.48
3179.00,96.52
3178.00,96.56
3177.00,96.60
3176.00,96.64
3175.00,96.67
3174.00,96.71
3173.00,96.75
3172.00,96.78
3171.00,96.82
3170.00,96.86
3169.00,96.89
3168.00,96.90
3167.00,96.91
3166.00,96.92
3165.00,96.96
3164.00,97.00
3163.00,97.05
3162.00,97.09
3161.00,97.12
3160.00,97.14
3159.00,97.18
3158.00,97.23
3157.00,97.28
3156.00,97.34
3155.00,97.39
3154.00,97.42
3153.00,97.44
3152.00,97.45
3151.00,97.46
3150.00,97.48
3149.00,97.51
3148.00,97.54
3147.00,97.58
3146.00,97.61
3145.00,97.64
3144.00,97.68
3143.00,97.72
3142.00,97.76
3141.00,97.78
3140.00,97.79
3139.00,97.80
3138.00,97.80
3137.00,97.81
3136.00,97.82
3135.00,97.84
3134.00,97.86
3133.00,97.88
3132.00,97.90
3131.00,97.92
3130.00,97.94
3129.00,97.97
3128.00,98.00
3127.00,98.02
3126.00,98.04
3125.00,98.05
3124.00,98.06
3123.00,98.08
3122.00,98.09
3121.00,98.10
3120.00,98.11
3119.00,98.12
3118.00,98.14
3117.00,98.15
3116.00,98.15
3115.00,98.15
3114.00,98.15
3113.00,98.15
3112.00,98.16
3111.00,98.18
3110.00,98.19
3109.00,98.20
3108.00,98.20
3107.00,98.20
3106.00,98.20
3105.00,98.20
3104.00,98.20
3103.00,98.21
3102.00,98.21
3101.00,98.21
3100.00,98.20
3099.00,98.19
3098.00,98.17
3097.00,98.16
3096.00,98.14
3095.00,98.12
3094.00,98.12
3093.00,98.12
3092.00,98.14
3091.00,98.15
3090.00,98.15
3089.00,98.14
3088.00,98.12
3087.00,98.11
3086.00,98.12
3085.00,98.14
3084.00,98.15
3083.00,98.15
3082.00,98.12
3081.00,98.09
3080.00,98.06
3079.00,98.03
3078.00,98.01
3077.00,98.00
3076.00,98.00
3075.00,97.99
3074.00,97.98
3073.00,97.97
3072.00,97.96
3071.00,97.97
3070.00,97.97
3069.00,97.98
3068.00,98.00
3067.00,98.02
3066.00,98.05
3065.00,98.07
3064.00,98.07
3063.00,98.06
3062.00,98.03
3061.00,98.01
3060.00,98.01
3059.00,98.02
3058.00,98.04
3057.00,98.05
3056.00,98.06
3055.00,98.08
3054.00,98.11
3053.00,98.15
3052.00,98.20
3051.00,98.23
3050.00,98.25
3049.00,98.26
3048.00,98.26
3047.00,98.25
3046.00,98.26
3045.00,98.27
3044.00,98.29
3043.00,98.31
3042.00,98.34
3041.00,98.38
3040.00,98.41
3039.00,98.44
3038.00,98.46
3037.00,98.47
3036.00,98.49
3035.00,98.52
3034.00,98.54
3033.00,98.55
3032.00,98.56
3031.00,98.56
3030.00,98.57
3029.00,98.59
3028.00,98.61
3027.00,98.63
3026.00,98.65
3025.00,98.67
3024.00,98.68
3023.00,98.70
3022.00,98.71
3021.00,98.73
3020.00,98.74
3019.00,98.75
3018.00,98.76
3017.00,98.76
3016.00,98.75
3015.00,98.74
3014.00,98.72
3013.00,98.69
3012.00,98.67
3011.00,98.66
3010.00,98.67
3009.00,98.69
3008.00,98.71
3007.00,98.71
3006.00,98.69
3005.00,98.66
3004.00,98.64
3003.00,98.61
3002.00,98.59
3001.00,98.56
3000.00,98.52
2999.00,98.48
2998.00,98.43
2997.00,98.38
2996.00,98.33
2995.00,98.26
2994.00,98.20
2993.00,98.12
2992.00,98.05
2991.00,97.98
2990.00,97.90
2989.00,97.80
2988.00,97.70
2987.00,97.59
2986.00,97.48
2985.00,97.36
2984.00,97.25
2983.00,97.13
2982.00,97.01
2981.00,96.88
2980.00,96.74
2979.00,96.59
2978.00,96.44
2977.00,96.29
2976.00,96.14
2975.00,96.00
2974.00,95.86
2973.00,95.72
2972.00,95.55
2971.00,95.36
2970.00,95.16
2969.00,94.97
2968.00,94.80
2967.00,94.65
2966.00,94.49
2965.00,94.34
2964.00,94.19
2963.00,94.06
2962.00,93.92
2961.00,93.79
2960.00,93.68
2959.00,93.58
2958.00,93.49
2957.00,93.41
2956.00,93.36
2955.00,93.33
2954.00,93.31
2953.00,93.30
2952.00,93.29
2951.00,93.28
2950.00,93.27
2949.00,93.25
2948.00,93.23
2947.00,93.20
2946.00,93.14
2945.00,93.04
2944.00,92.92
2943.00,92.77
2942.00,92.59
2941.00,92.38
2940.00,92.15
2939.00,91.90
2938.00,91.62
2937.00,91.34
2936.00,91.04
2935.00,90.74
2934.00,90.42
2933.00,90.09
2932.00,89.76
2931.00,89.44
2930.00,89.11
2929.00,88.79
2928.00,88.46
2927.00,88.13
2926.00,87.83
2925.00,87.55
2924.00,87.29
2923.00,87.06
2922.00,86.86
2921.00,86.71
2920.00,86.61
2919.00,86.59
2918.00,86.66
2917.00,86.85
2916.00,87.19
2915.00,87.68
2914.00,88.29
2913.00,88.94
2912.00,89.59
2911.00,90.18
2910.00,90.69
2909.00,91.13
2908.00,91.50
2907.00,91.83
2906.00,92.13
2905.00,92.38
2904.00,92.60
2903.00,92.77
2902.00,92.92
2901.00,93.07
2900.00,93.23
2899.00,93.40
2898.00,93.57
2897.00,93.73
2896.00,93.88
2895.00,94.02
2894.00,94.16
2893.00,94.29
2892.00,94.43
2891.00,94.56
2890.00,94.69
2889.00,94.81
2888.00,94.91
2887.00,95.01
2886.00,95.10
2885.00,95.18
2884.00,95.24
2883.00,95.29
2882.00,95.33
2881.00,95.35
2880.00,95.36
2879.00,95.35
2878.00,95.33
2877.00,95.30
2876.00,95.27
2875.00,95.22
2874.00,95.18
2873.00,95.13
2872.00,95.09
2871.00,95.07
2870.00,95.07
2869.00,95.09
2868.00,95.11
2867.00,95.12
2866.00,95.10
2865.00,95.06
2864.00,94.98
2863.00,94.87
2862.00,94.71
2861.00,94.49
2860.00,94.23
2859.00,93.92
2858.00,93.59
2857.00,93.22
2856.00,92.83
2855.00,92.42
2854.00,92.00
2853.00,91.60
2852.00,91.26
2851.00,91.05
2850.00,91.05
2849.00,91.31
2848.00,91.83
2847.00,92.54
2846.00,93.35
2845.00,94.15
2844.00,94.89
2843.00,95.53
2842.00,96.07
2841.00,96.52
2840.00,96.89
2839.00,97.21
2838.00,97.49
2837.00,97.73
2836.00,97.95
2835.00,98.13
2834.00,98.28
2833.00,98.40
2832.00,98.49
2831.00,98.58
2830.00,98.67
2829.00,98.76
2828.00,98.84
2827.00,98.91
2826.00,98.97
2825.00,99.02
2824.00,99.07
2823.00,99.12
2822.00,99.17
2821.00,99.23
2820.00,99.29
2819.00,99.35
2818.00,99.39
2817.00,99.42
2816.00,99.46
2815.00,99.50
2814.00,99.53
2813.00,99.56
2812.00,99.59
2811.00,99.62
2810.00,99.66
2809.00,99.69
2808.00,99.70
2807.00,99.71
2806.00,99.73
2805.00,99.75
2804.00,99.76
2803.00,99.79
2802.00,99.82
2801.00,99.85
2800.00,99.88
2799.00,99.90
2798.00,99.91
2797.00,99.92
2796.00,99.93
2795.00,99.96
2794.00,99.99
2793.00,100.02
2792.00,100.05
2791.00,100.07
2790.00,100.09
2789.00,100.11
2788.00,100.13
2787.00,100.14
2786.00,100.15
2785.00,100.15
2784.00,100.15
2783.00,100.16
2782.00,100.18
2781.00,100.20
2780.00,100.22
2779.00,100.24
2778.00,100.26
2777.00,100.28
2776.00,100.31
2775.00,100.33
2774.00,100.35
2773.00,100.36
2772.00,100.36
2771.00,100.36
2770.00,100.35
2769.00,100.35
2768.00,100.35
2767.00,100.37
2766.00,100.40
2765.00,100.42
2764.00,100.44
2763.00,100.45
2762.00,100.46
2761.00,100.46
2760.00,100.46
2759.00,100.46
2758.00,100.46
2757.00,100.46
2756.00,100.47
2755.00,100.48
2754.00,100.50
2753.00,100.52
2752.00,100.54
2751.00,100.54
2750.00,100.54
2749.00,100.54
2748.00,100.54
2747.00,100.55
2746.00,100.55
2745.00,100.55
2744.00,100.56
2743.00,100.57
2742.00,100.59
2741.00,100.59
2740.00,100.58
2739.00,100.58
2738.00,100.57
2737.00,100.58
2736.00,100.60
2735.00,100.62
2734.00,100.64
2733.00,100.65
2732.00,100.66
2731.00,100.67
2730.00,100.67
2729.00,100.67
2728.00,100.69
2727.00,100.70
2726.00,100.72
2725.00,100.73
2724.00,100.72
2723.00,100.71
2722.00,100.69
2721.00,100.69
2720.00,100.69
2719.00,100.70
2718.00,100.72
2717.00,100.74
2716.00,100.74
2715.00,100.75
2714.00,100.75
2713.00,100.76
2712.00,100.77
2711.00,100.78
2710.00,100.79
2709.00,100.79
2708.00,100.80
2707.00,100.80
2706.00,100.81
2705.00,100.82
2704.00,100.83
2703.00,100.84
2702.00,100.86
2701.00,100.86
2700.00,100.86
2699.00,100.86
2698.00,100.86
2697.00,100.87
2696.00,100.89
2695.00,100.90
2694.00,100.90
2693.00,100.90
2692.00,100.89
2691.00,100.88
2690.00,100.88
2689.00,100.88
2688.00,100.89
2687.00,100.90
2686.00,100.91
2685.00,100.92
2684.00,100.92
2683.00,100.92
2682.00,100.92
2681.00,100.91
2680.00,100.91
2679.00,100.91
2678.00,100.91
2677.00,100.91
2676.00,100.91
2675.00,100.91
2674.00,100.92
2673.00,100.94
2672.00,100.96
2671.00,100.96
2670.00,100.96
2669.00,100.97
2668.00,100.97
2667.00,100.97
2666.00,100.97
2665.00,100.96
2664.00,100.97
2663.00,100.97
2662.00,100.97
2661.00,100.97
2660.00,100.98
2659.00,100.99
2658.00,101.00
2657.00,101.00
2656.00,100.99
2655.00,100.98
2654.00,100.96
2653.00,100.94
2652.00,100.93
2651.00,100.93
2650.00,100.95
2649.00,100.97
2648.00,101.00
2647.00,101.02
2646.00,101.02
2645.00,101.01
2644.00,100.99
2643.00,100.98
2642.00,100.97
2641.00,100.97
2640.00,100.97
2639.00,100.98
2638.00,100.99
2637.00,101.00
2636.00,101.00
2635.00,100.99
2634.00,100.99
2633.00,101.00
2632.00,101.01
2631.00,101.02
2630.00,101.02
2629.00,101.01
2628.00,101.00
2627.00,101.00
2626.00,101.02
2625.00,101.03
2624.00,101.03
2623.00,101.02
2622.00,101.02
2621.00,101.03
2620.00,101.04
2619.00,101.05
2618.00,101.06
2617.00,101.05
2616.00,101.05
2615.00,101.04
2614.00,101.04
2613.00,101.04
2612.00,101.06
2611.00,101.08
2610.00,101.09
2609.00,101.09
2608.00,101.08
2607.00,101.07
2606.00,101.08
2605.00,101.08
2604.00,101.09
2603.00,101.10
2602.00,101.12
2601.00,101.13
2600.00,101.13
2599.00,101.14
2598.00,101.15
2597.00,101.15
2596.00,101.15
2595.00,101.13
2594.00,101.13
2593.00,101.12
2592.00,101.12
2591.00,101.11
2590.00,101.12
2589.00,101.13
2588.00,101.15
2587.00,101.16
2586.00,101.16
2585.00,101.16
2584.00,101.15
2583.00,101.15
2582.00,101.15
2581.00,101.16
2580.00,101.18
2579.00,101.21
2578.00,101.23
2577.00,101.24
2576.00,101.25
2575.00,101.26
2574.00,101.27
2573.00,101.27
2572.00,101.28
2571.00,101.29
2570.00,101.29
2569.00,101.27
2568.00,101.26
2567.00,101.26
2566.00,101.26
2565.00,101.27
2564.00,101.27
2563.00,101.26
2562.00,101.25
2561.00,101.23
2560.00,101.21
2559.00,101.19
2558.00,101.20
2557.00,101.22
2556.00,101.25
2555.00,101.28
2554.00,101.29
2553.00,101.28
2552.00,101.26
2551.00,101.25
2550.00,101.25
2549.00,101.26
2548.00,101.27
2547.00,101.27
2546.00,101.28
2545.00,101.28
2544.00,101.28
2543.00,101.26
2542.00,101.24
2541.00,101.23
2540.00,101.25
2539.00,101.27
2538.00,101.28
2537.00,101.27
2536.00,101.24
2535.00,101.23
2534.00,101.25
2533.00,101.28
2532.00,101.30
2531.00,101.30
2530.00,101.28
2529.00,101.26
2528.00,101.25
2527.00,101.26
2526.00,101.26
2525.00,101.26
2524.00,101.26
2523.00,101.26
2522.00,101.28
2521.00,101.29
2520.00,101.31
2519.00,101.31
2518.00,101.31
2517.00,101.30
2516.00,101.29
2515.00,101.29
2514.00,101.31
2513.00,101.33
2512.00,101.34
2511.00,101.34
2510.00,101.35
2509.00,101.36
2508.00,101.36
2507.00,101.35
2506.00,101.33
2505.00,101.32
2504.00,101.33
2503.00,101.35
2502.00,101.36
2501.00,101.36
2500.00,101.36
2499.00,101.36
2498.00,101.36
2497.00,101.37
2496.00,101.37
2495.00,101.38
2494.00,101.38
2493.00,101.37
2492.00,101.36
2491.00,101.35
2490.00,101.35
2489.00,101.35
2488.00,101.35
2487.00,101.35
2486.00,101.36
2485.00,101.35
2484.00,101.34
2483.00,101.34
2482.00,101.35
2481.00,101.38
2480.00,101.41
2479.00,101.41
2478.00,101.39
2477.00,101.36
2476.00,101.36
2475.00,101.39
2474.00,101.42
2473.00,101.45
2472.00,101.44
2471.00,101.42
2470.00,101.39
2469.00,101.37
2468.00,101.36
2467.00,101.35
2466.00,101.36
2465.00,101.37
2464.00,101.40
2463.00,101.44
2462.00,101.47
2461.00,101.48
2460.00,101.46
2459.00,101.45
2458.00,101.43
2457.00,101.42
2456.00,101.41
2455.00,101.40
2454.00,101.40
2453.00,101.41
2452.00,101.42
2451.00,101.44
2450.00,101.46
2449.00,101.47
2448.00,101.49
2447.00,101.50
2446.00,101.51
2445.00,101.51
2444.00,101.50
2443.00,101.48
2442.00,101.46
2441.00,101.45
2440.00,101.46
2439.00,101.46
2438.00,101.47
2437.00,101.47
2436.00,101.48
2435.00,101.48
2434.00,101.48
2433.00,101.48
2432.00,101.48
2431.00,101.48
2430.00,101.48
2429.00,101.47
2428.00,101.45
2427.00,101.46
2426.00,101.47
2425.00,101.49
2424.00,101.50
2423.00,101.50
2422.00,101.50
2421.00,101.50
2420.00,101.50
2419.00,101.51
2418.00,101.52
2417.00,101.52
2416.00,101.53
2415.00,101.53
2414.00,101.53
2413.00,101.53
2412.00,101.55
2411.00,101.57
2410.00,101.58
2409.00,101.58
2408.00,101.55
2407.00,101.53
2406.00,101.52
2405.00,101.52
2404.00,101.51
2403.00,101.51
2402.00,101.52
2401.00,101.52
2400.00,101.53
2399.00,101.55
2398.00,101.57
2397.00,101.58
2396.00,101.57
2395.00,101.56
2394.00,101.56
2393.00,101.55
2392.00,101.54
2391.00,101.52
2390.00,101.52
2389.00,101.52
2388.00,101.53
2387.00,101.52
2386.00,101.50
2385.00,101.50
2384.00,101.51
2383.00,101.55
2382.00,101.58
2381.00,101.60
2380.00,101.60
2379.00,101.58
2378.00,101.56
2377.00,101.52
2376.00,101.48
2375.00,101.47
2374.00,101.47
2373.00,101.48
2372.00,101.49
2371.00,101.50
2370.00,101.50
2369.00,101.46
2368.00,101.41
2367.00,101.39
2366.00,101.43
2365.00,101.49
2364.00,101.54
2363.00,101.56
2362.00,101.54
2361.00,101.45
2360.00,101.29
2359.00,101.14
2358.00,101.08
2357.00,101.12
2356.00,101.20
2355.00,101.29
2354.00,101.34
2353.00,101.36
2352.00,101.36
2351.00,101.35
2350.00,101.37
2349.00,101.43
2348.00,101.50
2347.00,101.56
2346.00,101.56
2345.00,101.48
2344.00,101.39
2343.00,101.33
2342.00,101.31
2341.00,101.30
2340.00,101.31
2339.00,101.31
2338.00,101.30
2337.00,101.26
2336.00,101.19
2335.00,101.16
2334.00,101.17
2333.00,101.22
2332.00,101.27
2331.00,101.28
2330.00,101.26
2329.00,101.23
2328.00,101.23
2327.00,101.26
2326.00,101.30
2325.00,101.31
2324.00,101.28
2323.00,101.23
2322.00,101.19
2321.00,101.18
2320.00,101.19
2319.00,101.23
2318.00,101.28
2317.00,101.32
2316.00,101.33
2315.00,101.32
2314.00,101.32
2313.00,101.34
2312.00,101.36
2311.00,101.38
2310.00,101.37
2309.00,101.37
2308.00,101.37
2307.00,101.38
2306.00,101.39
2305.00,101.41
2304.00,101.44
2303.00,101.47
2302.00,101.48
2301.00,101.47
2300.00,101.46
2299.00,101.46
2298.00,101.47
2297.00,101.49
2296.00,101.51
2295.00,101.52
2294.00,101.51
2293.00,101.47
2292.00,101.43
2291.00,101.42
2290.00,101.43
2289.00,101.44
2288.00,101.43
2287.00,101.42
2286.00,101.41
2285.00,101.41
2284.00,101.41
2283.00,101.42
2282.00,101.44
2281.00,101.46
2280.00,101.47
2279.00,101.46
2278.00,101.44
2277.00,101.42
2276.00,101.41
2275.00,101.41
2274.00,101.43
2273.00,101.44
2272.00,101.44
2271.00,101.42
2270.00,101.42
2269.00,101.44
2268.00,101.48
2267.00,101.50
2266.00,101.50
2265.00,101.48
2264.00,101.47
2263.00,101.46
2262.00,101.46
2261.00,101.46
2260.00,101.44
2259.00,101.43
2258.00,101.43
2257.00,101.42
2256.00,101.42
2255.00,101.44
2254.00,101.45
2253.00,101.45
2252.00,101.46
2251.00,101.47
2250.00,101.48
2249.00,101.47
2248.00,101.45
2247.00,101.43
2246.00,101.41
2245.00,101.39
2244.00,101.37
2243.00,101.39
2242.00,101.43
2241.00,101.46
2240.00,101.47
2239.00,101.44
2238.00,101.40
2237.00,101.36
2236.00,101.34
2235.00,101.37
2234.00,101.43
2233.00,101.49
2232.00,101.50
2231.00,101.47
2230.00,101.44
2229.00,101.41
2228.00,101.39
2227.00,101.38
2226.00,101.37
2225.00,101.37
2224.00,101.38
2223.00,101.40
2222.00,101.42
2221.00,101.42
2220.00,101.41
2219.00,101.41
2218.00,101.41
2217.00,101.42
2216.00,101.43
2215.00,101.44
2214.00,101.41
2213.00,101.35
2212.00,101.30
2211.00,101.29
2210.00,101.31
2209.00,101.31
2208.00,101.29
2207.00,101.27
2206.00,101.26
2205.00,101.27
2204.00,101.27
2203.00,101.27
2202.00,101.24
2201.00,101.17
2200.00,101.12
2199.00,101.13
2198.00,101.20
2197.00,101.30
2196.00,101.37
2195.00,101.38
2194.00,101.33
2193.00,101.25
2192.00,101.17
2191.00,101.15
2190.00,101.19
2189.00,101.25
2188.00,101.29
2187.00,101.29
2186.00,101.29
2185.00,101.33
2184.00,101.40
2183.00,101.44
2182.00,101.45
2181.00,101.43
2180.00,101.41
2179.00,101.40
2178.00,101.38
2177.00,101.36
2176.00,101.36
2175.00,101.38
2174.00,101.39
2173.00,101.35
2172.00,101.29
2171.00,101.24
2170.00,101.23
2169.00,101.27
2168.00,101.32
2167.00,101.35
2166.00,101.34
2165.00,101.28
2164.00,101.23
2163.00,101.24
2162.00,101.31
2161.00,101.42
2160.00,101.51
2159.00,101.55
2158.00,101.54
2157.00,101.46
2156.00,101.35
2155.00,101.26
2154.00,101.24
2153.00,101.26
2152.00,101.30
2151.00,101.35
2150.00,101.37
2149.00,101.39
2148.00,101.39
2147.00,101.39
2146.00,101.41
2145.00,101.45
2144.00,101.50
2143.00,101.53
2142.00,101.52
2141.00,101.49
2140.00,101.44
2139.00,101.42
2138.00,101.41
2137.00,101.42
2136.00,101.45
2135.00,101.50
2134.00,101.52
2133.00,101.51
2132.00,101.47
2131.00,101.45
2130.00,101.44
2129.00,101.43
2128.00,101.40
2127.00,101.37
2126.00,101.34
2125.00,101.33
2124.00,101.32
2123.00,101.31
2122.00,101.31
2121.00,101.30
2120.00,101.28
2119.00,101.27
2118.00,101.27
2117.00,101.26
2116.00,101.25
2115.00,101.24
2114.00,101.23
2113.00,101.25
2112.00,101.27
2111.00,101.30
2110.00,101.32
2109.00,101.33
2108.00,101.34
2107.00,101.34
2106.00,101.33
2105.00,101.32
2104.00,101.31
2103.00,101.31
2102.00,101.30
2101.00,101.29
2100.00,101.28
2099.00,101.29
2098.00,101.31
2097.00,101.31
2096.00,101.30
2095.00,101.31
2094.00,101.32
2093.00,101.33
2092.00,101.32
2091.00,101.31
2090.00,101.32
2089.00,101.33
2088.00,101.33
2087.00,101.30
2086.00,101.28
2085.00,101.28
2084.00,101.29
2083.00,101.30
2082.00,101.30
2081.00,101.28
2080.00,101.28
2079.00,101.30
2078.00,101.34
2077.00,101.39
2076.00,101.41
2075.00,101.40
2074.00,101.37
2073.00,101.33
2072.00,101.29
2071.00,101.27
2070.00,101.26
2069.00,101.27
2068.00,101.31
2067.00,101.36
2066.00,101.38
2065.00,101.36
2064.00,101.33
2063.00,101.31
2062.00,101.34
2061.00,101.38
2060.00,101.42
2059.00,101.43
2058.00,101.41
2057.00,101.37
2056.00,101.34
2055.00,101.32
2054.00,101.29
2053.00,101.25
2052.00,101.22
2051.00,101.24
2050.00,101.29
2049.00,101.35
2048.00,101.38
2047.00,101.39
2046.00,101.37
2045.00,101.35
2044.00,101.34
2043.00,101.34
2042.00,101.36
2041.00,101.37
2040.00,101.37
2039.00,101.35
2038.00,101.32
2037.00,101.30
2036.00,101.31
2035.00,101.32
2034.00,101.31
2033.00,101.28
2032.00,101.26
2031.00,101.28
2030.00,101.32
2029.00,101.36
2028.00,101.41
2027.00,101.44
2026.00,101.42
2025.00,101.36
2024.00,101.30
2023.00,101.30
2022.00,101.35
2021.00,101.41
2020.00,101.45
2019.00,101.47
2018.00,101.46
2017.00,101.41
2016.00,101.36
2015.00,101.37
2014.00,101.40
2013.00,101.40
2012.00,101.34
2011.00,101.29
2010.00,101.28
2009.00,101.33
2008.00,101.39
2007.00,101.44
2006.00,101.45
2005.00,101.41
2004.00,101.36
2003.00,101.35
2002.00,101.36
2001.00,101.39
2000.00,101.42
1999.00,101.44
1998.00,101.46
1997.00,101.47
1996.00,101.47
1995.00,101.46
1994.00,101.46
1993.00,101.44
1992.00,101.42
1991.00,101.41
1990.00,101.40
1989.00,101.37
1988.00,101.31
1987.00,101.26
1986.00,101.24
1985.00,101.26
1984.00,101.31
1983.00,101.35
1982.00,101.35
1981.00,101.32
1980.00,101.29
1979.00,101.29
1978.00,101.30
1977.00,101.29
1976.00,101.25
1975.00,101.23
1974.00,101.22
1973.00,101.22
1972.00,101.24
1971.00,101.30
1970.00,101.38
1969.00,101.45
1968.00,101.47
1967.00,101.46
1966.00,101.44
1965.00,101.42
1964.00,101.39
1963.00,101.36
1962.00,101.35
1961.00,101.37
1960.00,101.40
1959.00,101.43
1958.00,101.45
1957.00,101.46
1956.00,101.47
1955.00,101.47
1954.00,101.46
1953.00,101.45
1952.00,101.45
1951.00,101.45
1950.00,101.45
1949.00,101.42
1948.00,101.39
1947.00,101.36
1946.00,101.35
1945.00,101.37
1944.00,101.40
1943.00,101.44
1942.00,101.46
1941.00,101.47
1940.00,101.47
1939.00,101.45
1938.00,101.42
1937.00,101.39
1936.00,101.38
1935.00,101.40
1934.00,101.41
1933.00,101.41
1932.00,101.39
1931.00,101.37
1930.00,101.37
1929.00,101.35
1928.00,101.33
1927.00,101.31
1926.00,101.31
1925.00,101.33
1924.00,101.36
1923.00,101.37
1922.00,101.37
1921.00,101.35
1920.00,101.33
1919.00,101.33
1918.00,101.34
1917.00,101.33
1916.00,101.33
1915.00,101.37
1914.00,101.42
1913.00,101.45
1912.00,101.45
1911.00,101.44
1910.00,101.42
1909.00,101.39
1908.00,101.36
1907.00,101.35
1906.00,101.35
1905.00,101.35
1904.00,101.36
1903.00,101.37
1902.00,101.38
1901.00,101.36
1900.00,101.36
1899.00,101.37
1898.00,101.41
1897.00,101.43
1896.00,101.43
1895.00,101.41
1894.00,101.38
1893.00,101.37
1892.00,101.39
1891.00,101.43
1890.00,101.45
1889.00,101.41
1888.00,101.34
1887.00,101.30
1886.00,101.31
1885.00,101.33
1884.00,101.36
1883.00,101.39
1882.00,101.42
1881.00,101.44
1880.00,101.43
1879.00,101.41
1878.00,101.40
1877.00,101.40
1876.00,101.41
1875.00,101.43
1874.00,101.44
1873.00,101.43
1872.00,101.42
1871.00,101.42
1870.00,101.44
1869.00,101.43
1868.00,101.41
1867.00,101.39
1866.00,101.39
1865.00,101.39
1864.00,101.39
1863.00,101.39
1862.00,101.38
1861.00,101.36
1860.00,101.36
1859.00,101.36
1858.00,101.36
1857.00,101.37
1856.00,101.39
1855.00,101.41
1854.00,101.42
1853.00,101.41
1852.00,101.38
1851.00,101.37
1850.00,101.38
1849.00,101.38
1848.00,101.37
1847.00,101.35
1846.00,101.35
1845.00,101.34
1844.00,101.34
1843.00,101.34
1842.00,101.35
1841.00,101.35
1840.00,101.36
1839.00,101.36
1838.00,101.36
1837.00,101.34
1836.00,101.31
1835.00,101.29
1834.00,101.27
1833.00,101.27
1832.00,101.29
1831.00,101.33
1830.00,101.34
1829.00,101.33
1828.00,101.32
1827.00,101.33
1826.00,101.36
1825.00,101.36
1824.00,101.33
1823.00,101.32
1822.00,101.32
1821.00,101.32
1820.00,101.31
1819.00,101.30
1818.00,101.29
1817.00,101.28
1816.00,101.27
1815.00,101.26
1814.00,101.25
1813.00,101.23
1812.00,101.20
1811.00,101.18
1810.00,101.17
1809.00,101.17
1808.00,101.17
1807.00,101.16
1806.00,101.15
1805.00,101.13
1804.00,101.12
1803.00,101.14
1802.00,101.17
1801.00,101.18
1800.00,101.16
1799.00,101.13
1798.00,101.11
1797.00,101.09
1796.00,101.08
1795.00,101.08
1794.00,101.09
1793.00,101.08
1792.00,101.02
1791.00,100.96
1790.00,100.93
1789.00,100.90
1788.00,100.89
1787.00,100.89
1786.00,100.89
1785.00,100.89
1784.00,100.87
1783.00,100.85
1782.00,100.84
1781.00,100.82
1780.00,100.78
1779.00,100.74
1778.00,100.72
1777.00,100.71
1776.00,100.68
1775.00,100.65
1774.00,100.63
1773.00,100.61
1772.00,100.55
1771.00,100.47
1770.00,100.40
1769.00,100.36
1768.00,100.32
1767.00,100.26
1766.00,100.20
1765.00,100.14
1764.00,100.08
1763.00,100.03
1762.00,99.96
1761.00,99.87
1760.00,99.78
1759.00,99.71
1758.00,99.65
1757.00,99.56
1756.00,99.44
1755.00,99.29
1754.00,99.15
1753.00,99.00
1752.00,98.84
1751.00,98.67
1750.00,98.50
1749.00,98.29
1748.00,98.05
1747.00,97.79
1746.00,97.55
1745.00,97.29
1744.00,97.00
1743.00,96.70
1742.00,96.41
1741.00,96.13
1740.00,95.85
1739.00,95.59
1738.00,95.39
1737.00,95.21
1736.00,95.06
1735.00,94.98
1734.00,94.98
1733.00,95.02
1732.00,95.08
1731.00,95.16
1730.00,95.24
1729.00,95.31
1728.00,95.38
1727.00,95.45
1726.00,95.54
1725.00,95.64
1724.00,95.72
1723.00,95.79
1722.00,95.82
1721.00,95.82
1720.00,95.81
1719.00,95.81
1718.00,95.82
1717.00,95.80
1716.00,95.77
1715.00,95.76
1714.00,95.75
1713.00,95.71
1712.00,95.65
1711.00,95.61
1710.00,95.57
1709.00,95.52
1708.00,95.45
1707.00,95.39
1706.00,95.32
1705.00,95.19
1704.00,95.01
1703.00,94.81
1702.00,94.64
1701.00,94.45
1700.00,94.22
1699.00,94.03
1698.00,93.89
1697.00,93.68
1696.00,93.39
1695.00,93.11
1694.00,92.90
1693.00,92.72
1692.00,92.51
1691.00,92.27
1690.00,92.01
1689.00,91.73
1688.00,91.43
1687.00,91.14
1686.00,90.87
1685.00,90.57
1684.00,90.20
1683.00,89.88
1682.00,89.64
1681.00,89.39
1680.00,89.10
1679.00,88.80
1678.00,88.53
1677.00,88.28
1676.00,88.02
1675.00,87.78
1674.00,87.59
1673.00,87.41
1672.00,87.21
1671.00,87.01
1670.00,86.80
1669.00,86.58
1668.00,86.37
1667.00,86.20
1666.00,86.03
1665.00,85.85
1664.00,85.63
1663.00,85.41
1662.00,85.18
1661.00,84.94
1660.00,84.69
1659.00,84.44
1658.00,84.20
1657.00,83.95
1656.00,83.64
1655.00,83.35
1654.00,83.10
1653.00,82.85
1652.00,82.69
1651.00,82.63
1650.00,82.56
1649.00,82.44
1648.00,82.27
1647.00,82.09
1646.00,81.97
1645.00,81.91
1644.00,81.86
1643.00,81.80
1642.00,81.73
1641.00,81.66
1640.00,81.61
1639.00,81.55
1638.00,81.50
1637.00,81.48
1636.00,81.47
1635.00,81.47
1634.00,81.49
1633.00,81.50
1632.00,81.48
1631.00,81.47
1630.00,81.48
1629.00,81.51
1628.00,81.57
1627.00,81.63
1626.00,81.71
1625.00,81.80
1624.00,81.94
1623.00,82.13
1622.00,82.35
1621.00,82.54
1620.00,82.69
1619.00,82.83
1618.00,83.06
1617.00,83.39
1616.00,83.76
1615.00,84.12
1614.00,84.43
1613.00,84.72
1612.00,85.01
1611.00,85.31
1610.00,85.63
1609.00,85.97
1608.00,86.31
1607.00,86.63
1606.00,86.94
1605.00,87.24
1604.00,87.55
1603.00,87.84
1602.00,88.11
1601.00,88.37
1600.00,88.61
1599.00,88.82
1598.00,89.02
1597.00,89.21
1596.00,89.43
1595.00,89.65
1594.00,89.83
1593.00,89.99
1592.00,90.15
1591.00,90.31
1590.00,90.44
1589.00,90.54
1588.00,90.65
1587.00,90.76
1586.00,90.83
1585.00,90.87
1584.00,90.91
1583.00,90.94
1582.00,90.96
1581.00,90.96
1580.00,90.94
1579.00,90.90
1578.00,90.86
1577.00,90.81
1576.00,90.73
1575.00,90.65
1574.00,90.56
1573.00,90.46
1572.00,90.36
1571.00,90.26
1570.00,90.14
1569.00,90.01
1568.00,89.88
1567.00,89.76
1566.00,89.63
1565.00,89.47
1564.00,89.28
1563.00,89.05
1562.00,88.78
1561.00,88.52
1560.00,88.28
1559.00,87.92
1558.00,87.59
1557.00,87.45
1556.00,87.34
1555.00,87.16
1554.00,86.93
1553.00,86.70
1552.00,86.49
1551.00,86.28
1550.00,86.04
1549.00,85.79
1548.00,85.58
1547.00,85.40
1546.00,85.23
1545.00,85.05
1544.00,84.88
1543.00,84.73
1542.00,84.62
1541.00,84.51
1540.00,84.37
1539.00,84.27
1538.00,84.22
1537.00,84.17
1536.00,84.11
1535.00,84.05
1534.00,84.01
1533.00,83.97
1532.00,83.93
1531.00,83.90
1530.00,83.89
1529.00,83.90
1528.00,83.91
1527.00,83.92
1526.00,83.93
1525.00,83.93
1524.00,83.92
1523.00,83.90
1522.00,83.89
1521.00,83.88
1520.00,83.88
1519.00,83.88
1518.00,83.87
1517.00,83.86
1516.00,83.85
1515.00,83.84
1514.00,83.86
1513.00,83.91
1512.00,84.03
1511.00,84.16
1510.00,84.27
1509.00,84.38
1508.00,84.59
1507.00,84.91
1506.00,85.23
1505.00,85.48
1504.00,85.70
1503.00,85.89
1502.00,86.07
1501.00,86.27
1500.00,86.47
1499.00,86.70
1498.00,86.96
1497.00,87.25
1496.00,87.55
1495.00,87.84
1494.00,88.09
1493.00,88.32
1492.00,88.55
1491.00,88.85
1490.00,89.19
1489.00,89.47
1488.00,89.68
1487.00,89.85
1486.00,90.01
1485.00,90.15
1484.00,90.27
1483.00,90.36
1482.00,90.43
1481.00,90.46
1480.00,90.44
1479.00,90.39
1478.00,90.29
1477.00,90.12
1476.00,89.89
1475.00,89.58
1474.00,89.20
1473.00,88.74
1472.00,88.27
1471.00,87.87
1470.00,87.55
1469.00,87.25
1468.00,86.98
1467.00,86.77
1466.00,86.62
1465.00,86.52
1464.00,86.47
1463.00,86.49
1462.00,86.55
1461.00,86.59
1460.00,86.61
1459.00,86.61
1458.00,86.61
1457.00,86.60
1456.00,86.63
1455.00,86.73
1454.00,86.84
1453.00,86.93
1452.00,87.01
1451.00,87.10
1450.00,87.19
1449.00,87.28
1448.00,87.36
1447.00,87.44
1446.00,87.51
1445.00,87.60
1444.00,87.69
1443.00,87.79
1442.00,87.90
1441.00,88.01
1440.00,88.08
1439.00,88.15
1438.00,88.27
1437.00,88.47
1436.00,88.71
1435.00,88.92
1434.00,89.08
1433.00,89.23
1432.00,89.38
1431.00,89.53
1430.00,89.68
1429.00,89.81
1428.00,89.90
1427.00,89.95
1426.00,89.99
1425.00,90.02
1424.00,90.04
1423.00,90.02
1422.00,89.95
1421.00,89.89
1420.00,89.84
1419.00,89.82
1418.00,89.81
1417.00,89.79
1416.00,89.78
1415.00,89.76
1414.00,89.75
1413.00,89.76
1412.00,89.75
1411.00,89.75
1410.00,89.75
1409.00,89.74
1408.00,89.72
1407.00,89.68
1406.00,89.64
1405.00,89.60
1404.00,89.55
1403.00,89.50
1402.00,89.46
1401.00,89.43
1400.00,89.40
1399.00,89.35
1398.00,89.28
1397.00,89.21
1396.00,89.14
1395.00,89.06
1394.00,88.99
1393.00,88.93
1392.00,88.86
1391.00,88.77
1390.00,88.66
1389.00,88.55
1388.00,88.43
1387.00,88.29
1386.00,88.14
1385.00,88.02
1384.00,87.93
1383.00,87.88
1382.00,87.86
1381.00,87.87
1380.00,87.90
1379.00,87.94
1378.00,87.99
1377.00,88.07
1376.00,88.17
1375.00,88.29
1374.00,88.42
1373.00,88.54
1372.00,88.65
1371.00,88.73
1370.00,88.80
1369.00,88.85
1368.00,88.89
1367.00,88.94
1366.00,89.02
1365.00,89.15
1364.00,89.32
1363.00,89.53
1362.00,89.72
1361.00,89.88
1360.00,89.99
1359.00,90.07
1358.00,90.15
1357.00,90.22
1356.00,90.29
1355.00,90.34
1354.00,90.37
1353.00,90.40
1352.00,90.42
1351.00,90.44
1350.00,90.46
1349.00,90.48
1348.00,90.49
1347.00,90.50
1346.00,90.50
1345.00,90.50
1344.00,90.51
1343.00,90.52
1342.00,90.54
1341.00,90.55
1340.00,90.56
1339.00,90.55
1338.00,90.52
1337.00,90.51
1336.00,90.53
1335.00,90.55
1334.00,90.57
1333.00,90.59
1332.00,90.60
1331.00,90.62
1330.00,90.62
1329.00,90.62
1328.00,90.61
1327.00,90.62
1326.00,90.63
1325.00,90.62
1324.00,90.60
1323.00,90.56
1322.00,90.51
1321.00,90.47
1320.00,90.43
1319.00,90.38
1318.00,90.35
1317.00,90.32
1316.00,90.29
1315.00,90.26
1314.00,90.23
1313.00,90.19
1312.00,90.15
1311.00,90.10
1310.00,90.07
1309.00,90.04
1308.00,90.01
1307.00,89.97
1306.00,89.93
1305.00,89.89
1304.00,89.87
1303.00,89.85
1302.00,89.83
1301.00,89.80
1300.00,89.78
1299.00,89.75
1298.00,89.73
1297.00,89.70
1296.00,89.69
1295.00,89.67
1294.00,89.66
1293.00,89.64
1292.00,89.63
1291.00,89.62
1290.00,89.60
1289.00,89.58
1288.00,89.55
1287.00,89.53
1286.00,89.51
1285.00,89.48
1284.00,89.44
1283.00,89.41
1282.00,89.38
1281.00,89.35
1280.00,89.30
1279.00,89.26
1278.00,89.22
1277.00,89.18
1276.00,89.13
1275.00,89.07
1274.00,89.02
1273.00,88.96
1272.00,88.90
1271.00,88.84
1270.00,88.79
1269.00,88.73
1268.00,88.66
1267.00,88.59
1266.00,88.54
1265.00,88.49
1264.00,88.44
1263.00,88.37
1262.00,88.30
1261.00,88.22
1260.00,88.15
1259.00,88.06
1258.00,87.97
1257.00,87.88
1256.00,87.81
1255.00,87.73
1254.00,87.64
1253.00,87.55
1252.00,87.46
1251.00,87.39
1250.00,87.31
1249.00,87.23
1248.00,87.16
1247.00,87.11
1246.00,87.07
1245.00,87.02
1244.00,86.96
1243.00,86.91
1242.00,86.86
1241.00,86.81
1240.00,86.77
1239.00,86.73
1238.00,86.71
1237.00,86.68
1236.00,86.65
1235.00,86.65
1234.00,86.66
1233.00,86.69
1232.00,86.71
1231.00,86.73
1230.00,86.77
1229.00,86.82
1228.00,86.87
1227.00,86.91
1226.00,86.95
1225.00,86.99
1224.00,87.04
1223.00,87.10
1222.00,87.17
1221.00,87.25
1220.00,87.32
1219.00,87.38
1218.00,87.43
1217.00,87.49
1216.00,87.57
1215.00,87.66
1214.00,87.74
1213.00,87.81
1212.00,87.86
1211.00,87.89
1210.00,87.91
1209.00,87.92
1208.00,87.95
1207.00,87.99
1206.00,88.02
1205.00,88.01
1204.00,87.99
1203.00,87.99
1202.00,88.01
1201.00,88.04
1200.00,88.06
1199.00,88.08
1198.00,88.10
1197.00,88.09
1196.00,88.07
1195.00,88.06
1194.00,88.07
1193.00,88.08
1192.00,88.06
1191.00,88.04
1190.00,88.03
1189.00,88.03
1188.00,88.01
1187.00,87.98
1186.00,87.95
1185.00,87.93
1184.00,87.89
1183.00,87.82
1182.00,87.76
1181.00,87.71
1180.00,87.66
1179.00,87.60
1178.00,87.53
1177.00,87.48
1176.00,87.44
1175.00,87.40
1174.00,87.37
1173.00,87.34
1172.00,87.34
1171.00,87.37
1170.00,87.41
1169.00,87.47
1168.00,87.55
1167.00,87.64
1166.00,87.71
1165.00,87.77
1164.00,87.85
1163.00,87.94
1162.00,88.04
1161.00,88.12
1160.00,88.19
1159.00,88.27
1158.00,88.35
1157.00,88.42
1156.00,88.47
1155.00,88.52
1154.00,88.60
1153.00,88.69
1152.00,88.78
1151.00,88.88
1150.00,89.01
1149.00,89.15
1148.00,89.29
1147.00,89.43
1146.00,89.58
1145.00,89.72
1144.00,89.83
1143.00,89.91
1142.00,89.97
1141.00,90.06
1140.00,90.14
1139.00,90.18
1138.00,90.19
1137.00,90.20
1136.00,90.25
1135.00,90.29
1134.00,90.30
1133.00,90.28
1132.00,90.25
1131.00,90.22
1130.00,90.17
1129.00,90.12
1128.00,90.11
1127.00,90.12
1126.00,90.14
1125.00,90.13
1124.00,90.12
1123.00,90.12
1122.00,90.11
1121.00,90.08
1120.00,90.04
1119.00,90.01
1118.00,90.00
1117.00,89.99
1116.00,89.95
1115.00,89.91
1114.00,89.90
1113.00,89.89
1112.00,89.87
1111.00,89.86
1110.00,89.87
1109.00,89.88
1108.00,89.87
1107.00,89.88
1106.00,89.91
1105.00,89.94
1104.00,89.93
1103.00,89.88
1102.00,89.84
1101.00,89.85
1100.00,89.86
1099.00,89.84
1098.00,89.81
1097.00,89.79
1096.00,89.80
1095.00,89.81
1094.00,89.81
1093.00,89.81
1092.00,89.82
1091.00,89.79
1090.00,89.72
1089.00,89.63
1088.00,89.55
1087.00,89.50
1086.00,89.43
1085.00,89.34
1084.00,89.25
1083.00,89.19
1082.00,89.15
1081.00,89.11
1080.00,89.06
1079.00,89.03
1078.00,89.02
1077.00,89.00
1076.00,88.98
1075.00,89.00
1074.00,89.05
1073.00,89.09
1072.00,89.08
1071.00,89.07
1070.00,89.09
1069.00,89.14
1068.00,89.15
1067.00,89.13
1066.00,89.12
1065.00,89.15
1064.00,89.17
1063.00,89.18
1062.00,89.19
1061.00,89.24
1060.00,89.27
1059.00,89.25
1058.00,89.20
1057.00,89.18
1056.00,89.20
1055.00,89.24
1054.00,89.27
1053.00,89.30
1052.00,89.32
1051.00,89.30
1050.00,89.25
1049.00,89.20
1048.00,89.20
1047.00,89.22
1046.00,89.23
1045.00,89.21
1044.00,89.21
1043.00,89.23
1042.00,89.26
1041.00,89.27
1040.00,89.30
1039.00,89.36
1038.00,89.43
1037.00,89.50
1036.00,89.57
1035.00,89.64
1034.00,89.73
1033.00,89.79
1032.00,89.81
1031.00,89.83
1030.00,89.87
1029.00,89.93
1028.00,89.97
1027.00,90.01
1026.00,90.05
1025.00,90.10
1024.00,90.13
1023.00,90.15
1022.00,90.18
1021.00,90.25
1020.00,90.29
1019.00,90.31
1018.00,90.31
1017.00,90.33
1016.00,90.36
1015.00,90.38
1014.00,90.39
1013.00,90.42
1012.00,90.46
1011.00,90.49
1010.00,90.51
1009.00,90.55
1008.00,90.63
1007.00,90.72
1006.00,90.78
1005.00,90.81
1004.00,90.84
1003.00,90.88
1002.00,90.92
1001.00,90.94
1000.00,90.96
999.00,90.98
998.00,91.00
997.00,91.00
996.00,90.99
995.00,91.01
994.00,91.06
993.00,91.11
992.00,91.11
991.00,91.11
990.00,91.13
989.00,91.17
988.00,91.20
987.00,91.23
986.00,91.26
985.00,91.31
984.00,91.34
983.00,91.33
982.00,91.33
981.00,91.36
980.00,91.40
979.00,91.43
978.00,91.46
977.00,91.52
976.00,91.59
975.00,91.65
974.00,91.68
973.00,91.73
972.00,91.80
971.00,91.86
970.00,91.92
969.00,92.00
968.00,92.09
967.00,92.17
966.00,92.20
965.00,92.20
964.00,92.22
963.00,92.26
962.00,92.29
961.00,92.30
960.00,92.32
959.00,92.35
958.00,92.38
957.00,92.39
956.00,92.40
955.00,92.44
954.00,92.52
953.00,92.59
952.00,92.64
951.00,92.68
950.00,92.72
949.00,92.74
948.00,92.74
947.00,92.73
946.00,92.75
945.00,92.79
944.00,92.82
943.00,92.82
942.00,92.81
941.00,92.82
940.00,92.82
939.00,92.81
938.00,92.78
937.00,92.78
936.00,92.78
935.00,92.78
934.00,92.76
933.00,92.76
932.00,92.79
931.00,92.83
930.00,92.83
929.00,92.83
928.00,92.85
927.00,92.87
926.00,92.87
925.00,92.84
924.00,92.83
923.00,92.85
922.00,92.88
921.00,92.89
920.00,92.90
919.00,92.93
918.00,92.98
917.00,93.02
916.00,93.05
915.00,93.09
914.00,93.11
913.00,93.13
912.00,93.14
911.00,93.19
910.00,93.27
909.00,93.34
908.00,93.37
907.00,93.39
906.00,93.43
905.00,93.48
904.00,93.49
903.00,93.47
902.00,93.48
901.00,93.51
900.00,93.53
899.00,93.50
898.00,93.46
897.00,93.45
896.00,93.48
895.00,93.50
894.00,93.51
893.00,93.52
892.00,93.54
891.00,93.55
890.00,93.54
889.00,93.54
888.00,93.57
887.00,93.58
886.00,93.56
885.00,93.52
884.00,93.51
883.00,93.53
882.00,93.55
881.00,93.53
880.00,93.50
879.00,93.51
878.00,93.54
877.00,93.54
876.00,93.51
875.00,93.50
874.00,93.51
873.00,93.51
872.00,93.49
871.00,93.48
870.00,93.49
869.00,93.51
868.00,93.49
867.00,93.47
866.00,93.48
865.00,93.54
864.00,93.58
863.00,93.60
862.00,93.59
861.00,93.60
860.00,93.59
859.00,93.54
858.00,93.52
857.00,93.54
856.00,93.58
855.00,93.58
854.00,93.52
853.00,93.46
852.00,93.43
851.00,93.41
850.00,93.34
849.00,93.26
848.00,93.20
847.00,93.17
846.00,93.17
845.00,93.17
844.00,93.16
843.00,93.14
842.00,93.08
841.00,92.98
840.00,92.91
839.00,92.88
838.00,92.86
837.00,92.83
836.00,92.79
835.00,92.76
834.00,92.75
833.00,92.72
832.00,92.66
831.00,92.60
830.00,92.57
829.00,92.55
828.00,92.50
827.00,92.45
826.00,92.45
825.00,92.48
824.00,92.48
823.00,92.44
822.00,92.42
821.00,92.43
820.00,92.44
819.00,92.42
818.00,92.38
817.00,92.33
816.00,92.30
815.00,92.26
814.00,92.23
813.00,92.21
812.00,92.19
811.00,92.13
810.00,92.03
809.00,91.93
808.00,91.90
807.00,91.87
806.00,91.80
805.00,91.68
804.00,91.55
803.00,91.46
802.00,91.38
801.00,91.28
800.00,91.21
799.00,91.18
798.00,91.17
797.00,91.14
796.00,91.09
795.00,91.06
794.00,91.04
793.00,91.01
792.00,90.95
791.00,90.91
790.00,90.89
789.00,90.86
788.00,90.79
787.00,90.73
786.00,90.71
785.00,90.71
784.00,90.68
783.00,90.59
782.00,90.50
781.00,90.43
780.00,90.36
779.00,90.27
778.00,90.17
777.00,90.12
776.00,90.10
775.00,90.05
774.00,89.95
773.00,89.86
772.00,89.82
771.00,89.81
770.00,89.80
769.00,89.80
768.00,89.80
767.00,89.77
766.00,89.69
765.00,89.58
764.00,89.50
763.00,89.47
762.00,89.46
761.00,89.42
760.00,89.36
759.00,89.30
758.00,89.24
757.00,89.15
756.00,89.06
755.00,89.02
754.00,89.02
753.00,88.99
752.00,88.88
751.00,88.73
750.00,88.62
749.00,88.54
748.00,88.49
747.00,88.45
746.00,88.44
745.00,88.43
744.00,88.38
743.00,88.30
742.00,88.23
741.00,88.21
740.00,88.17
739.00,88.10
738.00,88.04
737.00,88.02
736.00,88.00
735.00,87.90
734.00,87.69
733.00,87.49
732.00,87.36
731.00,87.29
730.00,87.21
729.00,87.11
728.00,87.01
727.00,86.91
726.00,86.78
725.00,86.60
724.00,86.42
723.00,86.26
722.00,86.11
721.00,85.95
720.00,85.83
719.00,85.82
718.00,85.89
717.00,85.97
716.00,86.05
715.00,86.14
714.00,86.24
713.00,86.30
712.00,86.25
711.00,86.17
710.00,86.10
709.00,86.07
708.00,86.02
707.00,85.94
706.00,85.87
705.00,85.81
704.00,85.73
703.00,85.62
702.00,85.51
701.00,85.44
700.00,85.36
699.00,85.26
698.00,85.14
697.00,85.05
696.00,85.01
695.00,84.97
694.00,84.93
693.00,84.91
692.00,84.92
691.00,84.94
690.00,84.94
689.00,84.92
688.00,84.93
687.00,84.97
686.00,84.96
685.00,84.89
684.00,84.79
683.00,84.71
682.00,84.63
681.00,84.54
680.00,84.49
679.00,84.46
678.00,84.40
677.00,84.23
676.00,84.01
675.00,83.88
674.00,83.87
673.00,83.89
672.00,83.82
671.00,83.69
670.00,83.60
669.00,83.60
668.00,83.53
667.00,83.40
666.00,83.34
665.00,83.35
664.00,83.34
663.00,83.29
662.00,83.25
661.00,83.26
660.00,83.26
659.00,83.18
658.00,83.02
657.00,82.88
656.00,82.82
655.00,82.76
654.00,82.63
653.00,82.48
652.00,82.36
651.00,82.30
650.00,82.22
649.00,82.17
648.00,82.21
647.00,82.31
646.00,82.32
645.00,82.19
644.00,82.06
643.00,82.05
642.00,82.06
641.00,81.95
640.00,81.77
639.00,81.71
638.00,81.79
637.00,81.85
636.00,81.79
635.00,81.71
634.00,81.72
633.00,81.73
632.00,81.65
631.00,81.55
630.00,81.55
629.00,81.61
628.00,81.59
627.00,81.52
626.00,81.50
625.00,81.52
624.00,81.38
623.00,81.02
622.00,80.68
621.00,80.58
620.00,80.64
619.00,80.57
618.00,80.37
617.00,80.30
616.00,80.45
615.00,80.54
614.00,80.32
613.00,80.04
612.00,80.10
611.00,80.49
610.00,80.75
609.00,80.64
608.00,80.42
607.00,80.40
606.00,80.54
605.00,80.64
604.00,80.70
603.00,80.78
602.00,80.79
601.00,80.63
600.00,80.49
599.00,80.63
598.00,80.91
597.00,80.91
596.00,80.53
595.00,80.20
594.00,80.22
593.00,80.36
592.00,80.32
591.00,80.14
590.00,80.01
589.00,79.82
588.00,79.41
587.00,78.99
586.00,79.01
585.00,79.41
584.00,79.66
583.00,79.47
582.00,79.29
581.00,79.61
580.00,80.21
579.00,80.29
578.00,79.64
577.00,78.94
576.00,78.86
575.00,79.21
574.00,79.31
573.00,78.91
572.00,78.40
571.00,78.01
570.00,77.66
569.00,77.50
568.00,77.91
567.00,78.74
566.00,79.10
565.00,78.64
564.00,78.21
563.00,78.57
562.00,79.16
561.00,78.98
560.00,78.27
559.00,78.10
558.00,78.60
557.00,78.75
556.00,78.09
555.00,77.45
554.00,77.42
553.00,77.52
552.00,77.04
551.00,76.49
550.00,76.49
