Created as New Dataset,14.4 Red Wool Sheep felt handmade
cm-1,%T
4000.00,97.20
3999.00,97.22
3998.00,97.23
3997.00,97.24
3996.00,97.24
3995.00,97.24
3994.00,97.25
3993.00,97.26
3992.00,97.27
3991.00,97.27
3990.00,97.27
3989.00,97.26
3988.00,97.26
3987.00,97.25
3986.00,97.25
3985.00,97.25
3984.00,97.25
3983.00,97.24
3982.00,97.23
3981.00,97.22
3980.00,97.23
3979.00,97.24
3978.00,97.26
3977.00,97.28
3976.00,97.27
3975.00,97.26
3974.00,97.25
3973.00,97.24
3972.00,97.22
3971.00,97.21
3970.00,97.20
3969.00,97.20
3968.00,97.21
3967.00,97.23
3966.00,97.24
3965.00,97.24
3964.00,97.22
3963.00,97.21
3962.00,97.19
3961.00,97.19
3960.00,97.20
3959.00,97.22
3958.00,97.24
3957.00,97.25
3956.00,97.25
3955.00,97.25
3954.00,97.24
3953.00,97.25
3952.00,97.25
3951.00,97.24
3950.00,97.22
3949.00,97.21
3948.00,97.21
3947.00,97.22
3946.00,97.22
3945.00,97.21
3944.00,97.21
3943.00,97.22
3942.00,97.24
3941.00,97.25
3940.00,97.25
3939.00,97.23
3938.00,97.22
3937.00,97.20
3936.00,97.21
3935.00,97.21
3934.00,97.22
3933.00,97.21
3932.00,97.19
3931.00,97.16
3930.00,97.15
3929.00,97.15
3928.00,97.16
3927.00,97.17
3926.00,97.18
3925.00,97.19
3924.00,97.20
3923.00,97.20
3922.00,97.21
3921.00,97.23
3920.00,97.24
3919.00,97.24
3918.00,97.23
3917.00,97.22
3916.00,97.21
3915.00,97.21
3914.00,97.22
3913.00,97.23
3912.00,97.23
3911.00,97.23
3910.00,97.23
3909.00,97.24
3908.00,97.24
3907.00,97.24
3906.00,97.24
3905.00,97.23
3904.00,97.22
3903.00,97.22
3902.00,97.21
3901.00,97.20
3900.00,97.20
3899.00,97.20
3898.00,97.21
3897.00,97.20
3896.00,97.19
3895.00,97.18
3894.00,97.18
3893.00,97.20
3892.00,97.23
3891.00,97.26
3890.00,97.28
3889.00,97.28
3888.00,97.28
3887.00,97.28
3886.00,97.28
3885.00,97.28
3884.00,97.27
3883.00,97.26
3882.00,97.26
3881.00,97.26
3880.00,97.27
3879.00,97.27
3878.00,97.27
3877.00,97.27
3876.00,97.29
3875.00,97.30
3874.00,97.31
3873.00,97.30
3872.00,97.29
3871.00,97.30
3870.00,97.31
3869.00,97.31
3868.00,97.28
3867.00,97.25
3866.00,97.24
3865.00,97.23
3864.00,97.22
3863.00,97.22
3862.00,97.22
3861.00,97.23
3860.00,97.25
3859.00,97.27
3858.00,97.29
3857.00,97.31
3856.00,97.32
3855.00,97.32
3854.00,97.32
3853.00,97.32
3852.00,97.30
3851.00,97.27
3850.00,97.24
3849.00,97.23
3848.00,97.22
3847.00,97.22
3846.00,97.22
3845.00,97.23
3844.00,97.23
3843.00,97.23
3842.00,97.23
3841.00,97.24
3840.00,97.24
3839.00,97.24
3838.00,97.24
3837.00,97.25
3836.00,97.28
3835.00,97.32
3834.00,97.35
3833.00,97.35
3832.00,97.31
3831.00,97.27
3830.00,97.22
3829.00,97.21
3828.00,97.22
3827.00,97.24
3826.00,97.27
3825.00,97.28
3824.00,97.28
3823.00,97.29
3822.00,97.32
3821.00,97.33
3820.00,97.31
3819.00,97.27
3818.00,97.23
3817.00,97.20
3816.00,97.19
3815.00,97.19
3814.00,97.20
3813.00,97.22
3812.00,97.24
3811.00,97.25
3810.00,97.24
3809.00,97.23
3808.00,97.23
3807.00,97.25
3806.00,97.27
3805.00,97.28
3804.00,97.28
3803.00,97.28
3802.00,97.28
3801.00,97.27
3800.00,97.26
3799.00,97.25
3798.00,97.25
3797.00,97.25
3796.00,97.26
3795.00,97.25
3794.00,97.24
3793.00,97.23
3792.00,97.23
3791.00,97.24
3790.00,97.24
3789.00,97.24
3788.00,97.23
3787.00,97.21
3786.00,97.20
3785.00,97.20
3784.00,97.21
3783.00,97.22
3782.00,97.23
3781.00,97.23
3780.00,97.24
3779.00,97.23
3778.00,97.23
3777.00,97.23
3776.00,97.24
3775.00,97.25
3774.00,97.25
3773.00,97.24
3772.00,97.23
3771.00,97.21
3770.00,97.18
3769.00,97.15
3768.00,97.13
3767.00,97.14
3766.00,97.16
3765.00,97.18
3764.00,97.16
3763.00,97.13
3762.00,97.12
3761.00,97.13
3760.00,97.15
3759.00,97.17
3758.00,97.19
3757.00,97.21
3756.00,97.23
3755.00,97.25
3754.00,97.28
3753.00,97.29
3752.00,97.28
3751.00,97.26
3750.00,97.24
3749.00,97.22
3748.00,97.20
3747.00,97.19
3746.00,97.20
3745.00,97.21
3744.00,97.20
3743.00,97.17
3742.00,97.15
3741.00,97.14
3740.00,97.15
3739.00,97.16
3738.00,97.16
3737.00,97.17
3736.00,97.18
3735.00,97.18
3734.00,97.16
3733.00,97.15
3732.00,97.14
3731.00,97.14
3730.00,97.13
3729.00,97.10
3728.00,97.08
3727.00,97.07
3726.00,97.08
3725.00,97.08
3724.00,97.09
3723.00,97.10
3722.00,97.10
3721.00,97.11
3720.00,97.10
3719.00,97.07
3718.00,97.05
3717.00,97.03
3716.00,97.01
3715.00,97.01
3714.00,97.02
3713.00,97.04
3712.00,97.06
3711.00,97.08
3710.00,97.09
3709.00,97.09
3708.00,97.09
3707.00,97.07
3706.00,97.05
3705.00,97.02
3704.00,97.01
3703.00,97.01
3702.00,97.03
3701.00,97.04
3700.00,97.05
3699.00,97.05
3698.00,97.05
3697.00,97.04
3696.00,97.03
3695.00,97.01
3694.00,97.01
3693.00,97.02
3692.00,97.04
3691.00,97.07
3690.00,97.07
3689.00,97.04
3688.00,97.01
3687.00,96.98
3686.00,96.96
3685.00,96.96
3684.00,96.96
3683.00,96.95
3682.00,96.95
3681.00,96.95
3680.00,96.97
3679.00,96.98
3678.00,96.96
3677.00,96.91
3676.00,96.84
3675.00,96.79
3674.00,96.77
3673.00,96.78
3672.00,96.78
3671.00,96.77
3670.00,96.77
3669.00,96.76
3668.00,96.76
3667.00,96.76
3666.00,96.77
3665.00,96.77
3664.00,96.77
3663.00,96.76
3662.00,96.74
3661.00,96.72
3660.00,96.69
3659.00,96.67
3658.00,96.67
3657.00,96.68
3656.00,96.67
3655.00,96.63
3654.00,96.58
3653.00,96.53
3652.00,96.48
3651.00,96.46
3650.00,96.44
3649.00,96.44
3648.00,96.44
3647.00,96.44
3646.00,96.44
3645.00,96.43
3644.00,96.42
3643.00,96.41
3642.00,96.40
3641.00,96.39
3640.00,96.38
3639.00,96.37
3638.00,96.34
3637.00,96.31
3636.00,96.28
3635.00,96.26
3634.00,96.26
3633.00,96.25
3632.00,96.23
3631.00,96.20
3630.00,96.16
3629.00,96.12
3628.00,96.09
3627.00,96.07
3626.00,96.05
3625.00,96.03
3624.00,96.01
3623.00,95.99
3622.00,95.97
3621.00,95.95
3620.00,95.95
3619.00,95.95
3618.00,95.94
3617.00,95.91
3616.00,95.87
3615.00,95.82
3614.00,95.79
3613.00,95.76
3612.00,95.73
3611.00,95.69
3610.00,95.66
3609.00,95.64
3608.00,95.63
3607.00,95.64
3606.00,95.63
3605.00,95.62
3604.00,95.60
3603.00,95.57
3602.00,95.54
3601.00,95.51
3600.00,95.47
3599.00,95.44
3598.00,95.42
3597.00,95.40
3596.00,95.38
3595.00,95.38
3594.00,95.37
3593.00,95.35
3592.00,95.33
3591.00,95.29
3590.00,95.26
3589.00,95.23
3588.00,95.20
3587.00,95.16
3586.00,95.14
3585.00,95.13
3584.00,95.13
3583.00,95.14
3582.00,95.14
3581.00,95.13
3580.00,95.10
3579.00,95.08
3578.00,95.04
3577.00,95.00
3576.00,94.96
3575.00,94.92
3574.00,94.90
3573.00,94.88
3572.00,94.86
3571.00,94.83
3570.00,94.79
3569.00,94.73
3568.00,94.67
3567.00,94.62
3566.00,94.61
3565.00,94.61
3564.00,94.61
3563.00,94.60
3562.00,94.57
3561.00,94.55
3560.00,94.52
3559.00,94.48
3558.00,94.44
3557.00,94.40
3556.00,94.36
3555.00,94.33
3554.00,94.31
3553.00,94.29
3552.00,94.28
3551.00,94.26
3550.00,94.24
3549.00,94.23
3548.00,94.21
3547.00,94.20
3546.00,94.19
3545.00,94.16
3544.00,94.13
3543.00,94.09
3542.00,94.05
3541.00,94.03
3540.00,94.02
3539.00,94.00
3538.00,93.99
3537.00,93.96
3536.00,93.93
3535.00,93.89
3534.00,93.84
3533.00,93.78
3532.00,93.71
3531.00,93.67
3530.00,93.65
3529.00,93.65
3528.00,93.68
3527.00,93.71
3526.00,93.72
3525.00,93.70
3524.00,93.67
3523.00,93.63
3522.00,93.59
3521.00,93.56
3520.00,93.53
3519.00,93.50
3518.00,93.47
3517.00,93.44
3516.00,93.41
3515.00,93.38
3514.00,93.35
3513.00,93.33
3512.00,93.31
3511.00,93.29
3510.00,93.28
3509.00,93.27
3508.00,93.26
3507.00,93.25
3506.00,93.24
3505.00,93.22
3504.00,93.19
3503.00,93.15
3502.00,93.12
3501.00,93.10
3500.00,93.08
3499.00,93.06
3498.00,93.05
3497.00,93.04
3496.00,93.03
3495.00,93.02
3494.00,93.00
3493.00,92.97
3492.00,92.95
3491.00,92.93
3490.00,92.91
3489.00,92.89
3488.00,92.85
3487.00,92.82
3486.00,92.79
3485.00,92.76
3484.00,92.75
3483.00,92.72
3482.00,92.69
3481.00,92.66
3480.00,92.64
3479.00,92.63
3478.00,92.63
3477.00,92.63
3476.00,92.62
3475.00,92.60
3474.00,92.58
3473.00,92.55
3472.00,92.53
3471.00,92.51
3470.00,92.49
3469.00,92.46
3468.00,92.45
3467.00,92.44
3466.00,92.42
3465.00,92.40
3464.00,92.37
3463.00,92.34
3462.00,92.31
3461.00,92.30
3460.00,92.30
3459.00,92.31
3458.00,92.31
3457.00,92.29
3456.00,92.27
3455.00,92.26
3454.00,92.25
3453.00,92.23
3452.00,92.21
3451.00,92.18
3450.00,92.16
3449.00,92.15
3448.00,92.14
3447.00,92.13
3446.00,92.11
3445.00,92.09
3444.00,92.07
3443.00,92.05
3442.00,92.04
3441.00,92.02
3440.00,91.98
3439.00,91.95
3438.00,91.91
3437.00,91.88
3436.00,91.86
3435.00,91.84
3434.00,91.83
3433.00,91.80
3432.00,91.76
3431.00,91.71
3430.00,91.68
3429.00,91.66
3428.00,91.65
3427.00,91.64
3426.00,91.63
3425.00,91.62
3424.00,91.61
3423.00,91.60
3422.00,91.60
3421.00,91.58
3420.00,91.55
3419.00,91.53
3418.00,91.50
3417.00,91.47
3416.00,91.44
3415.00,91.40
3414.00,91.38
3413.00,91.36
3412.00,91.36
3411.00,91.36
3410.00,91.35
3409.00,91.32
3408.00,91.28
3407.00,91.25
3406.00,91.23
3405.00,91.21
3404.00,91.19
3403.00,91.16
3402.00,91.13
3401.00,91.10
3400.00,91.07
3399.00,91.05
3398.00,91.05
3397.00,91.06
3396.00,91.07
3395.00,91.06
3394.00,91.04
3393.00,91.00
3392.00,90.98
3391.00,90.96
3390.00,90.95
3389.00,90.94
3388.00,90.92
3387.00,90.89
3386.00,90.86
3385.00,90.84
3384.00,90.83
3383.00,90.81
3382.00,90.80
3381.00,90.77
3380.00,90.74
3379.00,90.70
3378.00,90.67
3377.00,90.66
3376.00,90.65
3375.00,90.64
3374.00,90.63
3373.00,90.61
3372.00,90.58
3371.00,90.55
3370.00,90.53
3369.00,90.51
3368.00,90.49
3367.00,90.46
3366.00,90.43
3365.00,90.40
3364.00,90.38
3363.00,90.35
3362.00,90.32
3361.00,90.30
3360.00,90.29
3359.00,90.28
3358.00,90.27
3357.00,90.26
3356.00,90.24
3355.00,90.22
3354.00,90.19
3353.00,90.17
3352.00,90.14
3351.00,90.11
3350.00,90.06
3349.00,90.02
3348.00,89.99
3347.00,89.98
3346.00,89.97
3345.00,89.96
3344.00,89.94
3343.00,89.92
3342.00,89.89
3341.00,89.87
3340.00,89.85
3339.00,89.83
3338.00,89.80
3337.00,89.77
3336.00,89.75
3335.00,89.73
3334.00,89.71
3333.00,89.69
3332.00,89.67
3331.00,89.65
3330.00,89.63
3329.00,89.60
3328.00,89.56
3327.00,89.52
3326.00,89.47
3325.00,89.44
3324.00,89.41
3323.00,89.40
3322.00,89.37
3321.00,89.35
3320.00,89.32
3319.00,89.28
3318.00,89.25
3317.00,89.22
3316.00,89.19
3315.00,89.16
3314.00,89.14
3313.00,89.12
3312.00,89.10
3311.00,89.08
3310.00,89.04
3309.00,89.00
3308.00,88.97
3307.00,88.95
3306.00,88.94
3305.00,88.92
3304.00,88.89
3303.00,88.85
3302.00,88.80
3301.00,88.76
3300.00,88.73
3299.00,88.71
3298.00,88.69
3297.00,88.67
3296.00,88.63
3295.00,88.59
3294.00,88.55
3293.00,88.53
3292.00,88.51
3291.00,88.50
3290.00,88.50
3289.00,88.50
3288.00,88.49
3287.00,88.47
3286.00,88.43
3285.00,88.40
3284.00,88.39
3283.00,88.40
3282.00,88.42
3281.00,88.42
3280.00,88.41
3279.00,88.40
3278.00,88.39
3277.00,88.38
3276.00,88.38
3275.00,88.38
3274.00,88.40
3273.00,88.42
3272.00,88.45
3271.00,88.48
3270.00,88.48
3269.00,88.48
3268.00,88.47
3267.00,88.48
3266.00,88.50
3265.00,88.53
3264.00,88.55
3263.00,88.56
3262.00,88.58
3261.00,88.59
3260.00,88.61
3259.00,88.63
3258.00,88.67
3257.00,88.72
3256.00,88.77
3255.00,88.82
3254.00,88.86
3253.00,88.88
3252.00,88.90
3251.00,88.91
3250.00,88.93
3249.00,88.94
3248.00,88.95
3247.00,88.96
3246.00,88.98
3245.00,89.01
3244.00,89.06
3243.00,89.11
3242.00,89.16
3241.00,89.20
3240.00,89.23
3239.00,89.26
3238.00,89.29
3237.00,89.32
3236.00,89.35
3235.00,89.39
3234.00,89.41
3233.00,89.43
3232.00,89.45
3231.00,89.46
3230.00,89.47
3229.00,89.49
3228.00,89.52
3227.00,89.54
3226.00,89.56
3225.00,89.59
3224.00,89.61
3223.00,89.62
3222.00,89.64
3221.00,89.66
3220.00,89.68
3219.00,89.70
3218.00,89.72
3217.00,89.73
3216.00,89.75
3215.00,89.77
3214.00,89.80
3213.00,89.83
3212.00,89.84
3211.00,89.85
3210.00,89.85
3209.00,89.86
3208.00,89.88
3207.00,89.92
3206.00,89.95
3205.00,89.97
3204.00,89.99
3203.00,90.00
3202.00,90.02
3201.00,90.05
3200.00,90.09
3199.00,90.13
3198.00,90.15
3197.00,90.17
3196.00,90.19
3195.00,90.21
3194.00,90.24
3193.00,90.28
3192.00,90.33
3191.00,90.37
3190.00,90.41
3189.00,90.43
3188.00,90.43
3187.00,90.44
3186.00,90.47
3185.00,90.51
3184.00,90.56
3183.00,90.59
3182.00,90.63
3181.00,90.65
3180.00,90.68
3179.00,90.71
3178.00,90.74
3177.00,90.77
3176.00,90.80
3175.00,90.83
3174.00,90.86
3173.00,90.90
3172.00,90.95
3171.00,90.99
3170.00,91.02
3169.00,91.05
3168.00,91.07
3167.00,91.09
3166.00,91.12
3165.00,91.15
3164.00,91.20
3163.00,91.25
3162.00,91.29
3161.00,91.33
3160.00,91.37
3159.00,91.41
3158.00,91.45
3157.00,91.48
3156.00,91.51
3155.00,91.54
3154.00,91.57
3153.00,91.60
3152.00,91.62
3151.00,91.65
3150.00,91.68
3149.00,91.71
3148.00,91.74
3147.00,91.78
3146.00,91.81
3145.00,91.86
3144.00,91.90
3143.00,91.92
3142.00,91.94
3141.00,91.94
3140.00,91.95
3139.00,91.97
3138.00,92.00
3137.00,92.02
3136.00,92.04
3135.00,92.05
3134.00,92.08
3133.00,92.10
3132.00,92.13
3131.00,92.16
3130.00,92.18
3129.00,92.18
3128.00,92.19
3127.00,92.21
3126.00,92.24
3125.00,92.27
3124.00,92.31
3123.00,92.33
3122.00,92.35
3121.00,92.35
3120.00,92.35
3119.00,92.34
3118.00,92.33
3117.00,92.34
3116.00,92.37
3115.00,92.39
3114.00,92.42
3113.00,92.42
3112.00,92.43
3111.00,92.43
3110.00,92.43
3109.00,92.43
3108.00,92.42
3107.00,92.43
3106.00,92.44
3105.00,92.45
3104.00,92.47
3103.00,92.48
3102.00,92.48
3101.00,92.48
3100.00,92.48
3099.00,92.47
3098.00,92.46
3097.00,92.46
3096.00,92.45
3095.00,92.45
3094.00,92.45
3093.00,92.44
3092.00,92.44
3091.00,92.42
3090.00,92.41
3089.00,92.39
3088.00,92.36
3087.00,92.34
3086.00,92.33
3085.00,92.34
3084.00,92.35
3083.00,92.36
3082.00,92.37
3081.00,92.38
3080.00,92.38
3079.00,92.38
3078.00,92.38
3077.00,92.38
3076.00,92.37
3075.00,92.37
3074.00,92.37
3073.00,92.37
3072.00,92.37
3071.00,92.37
3070.00,92.37
3069.00,92.36
3068.00,92.36
3067.00,92.36
3066.00,92.37
3065.00,92.38
3064.00,92.38
3063.00,92.38
3062.00,92.38
3061.00,92.39
3060.00,92.43
3059.00,92.47
3058.00,92.51
3057.00,92.52
3056.00,92.53
3055.00,92.53
3054.00,92.54
3053.00,92.56
3052.00,92.57
3051.00,92.59
3050.00,92.61
3049.00,92.64
3048.00,92.68
3047.00,92.72
3046.00,92.75
3045.00,92.77
3044.00,92.79
3043.00,92.80
3042.00,92.82
3041.00,92.85
3040.00,92.87
3039.00,92.89
3038.00,92.90
3037.00,92.92
3036.00,92.94
3035.00,92.98
3034.00,93.01
3033.00,93.04
3032.00,93.06
3031.00,93.07
3030.00,93.09
3029.00,93.10
3028.00,93.12
3027.00,93.14
3026.00,93.18
3025.00,93.22
3024.00,93.26
3023.00,93.29
3022.00,93.30
3021.00,93.31
3020.00,93.32
3019.00,93.33
3018.00,93.34
3017.00,93.35
3016.00,93.35
3015.00,93.37
3014.00,93.40
3013.00,93.44
3012.00,93.49
3011.00,93.53
3010.00,93.55
3009.00,93.56
3008.00,93.55
3007.00,93.54
3006.00,93.54
3005.00,93.55
3004.00,93.56
3003.00,93.57
3002.00,93.56
3001.00,93.54
3000.00,93.54
2999.00,93.54
2998.00,93.54
2997.00,93.55
2996.00,93.54
2995.00,93.52
2994.00,93.49
2993.00,93.47
2992.00,93.45
2991.00,93.45
2990.00,93.44
2989.00,93.43
2988.00,93.40
2987.00,93.37
2986.00,93.32
2985.00,93.28
2984.00,93.25
2983.00,93.21
2982.00,93.16
2981.00,93.11
2980.00,93.05
2979.00,93.00
2978.00,92.96
2977.00,92.91
2976.00,92.85
2975.00,92.80
2974.00,92.75
2973.00,92.70
2972.00,92.67
2971.00,92.64
2970.00,92.61
2969.00,92.57
2968.00,92.52
2967.00,92.47
2966.00,92.43
2965.00,92.38
2964.00,92.34
2963.00,92.29
2962.00,92.26
2961.00,92.23
2960.00,92.21
2959.00,92.20
2958.00,92.20
2957.00,92.20
2956.00,92.20
2955.00,92.22
2954.00,92.26
2953.00,92.31
2952.00,92.36
2951.00,92.41
2950.00,92.43
2949.00,92.43
2948.00,92.43
2947.00,92.42
2946.00,92.40
2945.00,92.37
2944.00,92.34
2943.00,92.30
2942.00,92.25
2941.00,92.20
2940.00,92.15
2939.00,92.11
2938.00,92.06
2937.00,92.02
2936.00,91.97
2935.00,91.93
2934.00,91.89
2933.00,91.84
2932.00,91.79
2931.00,91.74
2930.00,91.68
2929.00,91.61
2928.00,91.54
2927.00,91.45
2926.00,91.36
2925.00,91.28
2924.00,91.21
2923.00,91.16
2922.00,91.13
2921.00,91.12
2920.00,91.12
2919.00,91.14
2918.00,91.19
2917.00,91.28
2916.00,91.41
2915.00,91.57
2914.00,91.75
2913.00,91.92
2912.00,92.08
2911.00,92.23
2910.00,92.37
2909.00,92.50
2908.00,92.60
2907.00,92.68
2906.00,92.75
2905.00,92.81
2904.00,92.87
2903.00,92.93
2902.00,92.98
2901.00,93.02
2900.00,93.06
2899.00,93.11
2898.00,93.15
2897.00,93.19
2896.00,93.23
2895.00,93.25
2894.00,93.28
2893.00,93.30
2892.00,93.33
2891.00,93.35
2890.00,93.37
2889.00,93.39
2888.00,93.42
2887.00,93.46
2886.00,93.49
2885.00,93.50
2884.00,93.50
2883.00,93.50
2882.00,93.49
2881.00,93.47
2880.00,93.45
2879.00,93.42
2878.00,93.40
2877.00,93.39
2876.00,93.39
2875.00,93.40
2874.00,93.41
2873.00,93.42
2872.00,93.43
2871.00,93.44
2870.00,93.47
2869.00,93.52
2868.00,93.56
2867.00,93.60
2866.00,93.63
2865.00,93.64
2864.00,93.64
2863.00,93.64
2862.00,93.65
2861.00,93.65
2860.00,93.63
2859.00,93.61
2858.00,93.57
2857.00,93.52
2856.00,93.45
2855.00,93.36
2854.00,93.27
2853.00,93.19
2852.00,93.13
2851.00,93.12
2850.00,93.16
2849.00,93.25
2848.00,93.39
2847.00,93.55
2846.00,93.71
2845.00,93.86
2844.00,93.99
2843.00,94.10
2842.00,94.20
2841.00,94.29
2840.00,94.37
2839.00,94.43
2838.00,94.48
2837.00,94.53
2836.00,94.57
2835.00,94.60
2834.00,94.64
2833.00,94.66
2832.00,94.69
2831.00,94.71
2830.00,94.72
2829.00,94.73
2828.00,94.75
2827.00,94.78
2826.00,94.81
2825.00,94.84
2824.00,94.86
2823.00,94.87
2822.00,94.88
2821.00,94.89
2820.00,94.91
2819.00,94.92
2818.00,94.94
2817.00,94.95
2816.00,94.96
2815.00,94.96
2814.00,94.98
2813.00,95.00
2812.00,95.03
2811.00,95.05
2810.00,95.06
2809.00,95.07
2808.00,95.07
2807.00,95.07
2806.00,95.07
2805.00,95.08
2804.00,95.09
2803.00,95.10
2802.00,95.11
2801.00,95.12
2800.00,95.13
2799.00,95.14
2798.00,95.14
2797.00,95.14
2796.00,95.15
2795.00,95.16
2794.00,95.18
2793.00,95.20
2792.00,95.21
2791.00,95.21
2790.00,95.22
2789.00,95.24
2788.00,95.25
2787.00,95.27
2786.00,95.27
2785.00,95.28
2784.00,95.28
2783.00,95.29
2782.00,95.31
2781.00,95.33
2780.00,95.33
2779.00,95.33
2778.00,95.32
2777.00,95.33
2776.00,95.35
2775.00,95.37
2774.00,95.39
2773.00,95.40
2772.00,95.41
2771.00,95.42
2770.00,95.43
2769.00,95.43
2768.00,95.43
2767.00,95.44
2766.00,95.45
2765.00,95.46
2764.00,95.47
2763.00,95.48
2762.00,95.49
2761.00,95.50
2760.00,95.51
2759.00,95.51
2758.00,95.51
2757.00,95.51
2756.00,95.51
2755.00,95.52
2754.00,95.52
2753.00,95.53
2752.00,95.54
2751.00,95.56
2750.00,95.58
2749.00,95.60
2748.00,95.60
2747.00,95.61
2746.00,95.61
2745.00,95.61
2744.00,95.62
2743.00,95.64
2742.00,95.66
2741.00,95.67
2740.00,95.67
2739.00,95.67
2738.00,95.66
2737.00,95.65
2736.00,95.66
2735.00,95.67
2734.00,95.68
2733.00,95.69
2732.00,95.69
2731.00,95.69
2730.00,95.69
2729.00,95.70
2728.00,95.70
2727.00,95.72
2726.00,95.73
2725.00,95.74
2724.00,95.75
2723.00,95.77
2722.00,95.78
2721.00,95.80
2720.00,95.81
2719.00,95.82
2718.00,95.82
2717.00,95.83
2716.00,95.83
2715.00,95.85
2714.00,95.87
2713.00,95.89
2712.00,95.90
2711.00,95.89
2710.00,95.87
2709.00,95.87
2708.00,95.87
2707.00,95.88
2706.00,95.88
2705.00,95.88
2704.00,95.89
2703.00,95.90
2702.00,95.91
2701.00,95.92
2700.00,95.93
2699.00,95.93
2698.00,95.93
2697.00,95.93
2696.00,95.93
2695.00,95.94
2694.00,95.95
2693.00,95.95
2692.00,95.95
2691.00,95.96
2690.00,95.97
2689.00,95.98
2688.00,95.99
2687.00,95.99
2686.00,95.99
2685.00,95.99
2684.00,95.99
2683.00,95.99
2682.00,96.00
2681.00,96.01
2680.00,96.01
2679.00,96.01
2678.00,96.01
2677.00,96.00
2676.00,96.01
2675.00,96.02
2674.00,96.03
2673.00,96.03
2672.00,96.04
2671.00,96.04
2670.00,96.05
2669.00,96.07
2668.00,96.08
2667.00,96.09
2666.00,96.09
2665.00,96.08
2664.00,96.07
2663.00,96.06
2662.00,96.05
2661.00,96.05
2660.00,96.04
2659.00,96.03
2658.00,96.03
2657.00,96.03
2656.00,96.04
2655.00,96.05
2654.00,96.06
2653.00,96.06
2652.00,96.05
2651.00,96.03
2650.00,96.02
2649.00,96.02
2648.00,96.02
2647.00,96.02
2646.00,96.02
2645.00,96.01
2644.00,96.01
2643.00,96.01
2642.00,96.01
2641.00,96.01
2640.00,96.00
2639.00,96.00
2638.00,96.00
2637.00,96.01
2636.00,96.02
2635.00,96.02
2634.00,96.02
2633.00,96.02
2632.00,96.01
2631.00,96.00
2630.00,95.99
2629.00,95.97
2628.00,95.96
2627.00,95.95
2626.00,95.95
2625.00,95.95
2624.00,95.96
2623.00,95.98
2622.00,96.00
2621.00,96.03
2620.00,96.04
2619.00,96.04
2618.00,96.03
2617.00,96.03
2616.00,96.02
2615.00,96.02
2614.00,96.01
2613.00,96.01
2612.00,96.00
2611.00,96.00
2610.00,95.99
2609.00,95.98
2608.00,95.96
2607.00,95.96
2606.00,95.98
2605.00,96.00
2604.00,96.02
2603.00,96.03
2602.00,96.02
2601.00,96.01
2600.00,96.01
2599.00,96.01
2598.00,96.02
2597.00,96.02
2596.00,96.02
2595.00,96.02
2594.00,96.01
2593.00,96.00
2592.00,95.98
2591.00,95.96
2590.00,95.95
2589.00,95.96
2588.00,95.99
2587.00,96.02
2586.00,96.04
2585.00,96.05
2584.00,96.04
2583.00,96.03
2582.00,96.01
2581.00,96.00
2580.00,95.99
2579.00,95.99
2578.00,96.00
2577.00,96.01
2576.00,96.03
2575.00,96.03
2574.00,96.02
2573.00,96.00
2572.00,95.98
2571.00,95.97
2570.00,95.96
2569.00,95.96
2568.00,95.97
2567.00,95.99
2566.00,96.03
2565.00,96.07
2564.00,96.09
2563.00,96.09
2562.00,96.08
2561.00,96.06
2560.00,96.04
2559.00,96.03
2558.00,96.03
2557.00,96.05
2556.00,96.05
2555.00,96.03
2554.00,96.01
2553.00,95.99
2552.00,95.99
2551.00,96.01
2550.00,96.03
2549.00,96.05
2548.00,96.05
2547.00,96.04
2546.00,96.03
2545.00,96.02
2544.00,96.02
2543.00,96.02
2542.00,96.03
2541.00,96.05
2540.00,96.07
2539.00,96.07
2538.00,96.08
2537.00,96.10
2536.00,96.12
2535.00,96.13
2534.00,96.13
2533.00,96.13
2532.00,96.13
2531.00,96.14
2530.00,96.14
2529.00,96.13
2528.00,96.11
2527.00,96.10
2526.00,96.11
2525.00,96.12
2524.00,96.13
2523.00,96.14
2522.00,96.13
2521.00,96.13
2520.00,96.14
2519.00,96.14
2518.00,96.13
2517.00,96.11
2516.00,96.08
2515.00,96.07
2514.00,96.06
2513.00,96.07
2512.00,96.09
2511.00,96.11
2510.00,96.12
2509.00,96.13
2508.00,96.12
2507.00,96.11
2506.00,96.11
2505.00,96.10
2504.00,96.09
2503.00,96.09
2502.00,96.10
2501.00,96.10
2500.00,96.09
2499.00,96.07
2498.00,96.07
2497.00,96.09
2496.00,96.13
2495.00,96.17
2494.00,96.20
2493.00,96.21
2492.00,96.20
2491.00,96.19
2490.00,96.18
2489.00,96.17
2488.00,96.17
2487.00,96.18
2486.00,96.18
2485.00,96.19
2484.00,96.20
2483.00,96.21
2482.00,96.20
2481.00,96.19
2480.00,96.17
2479.00,96.16
2478.00,96.16
2477.00,96.17
2476.00,96.17
2475.00,96.18
2474.00,96.18
2473.00,96.17
2472.00,96.17
2471.00,96.17
2470.00,96.19
2469.00,96.21
2468.00,96.23
2467.00,96.22
2466.00,96.20
2465.00,96.19
2464.00,96.19
2463.00,96.20
2462.00,96.19
2461.00,96.19
2460.00,96.20
2459.00,96.21
2458.00,96.23
2457.00,96.24
2456.00,96.25
2455.00,96.26
2454.00,96.27
2453.00,96.29
2452.00,96.32
2451.00,96.32
2450.00,96.30
2449.00,96.27
2448.00,96.25
2447.00,96.24
2446.00,96.25
2445.00,96.26
2444.00,96.27
2443.00,96.27
2442.00,96.26
2441.00,96.27
2440.00,96.28
2439.00,96.29
2438.00,96.29
2437.00,96.27
2436.00,96.24
2435.00,96.23
2434.00,96.24
2433.00,96.26
2432.00,96.27
2431.00,96.29
2430.00,96.30
2429.00,96.32
2428.00,96.34
2427.00,96.35
2426.00,96.35
2425.00,96.34
2424.00,96.34
2423.00,96.33
2422.00,96.34
2421.00,96.35
2420.00,96.36
2419.00,96.37
2418.00,96.37
2417.00,96.36
2416.00,96.36
2415.00,96.37
2414.00,96.38
2413.00,96.37
2412.00,96.36
2411.00,96.35
2410.00,96.35
2409.00,96.36
2408.00,96.37
2407.00,96.39
2406.00,96.40
2405.00,96.42
2404.00,96.45
2403.00,96.48
2402.00,96.49
2401.00,96.48
2400.00,96.47
2399.00,96.45
2398.00,96.44
2397.00,96.45
2396.00,96.46
2395.00,96.47
2394.00,96.47
2393.00,96.47
2392.00,96.48
2391.00,96.49
2390.00,96.50
2389.00,96.51
2388.00,96.50
2387.00,96.48
2386.00,96.47
2385.00,96.47
2384.00,96.48
2383.00,96.49
2382.00,96.51
2381.00,96.53
2380.00,96.55
2379.00,96.56
2378.00,96.56
2377.00,96.53
2376.00,96.49
2375.00,96.46
2374.00,96.46
2373.00,96.45
2372.00,96.43
2371.00,96.41
2370.00,96.41
2369.00,96.46
2368.00,96.53
2367.00,96.61
2366.00,96.67
2365.00,96.70
2364.00,96.68
2363.00,96.60
2362.00,96.49
2361.00,96.38
2360.00,96.33
2359.00,96.35
2358.00,96.40
2357.00,96.45
2356.00,96.49
2355.00,96.52
2354.00,96.52
2353.00,96.50
2352.00,96.48
2351.00,96.49
2350.00,96.54
2349.00,96.57
2348.00,96.58
2347.00,96.57
2346.00,96.55
2345.00,96.54
2344.00,96.55
2343.00,96.60
2342.00,96.64
2341.00,96.65
2340.00,96.62
2339.00,96.57
2338.00,96.52
2337.00,96.48
2336.00,96.44
2335.00,96.42
2334.00,96.42
2333.00,96.44
2332.00,96.47
2331.00,96.49
2330.00,96.51
2329.00,96.53
2328.00,96.55
2327.00,96.56
2326.00,96.56
2325.00,96.55
2324.00,96.54
2323.00,96.52
2322.00,96.50
2321.00,96.48
2320.00,96.48
2319.00,96.49
2318.00,96.51
2317.00,96.53
2316.00,96.53
2315.00,96.52
2314.00,96.48
2313.00,96.43
2312.00,96.39
2311.00,96.37
2310.00,96.36
2309.00,96.36
2308.00,96.35
2307.00,96.36
2306.00,96.38
2305.00,96.40
2304.00,96.41
2303.00,96.40
2302.00,96.37
2301.00,96.33
2300.00,96.30
2299.00,96.30
2298.00,96.31
2297.00,96.33
2296.00,96.34
2295.00,96.34
2294.00,96.35
2293.00,96.34
2292.00,96.32
2291.00,96.29
2290.00,96.26
2289.00,96.24
2288.00,96.22
2287.00,96.22
2286.00,96.21
2285.00,96.20
2284.00,96.19
2283.00,96.18
2282.00,96.17
2281.00,96.16
2280.00,96.14
2279.00,96.13
2278.00,96.14
2277.00,96.15
2276.00,96.14
2275.00,96.12
2274.00,96.11
2273.00,96.10
2272.00,96.11
2271.00,96.12
2270.00,96.13
2269.00,96.12
2268.00,96.10
2267.00,96.08
2266.00,96.07
2265.00,96.07
2264.00,96.08
2263.00,96.08
2262.00,96.09
2261.00,96.07
2260.00,96.05
2259.00,96.02
2258.00,96.00
2257.00,95.98
2256.00,95.97
2255.00,95.97
2254.00,95.95
2253.00,95.93
2252.00,95.92
2251.00,95.92
2250.00,95.92
2249.00,95.91
2248.00,95.91
2247.00,95.91
2246.00,95.93
2245.00,95.96
2244.00,95.98
2243.00,96.01
2242.00,96.03
2241.00,96.03
2240.00,96.01
2239.00,95.98
2238.00,95.94
2237.00,95.91
2236.00,95.87
2235.00,95.85
2234.00,95.83
2233.00,95.82
2232.00,95.80
2231.00,95.79
2230.00,95.78
2229.00,95.78
2228.00,95.80
2227.00,95.82
2226.00,95.83
2225.00,95.83
2224.00,95.81
2223.00,95.79
2222.00,95.76
2221.00,95.73
2220.00,95.71
2219.00,95.68
2218.00,95.65
2217.00,95.61
2216.00,95.60
2215.00,95.62
2214.00,95.67
2213.00,95.71
2212.00,95.74
2211.00,95.74
2210.00,95.72
2209.00,95.68
2208.00,95.64
2207.00,95.60
2206.00,95.57
2205.00,95.55
2204.00,95.56
2203.00,95.61
2202.00,95.67
2201.00,95.70
2200.00,95.69
2199.00,95.64
2198.00,95.59
2197.00,95.55
2196.00,95.52
2195.00,95.51
2194.00,95.50
2193.00,95.49
2192.00,95.48
2191.00,95.47
2190.00,95.45
2189.00,95.42
2188.00,95.38
2187.00,95.37
2186.00,95.40
2185.00,95.45
2184.00,95.47
2183.00,95.44
2182.00,95.38
2181.00,95.33
2180.00,95.31
2179.00,95.30
2178.00,95.31
2177.00,95.32
2176.00,95.34
2175.00,95.35
2174.00,95.35
2173.00,95.34
2172.00,95.34
2171.00,95.36
2170.00,95.35
2169.00,95.32
2168.00,95.29
2167.00,95.27
2166.00,95.27
2165.00,95.28
2164.00,95.28
2163.00,95.26
2162.00,95.22
2161.00,95.17
2160.00,95.14
2159.00,95.15
2158.00,95.19
2157.00,95.27
2156.00,95.39
2155.00,95.51
2154.00,95.59
2153.00,95.62
2152.00,95.62
2151.00,95.63
2150.00,95.68
2149.00,95.72
2148.00,95.76
2147.00,95.77
2146.00,95.78
2145.00,95.80
2144.00,95.82
2143.00,95.83
2142.00,95.83
2141.00,95.84
2140.00,95.87
2139.00,95.90
2138.00,95.90
2137.00,95.89
2136.00,95.89
2135.00,95.92
2134.00,95.94
2133.00,95.95
2132.00,95.95
2131.00,95.95
2130.00,95.98
2129.00,96.02
2128.00,96.07
2127.00,96.10
2126.00,96.11
2125.00,96.10
2124.00,96.10
2123.00,96.12
2122.00,96.13
2121.00,96.11
2120.00,96.08
2119.00,96.07
2118.00,96.06
2117.00,96.05
2116.00,96.05
2115.00,96.06
2114.00,96.10
2113.00,96.13
2112.00,96.13
2111.00,96.11
2110.00,96.09
2109.00,96.07
2108.00,96.08
2107.00,96.10
2106.00,96.11
2105.00,96.11
2104.00,96.11
2103.00,96.11
2102.00,96.12
2101.00,96.10
2100.00,96.07
2099.00,96.03
2098.00,95.99
2097.00,95.98
2096.00,96.00
2095.00,96.06
2094.00,96.11
2093.00,96.13
2092.00,96.13
2091.00,96.13
2090.00,96.13
2089.00,96.11
2088.00,96.10
2087.00,96.08
2086.00,96.07
2085.00,96.07
2084.00,96.06
2083.00,96.06
2082.00,96.07
2081.00,96.07
2080.00,96.08
2079.00,96.08
2078.00,96.07
2077.00,96.04
2076.00,96.02
2075.00,96.00
2074.00,96.00
2073.00,96.00
2072.00,96.01
2071.00,96.02
2070.00,96.02
2069.00,96.02
2068.00,96.01
2067.00,96.00
2066.00,96.00
2065.00,96.02
2064.00,96.05
2063.00,96.07
2062.00,96.06
2061.00,96.04
2060.00,96.02
2059.00,95.99
2058.00,95.95
2057.00,95.93
2056.00,95.94
2055.00,95.97
2054.00,95.99
2053.00,95.98
2052.00,95.94
2051.00,95.89
2050.00,95.83
2049.00,95.74
2048.00,95.67
2047.00,95.67
2046.00,95.71
2045.00,95.74
2044.00,95.72
2043.00,95.69
2042.00,95.70
2041.00,95.73
2040.00,95.73
2039.00,95.67
2038.00,95.58
2037.00,95.52
2036.00,95.52
2035.00,95.56
2034.00,95.60
2033.00,95.60
2032.00,95.58
2031.00,95.56
2030.00,95.54
2029.00,95.52
2028.00,95.50
2027.00,95.48
2026.00,95.46
2025.00,95.46
2024.00,95.48
2023.00,95.51
2022.00,95.53
2021.00,95.54
2020.00,95.56
2019.00,95.61
2018.00,95.67
2017.00,95.68
2016.00,95.64
2015.00,95.57
2014.00,95.52
2013.00,95.53
2012.00,95.58
2011.00,95.64
2010.00,95.66
2009.00,95.64
2008.00,95.62
2007.00,95.62
2006.00,95.63
2005.00,95.64
2004.00,95.68
2003.00,95.75
2002.00,95.83
2001.00,95.89
2000.00,95.90
1999.00,95.89
1998.00,95.88
1997.00,95.89
1996.00,95.90
1995.00,95.91
1994.00,95.89
1993.00,95.84
1992.00,95.78
1991.00,95.75
1990.00,95.75
1989.00,95.77
1988.00,95.80
1987.00,95.84
1986.00,95.89
1985.00,95.91
1984.00,95.89
1983.00,95.84
1982.00,95.78
1981.00,95.72
1980.00,95.69
1979.00,95.68
1978.00,95.69
1977.00,95.70
1976.00,95.72
1975.00,95.77
1974.00,95.83
1973.00,95.88
1972.00,95.91
1971.00,95.93
1970.00,95.93
1969.00,95.91
1968.00,95.89
1967.00,95.87
1966.00,95.87
1965.00,95.89
1964.00,95.95
1963.00,96.03
1962.00,96.11
1961.00,96.15
1960.00,96.15
1959.00,96.15
1958.00,96.16
1957.00,96.17
1956.00,96.17
1955.00,96.19
1954.00,96.19
1953.00,96.20
1952.00,96.22
1951.00,96.26
1950.00,96.28
1949.00,96.29
1948.00,96.30
1947.00,96.32
1946.00,96.34
1945.00,96.34
1944.00,96.32
1943.00,96.32
1942.00,96.35
1941.00,96.39
1940.00,96.44
1939.00,96.48
1938.00,96.52
1937.00,96.53
1936.00,96.53
1935.00,96.53
1934.00,96.54
1933.00,96.54
1932.00,96.53
1931.00,96.52
1930.00,96.50
1929.00,96.48
1928.00,96.48
1927.00,96.50
1926.00,96.54
1925.00,96.56
1924.00,96.58
1923.00,96.61
1922.00,96.64
1921.00,96.66
1920.00,96.67
1919.00,96.66
1918.00,96.66
1917.00,96.65
1916.00,96.63
1915.00,96.63
1914.00,96.64
1913.00,96.65
1912.00,96.68
1911.00,96.70
1910.00,96.71
1909.00,96.71
1908.00,96.69
1907.00,96.69
1906.00,96.71
1905.00,96.72
1904.00,96.73
1903.00,96.73
1902.00,96.73
1901.00,96.72
1900.00,96.72
1899.00,96.73
1898.00,96.75
1897.00,96.78
1896.00,96.81
1895.00,96.83
1894.00,96.83
1893.00,96.83
1892.00,96.84
1891.00,96.85
1890.00,96.87
1889.00,96.87
1888.00,96.86
1887.00,96.84
1886.00,96.83
1885.00,96.82
1884.00,96.82
1883.00,96.85
1882.00,96.87
1881.00,96.88
1880.00,96.86
1879.00,96.84
1878.00,96.81
1877.00,96.80
1876.00,96.82
1875.00,96.86
1874.00,96.89
1873.00,96.90
1872.00,96.88
1871.00,96.86
1870.00,96.85
1869.00,96.87
1868.00,96.89
1867.00,96.91
1866.00,96.91
1865.00,96.91
1864.00,96.90
1863.00,96.89
1862.00,96.89
1861.00,96.91
1860.00,96.93
1859.00,96.96
1858.00,96.99
1857.00,96.99
1856.00,96.99
1855.00,96.99
1854.00,96.99
1853.00,96.99
1852.00,97.00
1851.00,97.01
1850.00,97.03
1849.00,97.04
1848.00,97.04
1847.00,97.03
1846.00,97.03
1845.00,97.04
1844.00,97.05
1843.00,97.06
1842.00,97.05
1841.00,97.03
1840.00,97.00
1839.00,97.00
1838.00,97.00
1837.00,97.02
1836.00,97.04
1835.00,97.06
1834.00,97.06
1833.00,97.05
1832.00,97.03
1831.00,97.04
1830.00,97.06
1829.00,97.09
1828.00,97.10
1827.00,97.10
1826.00,97.09
1825.00,97.08
1824.00,97.06
1823.00,97.05
1822.00,97.06
1821.00,97.08
1820.00,97.09
1819.00,97.10
1818.00,97.11
1817.00,97.12
1816.00,97.12
1815.00,97.13
1814.00,97.12
1813.00,97.11
1812.00,97.11
1811.00,97.12
1810.00,97.15
1809.00,97.17
1808.00,97.18
1807.00,97.17
1806.00,97.16
1805.00,97.15
1804.00,97.15
1803.00,97.15
1802.00,97.16
1801.00,97.16
1800.00,97.15
1799.00,97.14
1798.00,97.15
1797.00,97.15
1796.00,97.16
1795.00,97.17
1794.00,97.18
1793.00,97.18
1792.00,97.17
1791.00,97.16
1790.00,97.16
1789.00,97.16
1788.00,97.16
1787.00,97.15
1786.00,97.14
1785.00,97.14
1784.00,97.13
1783.00,97.13
1782.00,97.12
1781.00,97.11
1780.00,97.11
1779.00,97.11
1778.00,97.11
1777.00,97.11
1776.00,97.10
1775.00,97.10
1774.00,97.09
1773.00,97.10
1772.00,97.10
1771.00,97.11
1770.00,97.12
1769.00,97.12
1768.00,97.12
1767.00,97.12
1766.00,97.11
1765.00,97.08
1764.00,97.05
1763.00,97.03
1762.00,97.03
1761.00,97.03
1760.00,97.01
1759.00,96.98
1758.00,96.97
1757.00,96.97
1756.00,96.97
1755.00,96.96
1754.00,96.94
1753.00,96.91
1752.00,96.88
1751.00,96.87
1750.00,96.87
1749.00,96.85
1748.00,96.82
1747.00,96.80
1746.00,96.78
1745.00,96.76
1744.00,96.73
1743.00,96.72
1742.00,96.70
1741.00,96.67
1740.00,96.63
1739.00,96.60
1738.00,96.58
1737.00,96.55
1736.00,96.50
1735.00,96.47
1734.00,96.47
1733.00,96.46
1732.00,96.44
1731.00,96.43
1730.00,96.42
1729.00,96.38
1728.00,96.33
1727.00,96.27
1726.00,96.21
1725.00,96.16
1724.00,96.10
1723.00,96.08
1722.00,96.07
1721.00,96.04
1720.00,95.98
1719.00,95.91
1718.00,95.84
1717.00,95.78
1716.00,95.71
1715.00,95.66
1714.00,95.61
1713.00,95.53
1712.00,95.41
1711.00,95.27
1710.00,95.15
1709.00,95.03
1708.00,94.91
1707.00,94.78
1706.00,94.61
1705.00,94.42
1704.00,94.24
1703.00,94.08
1702.00,93.92
1701.00,93.65
1700.00,93.25
1699.00,92.91
1698.00,92.64
1697.00,92.37
1696.00,92.04
1695.00,91.73
1694.00,91.47
1693.00,91.24
1692.00,91.00
1691.00,90.74
1690.00,90.47
1689.00,90.20
1688.00,89.96
1687.00,89.74
1686.00,89.52
1685.00,89.21
1684.00,88.84
1683.00,88.53
1682.00,88.30
1681.00,88.08
1680.00,87.85
1679.00,87.63
1678.00,87.43
1677.00,87.20
1676.00,86.92
1675.00,86.62
1674.00,86.37
1673.00,86.17
1672.00,85.97
1671.00,85.73
1670.00,85.46
1669.00,85.17
1668.00,84.89
1667.00,84.65
1666.00,84.44
1665.00,84.22
1664.00,83.95
1663.00,83.65
1662.00,83.34
1661.00,83.06
1660.00,82.79
1659.00,82.55
1658.00,82.32
1657.00,82.10
1656.00,81.88
1655.00,81.63
1654.00,81.29
1653.00,80.85
1652.00,80.52
1651.00,80.37
1650.00,80.26
1649.00,80.11
1648.00,79.90
1647.00,79.66
1646.00,79.49
1645.00,79.37
1644.00,79.28
1643.00,79.20
1642.00,79.13
1641.00,79.06
1640.00,79.00
1639.00,78.95
1638.00,78.91
1637.00,78.86
1636.00,78.78
1635.00,78.70
1634.00,78.66
1633.00,78.64
1632.00,78.63
1631.00,78.63
1630.00,78.64
1629.00,78.67
1628.00,78.72
1627.00,78.78
1626.00,78.86
1625.00,78.94
1624.00,79.05
1623.00,79.19
1622.00,79.36
1621.00,79.54
1620.00,79.70
1619.00,79.87
1618.00,80.09
1617.00,80.36
1616.00,80.66
1615.00,80.95
1614.00,81.21
1613.00,81.47
1612.00,81.74
1611.00,82.03
1610.00,82.31
1609.00,82.59
1608.00,82.87
1607.00,83.14
1606.00,83.40
1605.00,83.66
1604.00,83.91
1603.00,84.14
1602.00,84.36
1601.00,84.57
1600.00,84.78
1599.00,84.97
1598.00,85.14
1597.00,85.29
1596.00,85.43
1595.00,85.55
1594.00,85.67
1593.00,85.78
1592.00,85.90
1591.00,86.01
1590.00,86.09
1589.00,86.16
1588.00,86.21
1587.00,86.24
1586.00,86.23
1585.00,86.21
1584.00,86.18
1583.00,86.13
1582.00,86.07
1581.00,86.00
1580.00,85.94
1579.00,85.86
1578.00,85.75
1577.00,85.65
1576.00,85.57
1575.00,85.51
1574.00,85.46
1573.00,85.41
1572.00,85.36
1571.00,85.30
1570.00,85.21
1569.00,85.09
1568.00,84.98
1567.00,84.86
1566.00,84.73
1565.00,84.59
1564.00,84.47
1563.00,84.36
1562.00,84.26
1561.00,84.13
1560.00,83.91
1559.00,83.58
1558.00,83.28
1557.00,83.09
1556.00,82.92
1555.00,82.71
1554.00,82.47
1553.00,82.24
1552.00,82.03
1551.00,81.81
1550.00,81.58
1549.00,81.35
1548.00,81.16
1547.00,80.98
1546.00,80.78
1545.00,80.57
1544.00,80.38
1543.00,80.21
1542.00,80.04
1541.00,79.83
1540.00,79.62
1539.00,79.47
1538.00,79.40
1537.00,79.40
1536.00,79.41
1535.00,79.41
1534.00,79.41
1533.00,79.39
1532.00,79.39
1531.00,79.41
1530.00,79.42
1529.00,79.43
1528.00,79.45
1527.00,79.48
1526.00,79.51
1525.00,79.53
1524.00,79.55
1523.00,79.56
1522.00,79.54
1521.00,79.52
1520.00,79.52
1519.00,79.52
1518.00,79.52
1517.00,79.51
1516.00,79.53
1515.00,79.58
1514.00,79.66
1513.00,79.76
1512.00,79.90
1511.00,80.03
1510.00,80.15
1509.00,80.27
1508.00,80.46
1507.00,80.78
1506.00,81.13
1505.00,81.40
1504.00,81.60
1503.00,81.78
1502.00,81.98
1501.00,82.21
1500.00,82.47
1499.00,82.74
1498.00,83.01
1497.00,83.31
1496.00,83.62
1495.00,83.92
1494.00,84.19
1493.00,84.44
1492.00,84.68
1491.00,84.95
1490.00,85.25
1489.00,85.55
1488.00,85.82
1487.00,86.06
1486.00,86.27
1485.00,86.44
1484.00,86.57
1483.00,86.68
1482.00,86.78
1481.00,86.86
1480.00,86.91
1479.00,86.92
1478.00,86.91
1477.00,86.88
1476.00,86.83
1475.00,86.76
1474.00,86.66
1473.00,86.54
1472.00,86.43
1471.00,86.35
1470.00,86.31
1469.00,86.27
1468.00,86.22
1467.00,86.17
1466.00,86.13
1465.00,86.11
1464.00,86.09
1463.00,86.08
1462.00,86.07
1461.00,86.06
1460.00,86.02
1459.00,85.96
1458.00,85.86
1457.00,85.74
1456.00,85.66
1455.00,85.61
1454.00,85.58
1453.00,85.56
1452.00,85.53
1451.00,85.52
1450.00,85.52
1449.00,85.53
1448.00,85.54
1447.00,85.57
1446.00,85.60
1445.00,85.64
1444.00,85.68
1443.00,85.73
1442.00,85.79
1441.00,85.85
1440.00,85.92
1439.00,85.97
1438.00,86.03
1437.00,86.10
1436.00,86.18
1435.00,86.26
1434.00,86.34
1433.00,86.43
1432.00,86.52
1431.00,86.62
1430.00,86.72
1429.00,86.81
1428.00,86.87
1427.00,86.91
1426.00,86.93
1425.00,86.93
1424.00,86.91
1423.00,86.90
1422.00,86.89
1421.00,86.87
1420.00,86.84
1419.00,86.80
1418.00,86.76
1417.00,86.73
1416.00,86.70
1415.00,86.66
1414.00,86.62
1413.00,86.57
1412.00,86.54
1411.00,86.51
1410.00,86.48
1409.00,86.45
1408.00,86.40
1407.00,86.35
1406.00,86.30
1405.00,86.26
1404.00,86.22
1403.00,86.18
1402.00,86.14
1401.00,86.10
1400.00,86.06
1399.00,86.04
1398.00,86.02
1397.00,86.00
1396.00,85.98
1395.00,85.96
1394.00,85.95
1393.00,85.95
1392.00,85.96
1391.00,85.97
1390.00,85.98
1389.00,85.99
1388.00,86.00
1387.00,86.03
1386.00,86.08
1385.00,86.13
1384.00,86.19
1383.00,86.25
1382.00,86.31
1381.00,86.38
1380.00,86.45
1379.00,86.53
1378.00,86.61
1377.00,86.68
1376.00,86.75
1375.00,86.81
1374.00,86.88
1373.00,86.95
1372.00,86.99
1371.00,87.03
1370.00,87.06
1369.00,87.10
1368.00,87.15
1367.00,87.21
1366.00,87.27
1365.00,87.33
1364.00,87.40
1363.00,87.48
1362.00,87.56
1361.00,87.63
1360.00,87.68
1359.00,87.71
1358.00,87.74
1357.00,87.77
1356.00,87.79
1355.00,87.81
1354.00,87.83
1353.00,87.83
1352.00,87.82
1351.00,87.81
1350.00,87.80
1349.00,87.79
1348.00,87.78
1347.00,87.77
1346.00,87.77
1345.00,87.78
1344.00,87.77
1343.00,87.77
1342.00,87.75
1341.00,87.74
1340.00,87.75
1339.00,87.77
1338.00,87.80
1337.00,87.84
1336.00,87.86
1335.00,87.88
1334.00,87.90
1333.00,87.92
1332.00,87.95
1331.00,87.97
1330.00,87.99
1329.00,88.00
1328.00,88.00
1327.00,88.00
1326.00,87.98
1325.00,87.94
1324.00,87.91
1323.00,87.88
1322.00,87.85
1321.00,87.82
1320.00,87.79
1319.00,87.77
1318.00,87.74
1317.00,87.73
1316.00,87.71
1315.00,87.69
1314.00,87.68
1313.00,87.68
1312.00,87.68
1311.00,87.68
1310.00,87.68
1309.00,87.67
1308.00,87.67
1307.00,87.67
1306.00,87.66
1305.00,87.65
1304.00,87.64
1303.00,87.63
1302.00,87.63
1301.00,87.65
1300.00,87.67
1299.00,87.69
1298.00,87.70
1297.00,87.71
1296.00,87.70
1295.00,87.69
1294.00,87.69
1293.00,87.70
1292.00,87.71
1291.00,87.71
1290.00,87.71
1289.00,87.71
1288.00,87.71
1287.00,87.72
1286.00,87.74
1285.00,87.74
1284.00,87.73
1283.00,87.70
1282.00,87.68
1281.00,87.66
1280.00,87.66
1279.00,87.66
1278.00,87.66
1277.00,87.65
1276.00,87.63
1275.00,87.60
1274.00,87.57
1273.00,87.54
1272.00,87.52
1271.00,87.51
1270.00,87.50
1269.00,87.49
1268.00,87.47
1267.00,87.43
1266.00,87.40
1265.00,87.37
1264.00,87.34
1263.00,87.30
1262.00,87.25
1261.00,87.21
1260.00,87.16
1259.00,87.12
1258.00,87.07
1257.00,87.01
1256.00,86.95
1255.00,86.88
1254.00,86.83
1253.00,86.77
1252.00,86.71
1251.00,86.65
1250.00,86.60
1249.00,86.55
1248.00,86.51
1247.00,86.47
1246.00,86.42
1245.00,86.35
1244.00,86.29
1243.00,86.24
1242.00,86.20
1241.00,86.17
1240.00,86.13
1239.00,86.10
1238.00,86.08
1237.00,86.07
1236.00,86.08
1235.00,86.09
1234.00,86.11
1233.00,86.13
1232.00,86.14
1231.00,86.15
1230.00,86.18
1229.00,86.22
1228.00,86.26
1227.00,86.31
1226.00,86.36
1225.00,86.42
1224.00,86.51
1223.00,86.59
1222.00,86.68
1221.00,86.76
1220.00,86.84
1219.00,86.92
1218.00,86.99
1217.00,87.05
1216.00,87.11
1215.00,87.18
1214.00,87.27
1213.00,87.35
1212.00,87.41
1211.00,87.46
1210.00,87.50
1209.00,87.54
1208.00,87.59
1207.00,87.63
1206.00,87.67
1205.00,87.71
1204.00,87.76
1203.00,87.81
1202.00,87.86
1201.00,87.91
1200.00,87.95
1199.00,87.99
1198.00,88.03
1197.00,88.07
1196.00,88.13
1195.00,88.18
1194.00,88.22
1193.00,88.25
1192.00,88.28
1191.00,88.29
1190.00,88.29
1189.00,88.31
1188.00,88.35
1187.00,88.40
1186.00,88.46
1185.00,88.52
1184.00,88.55
1183.00,88.56
1182.00,88.57
1181.00,88.58
1180.00,88.59
1179.00,88.59
1178.00,88.57
1177.00,88.54
1176.00,88.51
1175.00,88.49
1174.00,88.48
1173.00,88.51
1172.00,88.55
1171.00,88.59
1170.00,88.64
1169.00,88.69
1168.00,88.73
1167.00,88.75
1166.00,88.78
1165.00,88.80
1164.00,88.82
1163.00,88.84
1162.00,88.86
1161.00,88.91
1160.00,88.96
1159.00,88.99
1158.00,89.01
1157.00,89.01
1156.00,89.02
1155.00,89.04
1154.00,89.10
1153.00,89.18
1152.00,89.27
1151.00,89.36
1150.00,89.42
1149.00,89.47
1148.00,89.52
1147.00,89.57
1146.00,89.63
1145.00,89.69
1144.00,89.75
1143.00,89.79
1142.00,89.82
1141.00,89.85
1140.00,89.87
1139.00,89.89
1138.00,89.90
1137.00,89.90
1136.00,89.90
1135.00,89.88
1134.00,89.85
1133.00,89.81
1132.00,89.79
1131.00,89.77
1130.00,89.75
1129.00,89.73
1128.00,89.70
1127.00,89.69
1126.00,89.70
1125.00,89.72
1124.00,89.74
1123.00,89.73
1122.00,89.73
1121.00,89.73
1120.00,89.75
1119.00,89.76
1118.00,89.74
1117.00,89.70
1116.00,89.65
1115.00,89.61
1114.00,89.59
1113.00,89.57
1112.00,89.55
1111.00,89.53
1110.00,89.51
1109.00,89.53
1108.00,89.57
1107.00,89.63
1106.00,89.66
1105.00,89.66
1104.00,89.65
1103.00,89.63
1102.00,89.63
1101.00,89.63
1100.00,89.63
1099.00,89.60
1098.00,89.57
1097.00,89.53
1096.00,89.50
1095.00,89.48
1094.00,89.46
1093.00,89.45
1092.00,89.43
1091.00,89.42
1090.00,89.42
1089.00,89.43
1088.00,89.43
1087.00,89.40
1086.00,89.36
1085.00,89.30
1084.00,89.25
1083.00,89.19
1082.00,89.15
1081.00,89.13
1080.00,89.11
1079.00,89.10
1078.00,89.08
1077.00,89.06
1076.00,89.04
1075.00,89.00
1074.00,88.97
1073.00,88.95
1072.00,88.94
1071.00,88.95
1070.00,88.98
1069.00,89.02
1068.00,89.08
1067.00,89.13
1066.00,89.18
1065.00,89.22
1064.00,89.25
1063.00,89.27
1062.00,89.29
1061.00,89.30
1060.00,89.30
1059.00,89.31
1058.00,89.31
1057.00,89.31
1056.00,89.30
1055.00,89.29
1054.00,89.27
1053.00,89.27
1052.00,89.28
1051.00,89.29
1050.00,89.31
1049.00,89.31
1048.00,89.30
1047.00,89.27
1046.00,89.23
1045.00,89.19
1044.00,89.16
1043.00,89.15
1042.00,89.17
1041.00,89.22
1040.00,89.29
1039.00,89.37
1038.00,89.46
1037.00,89.57
1036.00,89.68
1035.00,89.77
1034.00,89.84
1033.00,89.90
1032.00,89.96
1031.00,90.02
1030.00,90.09
1029.00,90.15
1028.00,90.21
1027.00,90.27
1026.00,90.35
1025.00,90.43
1024.00,90.49
1023.00,90.53
1022.00,90.56
1021.00,90.60
1020.00,90.65
1019.00,90.69
1018.00,90.74
1017.00,90.79
1016.00,90.86
1015.00,90.93
1014.00,91.00
1013.00,91.07
1012.00,91.15
1011.00,91.22
1010.00,91.28
1009.00,91.33
1008.00,91.38
1007.00,91.41
1006.00,91.44
1005.00,91.47
1004.00,91.51
1003.00,91.55
1002.00,91.59
1001.00,91.62
1000.00,91.65
999.00,91.68
998.00,91.70
997.00,91.71
996.00,91.72
995.00,91.73
994.00,91.73
993.00,91.75
992.00,91.78
991.00,91.83
990.00,91.89
989.00,91.93
988.00,91.96
987.00,91.97
986.00,91.97
985.00,91.98
984.00,91.98
983.00,92.00
982.00,92.02
981.00,92.05
980.00,92.09
979.00,92.11
978.00,92.11
977.00,92.09
976.00,92.06
975.00,92.06
974.00,92.08
973.00,92.11
972.00,92.16
971.00,92.20
970.00,92.22
969.00,92.23
968.00,92.24
967.00,92.24
966.00,92.26
965.00,92.28
964.00,92.29
963.00,92.30
962.00,92.30
961.00,92.32
960.00,92.35
959.00,92.38
958.00,92.42
957.00,92.45
956.00,92.47
955.00,92.46
954.00,92.43
953.00,92.41
952.00,92.41
951.00,92.41
950.00,92.41
949.00,92.41
948.00,92.41
947.00,92.41
946.00,92.40
945.00,92.39
944.00,92.37
943.00,92.37
942.00,92.36
941.00,92.36
940.00,92.34
939.00,92.31
938.00,92.29
937.00,92.28
936.00,92.28
935.00,92.26
934.00,92.24
933.00,92.20
932.00,92.18
931.00,92.17
930.00,92.17
929.00,92.19
928.00,92.20
927.00,92.20
926.00,92.20
925.00,92.20
924.00,92.21
923.00,92.23
922.00,92.26
921.00,92.29
920.00,92.30
919.00,92.30
918.00,92.30
917.00,92.30
916.00,92.32
915.00,92.34
914.00,92.37
913.00,92.38
912.00,92.39
911.00,92.39
910.00,92.39
909.00,92.38
908.00,92.39
907.00,92.40
906.00,92.41
905.00,92.41
904.00,92.40
903.00,92.37
902.00,92.35
901.00,92.34
900.00,92.33
899.00,92.31
898.00,92.29
897.00,92.25
896.00,92.23
895.00,92.23
894.00,92.24
893.00,92.23
892.00,92.21
891.00,92.18
890.00,92.16
889.00,92.15
888.00,92.16
887.00,92.17
886.00,92.19
885.00,92.21
884.00,92.21
883.00,92.21
882.00,92.19
881.00,92.17
880.00,92.15
879.00,92.13
878.00,92.11
877.00,92.10
876.00,92.08
875.00,92.04
874.00,91.98
873.00,91.94
872.00,91.92
871.00,91.91
870.00,91.92
869.00,91.95
868.00,91.98
867.00,91.99
866.00,91.98
865.00,91.94
864.00,91.91
863.00,91.88
862.00,91.86
861.00,91.84
860.00,91.81
859.00,91.76
858.00,91.69
857.00,91.63
856.00,91.61
855.00,91.60
854.00,91.60
853.00,91.58
852.00,91.55
851.00,91.51
850.00,91.47
849.00,91.42
848.00,91.39
847.00,91.37
846.00,91.35
845.00,91.32
844.00,91.28
843.00,91.23
842.00,91.20
841.00,91.16
840.00,91.12
839.00,91.07
838.00,91.03
837.00,91.01
836.00,91.00
835.00,90.97
834.00,90.92
833.00,90.87
832.00,90.83
831.00,90.79
830.00,90.76
829.00,90.71
828.00,90.66
827.00,90.61
826.00,90.58
825.00,90.59
824.00,90.62
823.00,90.66
822.00,90.66
821.00,90.61
820.00,90.53
819.00,90.45
818.00,90.39
817.00,90.33
816.00,90.28
815.00,90.22
814.00,90.17
813.00,90.14
812.00,90.11
811.00,90.09
810.00,90.06
809.00,90.01
808.00,89.96
807.00,89.92
806.00,89.90
805.00,89.89
804.00,89.88
803.00,89.87
802.00,89.83
801.00,89.75
800.00,89.65
799.00,89.54
798.00,89.45
797.00,89.39
796.00,89.37
795.00,89.34
794.00,89.30
793.00,89.24
792.00,89.19
791.00,89.17
790.00,89.17
789.00,89.15
788.00,89.11
787.00,89.05
786.00,88.98
785.00,88.90
784.00,88.83
783.00,88.76
782.00,88.72
781.00,88.69
780.00,88.67
779.00,88.63
778.00,88.57
777.00,88.50
776.00,88.44
775.00,88.39
774.00,88.36
773.00,88.33
772.00,88.31
771.00,88.29
770.00,88.26
769.00,88.21
768.00,88.15
767.00,88.10
766.00,88.07
765.00,88.05
764.00,88.02
763.00,87.97
762.00,87.91
761.00,87.85
760.00,87.79
759.00,87.73
758.00,87.67
757.00,87.60
756.00,87.50
755.00,87.41
754.00,87.32
753.00,87.26
752.00,87.20
751.00,87.15
750.00,87.10
749.00,87.05
748.00,87.01
747.00,86.98
746.00,86.94
745.00,86.90
744.00,86.84
743.00,86.77
742.00,86.70
741.00,86.64
740.00,86.61
739.00,86.61
738.00,86.65
737.00,86.69
736.00,86.71
735.00,86.68
734.00,86.60
733.00,86.49
732.00,86.40
731.00,86.34
730.00,86.29
729.00,86.25
728.00,86.20
727.00,86.14
726.00,86.07
725.00,85.98
724.00,85.87
723.00,85.76
722.00,85.68
721.00,85.61
720.00,85.56
719.00,85.49
718.00,85.43
717.00,85.37
716.00,85.34
715.00,85.33
714.00,85.33
713.00,85.31
712.00,85.24
711.00,85.14
710.00,85.04
709.00,84.92
708.00,84.81
707.00,84.70
706.00,84.62
705.00,84.56
704.00,84.50
703.00,84.42
702.00,84.30
701.00,84.18
700.00,84.07
699.00,84.00
698.00,83.96
697.00,83.92
696.00,83.88
695.00,83.83
694.00,83.80
693.00,83.78
692.00,83.79
691.00,83.78
690.00,83.73
689.00,83.65
688.00,83.56
687.00,83.50
686.00,83.48
685.00,83.46
684.00,83.41
683.00,83.31
682.00,83.20
681.00,83.09
680.00,83.03
679.00,83.00
678.00,82.96
677.00,82.88
676.00,82.81
675.00,82.78
674.00,82.78
673.00,82.74
672.00,82.66
671.00,82.55
670.00,82.40
669.00,82.18
668.00,81.99
667.00,82.00
666.00,82.10
665.00,82.16
664.00,82.15
663.00,82.10
662.00,82.04
661.00,81.95
660.00,81.83
659.00,81.71
658.00,81.64
657.00,81.59
656.00,81.52
655.00,81.47
654.00,81.47
653.00,81.47
652.00,81.42
651.00,81.30
650.00,81.20
649.00,81.17
648.00,81.19
647.00,81.19
646.00,81.13
645.00,81.03
644.00,80.93
643.00,80.86
642.00,80.81
641.00,80.77
640.00,80.75
639.00,80.75
638.00,80.76
637.00,80.76
636.00,80.75
635.00,80.74
634.00,80.72
633.00,80.69
632.00,80.66
631.00,80.70
630.00,80.80
629.00,80.89
628.00,80.89
627.00,80.78
626.00,80.61
625.00,80.44
624.00,80.34
623.00,80.35
622.00,80.44
621.00,80.57
620.00,80.69
619.00,80.76
618.00,80.64
617.00,80.34
616.00,80.05
615.00,80.00
614.00,80.19
613.00,80.38
612.00,80.42
611.00,80.28
610.00,80.01
609.00,79.73
608.00,79.58
607.00,79.63
606.00,79.75
605.00,79.72
604.00,79.47
603.00,79.09
602.00,78.68
601.00,78.28
600.00,78.01
599.00,77.96
598.00,78.11
597.00,78.28
596.00,78.40
595.00,78.56
594.00,78.74
593.00,78.84
592.00,78.84
591.00,78.89
590.00,79.11
589.00,79.38
588.00,79.52
587.00,79.48
586.00,79.23
585.00,78.86
584.00,78.50
583.00,78.36
582.00,78.38
581.00,78.31
580.00,78.02
579.00,77.69
578.00,77.53
577.00,77.57
576.00,77.83
575.00,78.32
574.00,78.79
573.00,78.88
572.00,78.56
571.00,78.21
570.00,78.07
569.00,78.01
568.00,77.89
567.00,77.76
566.00,77.70
565.00,77.56
564.00,77.34
563.00,77.23
562.00,77.29
561.00,77.33
560.00,77.28
559.00,77.37
558.00,77.71
557.00,78.06
556.00,78.14
555.00,78.07
554.00,78.23
553.00,78.67
552.00,79.19
551.00,79.22
550.00,78.64
