Created as New Dataset,13.1 Red Wool Navajo-Churro sheep 
cm-1,%T
4000.00,94.09
3999.00,94.09
3998.00,94.10
3997.00,94.10
3996.00,94.10
3995.00,94.10
3994.00,94.09
3993.00,94.09
3992.00,94.09
3991.00,94.10
3990.00,94.10
3989.00,94.11
3988.00,94.11
3987.00,94.11
3986.00,94.12
3985.00,94.11
3984.00,94.10
3983.00,94.08
3982.00,94.08
3981.00,94.08
3980.00,94.09
3979.00,94.09
3978.00,94.09
3977.00,94.08
3976.00,94.08
3975.00,94.08
3974.00,94.09
3973.00,94.09
3972.00,94.10
3971.00,94.11
3970.00,94.12
3969.00,94.11
3968.00,94.10
3967.00,94.09
3966.00,94.08
3965.00,94.08
3964.00,94.09
3963.00,94.10
3962.00,94.11
3961.00,94.11
3960.00,94.12
3959.00,94.13
3958.00,94.14
3957.00,94.15
3956.00,94.15
3955.00,94.15
3954.00,94.13
3953.00,94.11
3952.00,94.09
3951.00,94.08
3950.00,94.08
3949.00,94.09
3948.00,94.11
3947.00,94.12
3946.00,94.11
3945.00,94.11
3944.00,94.11
3943.00,94.11
3942.00,94.10
3941.00,94.10
3940.00,94.10
3939.00,94.10
3938.00,94.10
3937.00,94.11
3936.00,94.10
3935.00,94.09
3934.00,94.07
3933.00,94.07
3932.00,94.08
3931.00,94.10
3930.00,94.12
3929.00,94.12
3928.00,94.11
3927.00,94.10
3926.00,94.10
3925.00,94.11
3924.00,94.12
3923.00,94.12
3922.00,94.13
3921.00,94.14
3920.00,94.14
3919.00,94.15
3918.00,94.15
3917.00,94.15
3916.00,94.15
3915.00,94.14
3914.00,94.13
3913.00,94.12
3912.00,94.11
3911.00,94.10
3910.00,94.09
3909.00,94.09
3908.00,94.10
3907.00,94.12
3906.00,94.15
3905.00,94.18
3904.00,94.20
3903.00,94.19
3902.00,94.17
3901.00,94.15
3900.00,94.14
3899.00,94.14
3898.00,94.15
3897.00,94.16
3896.00,94.17
3895.00,94.16
3894.00,94.16
3893.00,94.18
3892.00,94.21
3891.00,94.22
3890.00,94.22
3889.00,94.20
3888.00,94.19
3887.00,94.16
3886.00,94.13
3885.00,94.11
3884.00,94.11
3883.00,94.13
3882.00,94.16
3881.00,94.18
3880.00,94.17
3879.00,94.14
3878.00,94.12
3877.00,94.10
3876.00,94.10
3875.00,94.10
3874.00,94.10
3873.00,94.11
3872.00,94.16
3871.00,94.20
3870.00,94.22
3869.00,94.20
3868.00,94.16
3867.00,94.14
3866.00,94.13
3865.00,94.14
3864.00,94.15
3863.00,94.15
3862.00,94.15
3861.00,94.15
3860.00,94.16
3859.00,94.19
3858.00,94.22
3857.00,94.22
3856.00,94.23
3855.00,94.24
3854.00,94.25
3853.00,94.24
3852.00,94.23
3851.00,94.22
3850.00,94.20
3849.00,94.18
3848.00,94.16
3847.00,94.14
3846.00,94.14
3845.00,94.14
3844.00,94.15
3843.00,94.16
3842.00,94.16
3841.00,94.17
3840.00,94.18
3839.00,94.18
3838.00,94.18
3837.00,94.17
3836.00,94.16
3835.00,94.15
3834.00,94.14
3833.00,94.15
3832.00,94.16
3831.00,94.18
3830.00,94.19
3829.00,94.19
3828.00,94.18
3827.00,94.17
3826.00,94.15
3825.00,94.13
3824.00,94.14
3823.00,94.18
3822.00,94.22
3821.00,94.22
3820.00,94.19
3819.00,94.15
3818.00,94.13
3817.00,94.13
3816.00,94.13
3815.00,94.14
3814.00,94.15
3813.00,94.16
3812.00,94.15
3811.00,94.13
3810.00,94.11
3809.00,94.10
3808.00,94.12
3807.00,94.13
3806.00,94.13
3805.00,94.12
3804.00,94.10
3803.00,94.10
3802.00,94.10
3801.00,94.10
3800.00,94.09
3799.00,94.09
3798.00,94.08
3797.00,94.08
3796.00,94.08
3795.00,94.07
3794.00,94.07
3793.00,94.05
3792.00,94.04
3791.00,94.03
3790.00,94.02
3789.00,94.02
3788.00,94.02
3787.00,94.04
3786.00,94.06
3785.00,94.08
3784.00,94.09
3783.00,94.09
3782.00,94.09
3781.00,94.09
3780.00,94.09
3779.00,94.09
3778.00,94.08
3777.00,94.09
3776.00,94.09
3775.00,94.09
3774.00,94.09
3773.00,94.07
3772.00,94.06
3771.00,94.06
3770.00,94.06
3769.00,94.06
3768.00,94.04
3767.00,94.03
3766.00,94.01
3765.00,94.00
3764.00,94.00
3763.00,94.01
3762.00,94.04
3761.00,94.05
3760.00,94.06
3759.00,94.05
3758.00,94.02
3757.00,93.99
3756.00,93.97
3755.00,93.97
3754.00,93.99
3753.00,94.02
3752.00,94.05
3751.00,94.08
3750.00,94.09
3749.00,94.09
3748.00,94.07
3747.00,94.05
3746.00,94.02
3745.00,93.98
3744.00,93.94
3743.00,93.92
3742.00,93.93
3741.00,93.95
3740.00,93.95
3739.00,93.94
3738.00,93.93
3737.00,93.94
3736.00,93.95
3735.00,93.97
3734.00,93.98
3733.00,93.99
3732.00,93.99
3731.00,93.98
3730.00,93.96
3729.00,93.93
3728.00,93.90
3727.00,93.88
3726.00,93.87
3725.00,93.89
3724.00,93.92
3723.00,93.95
3722.00,93.95
3721.00,93.93
3720.00,93.92
3719.00,93.91
3718.00,93.91
3717.00,93.90
3716.00,93.89
3715.00,93.88
3714.00,93.87
3713.00,93.88
3712.00,93.89
3711.00,93.89
3710.00,93.89
3709.00,93.88
3708.00,93.87
3707.00,93.85
3706.00,93.84
3705.00,93.84
3704.00,93.86
3703.00,93.87
3702.00,93.88
3701.00,93.86
3700.00,93.83
3699.00,93.79
3698.00,93.75
3697.00,93.73
3696.00,93.72
3695.00,93.72
3694.00,93.73
3693.00,93.74
3692.00,93.74
3691.00,93.75
3690.00,93.75
3689.00,93.74
3688.00,93.73
3687.00,93.73
3686.00,93.73
3685.00,93.73
3684.00,93.71
3683.00,93.68
3682.00,93.65
3681.00,93.64
3680.00,93.63
3679.00,93.61
3678.00,93.61
3677.00,93.62
3676.00,93.62
3675.00,93.61
3674.00,93.59
3673.00,93.58
3672.00,93.58
3671.00,93.57
3670.00,93.55
3669.00,93.53
3668.00,93.49
3667.00,93.46
3666.00,93.43
3665.00,93.41
3664.00,93.38
3663.00,93.37
3662.00,93.38
3661.00,93.39
3660.00,93.40
3659.00,93.40
3658.00,93.38
3657.00,93.34
3656.00,93.31
3655.00,93.29
3654.00,93.26
3653.00,93.23
3652.00,93.18
3651.00,93.13
3650.00,93.08
3649.00,93.04
3648.00,93.01
3647.00,92.98
3646.00,92.95
3645.00,92.93
3644.00,92.92
3643.00,92.91
3642.00,92.89
3641.00,92.86
3640.00,92.84
3639.00,92.81
3638.00,92.77
3637.00,92.73
3636.00,92.70
3635.00,92.69
3634.00,92.70
3633.00,92.70
3632.00,92.69
3631.00,92.68
3630.00,92.66
3629.00,92.62
3628.00,92.56
3627.00,92.53
3626.00,92.49
3625.00,92.46
3624.00,92.42
3623.00,92.36
3622.00,92.31
3621.00,92.27
3620.00,92.23
3619.00,92.21
3618.00,92.20
3617.00,92.20
3616.00,92.21
3615.00,92.21
3614.00,92.20
3613.00,92.16
3612.00,92.10
3611.00,92.03
3610.00,91.96
3609.00,91.92
3608.00,91.89
3607.00,91.87
3606.00,91.84
3605.00,91.80
3604.00,91.77
3603.00,91.74
3602.00,91.72
3601.00,91.70
3600.00,91.67
3599.00,91.63
3598.00,91.59
3597.00,91.56
3596.00,91.55
3595.00,91.54
3594.00,91.53
3593.00,91.50
3592.00,91.46
3591.00,91.42
3590.00,91.39
3589.00,91.37
3588.00,91.34
3587.00,91.29
3586.00,91.24
3585.00,91.19
3584.00,91.15
3583.00,91.11
3582.00,91.09
3581.00,91.08
3580.00,91.07
3579.00,91.06
3578.00,91.04
3577.00,91.03
3576.00,91.01
3575.00,90.99
3574.00,90.96
3573.00,90.92
3572.00,90.86
3571.00,90.81
3570.00,90.75
3569.00,90.69
3568.00,90.62
3567.00,90.55
3566.00,90.49
3565.00,90.46
3564.00,90.45
3563.00,90.46
3562.00,90.46
3561.00,90.47
3560.00,90.46
3559.00,90.44
3558.00,90.42
3557.00,90.39
3556.00,90.34
3555.00,90.30
3554.00,90.25
3553.00,90.21
3552.00,90.17
3551.00,90.12
3550.00,90.06
3549.00,90.02
3548.00,89.99
3547.00,89.97
3546.00,89.96
3545.00,89.94
3544.00,89.91
3543.00,89.89
3542.00,89.87
3541.00,89.84
3540.00,89.82
3539.00,89.80
3538.00,89.78
3537.00,89.74
3536.00,89.69
3535.00,89.63
3534.00,89.59
3533.00,89.56
3532.00,89.54
3531.00,89.51
3530.00,89.47
3529.00,89.43
3528.00,89.37
3527.00,89.32
3526.00,89.28
3525.00,89.25
3524.00,89.23
3523.00,89.22
3522.00,89.21
3521.00,89.19
3520.00,89.15
3519.00,89.11
3518.00,89.07
3517.00,89.02
3516.00,88.98
3515.00,88.96
3514.00,88.95
3513.00,88.93
3512.00,88.90
3511.00,88.86
3510.00,88.81
3509.00,88.76
3508.00,88.72
3507.00,88.68
3506.00,88.65
3505.00,88.62
3504.00,88.60
3503.00,88.58
3502.00,88.56
3501.00,88.54
3500.00,88.53
3499.00,88.52
3498.00,88.50
3497.00,88.47
3496.00,88.43
3495.00,88.39
3494.00,88.35
3493.00,88.32
3492.00,88.30
3491.00,88.29
3490.00,88.28
3489.00,88.26
3488.00,88.22
3487.00,88.18
3486.00,88.15
3485.00,88.12
3484.00,88.10
3483.00,88.07
3482.00,88.03
3481.00,87.98
3480.00,87.94
3479.00,87.90
3478.00,87.88
3477.00,87.86
3476.00,87.84
3475.00,87.82
3474.00,87.80
3473.00,87.78
3472.00,87.77
3471.00,87.75
3470.00,87.74
3469.00,87.72
3468.00,87.70
3467.00,87.67
3466.00,87.65
3465.00,87.62
3464.00,87.59
3463.00,87.56
3462.00,87.52
3461.00,87.49
3460.00,87.46
3459.00,87.43
3458.00,87.39
3457.00,87.35
3456.00,87.32
3455.00,87.30
3454.00,87.29
3453.00,87.27
3452.00,87.25
3451.00,87.24
3450.00,87.23
3449.00,87.23
3448.00,87.24
3447.00,87.23
3446.00,87.21
3445.00,87.16
3444.00,87.11
3443.00,87.06
3442.00,87.03
3441.00,87.01
3440.00,87.00
3439.00,86.98
3438.00,86.96
3437.00,86.93
3436.00,86.90
3435.00,86.88
3434.00,86.86
3433.00,86.83
3432.00,86.80
3431.00,86.76
3430.00,86.73
3429.00,86.72
3428.00,86.71
3427.00,86.69
3426.00,86.66
3425.00,86.62
3424.00,86.59
3423.00,86.57
3422.00,86.55
3421.00,86.53
3420.00,86.52
3419.00,86.50
3418.00,86.48
3417.00,86.46
3416.00,86.44
3415.00,86.41
3414.00,86.40
3413.00,86.39
3412.00,86.39
3411.00,86.38
3410.00,86.36
3409.00,86.33
3408.00,86.30
3407.00,86.29
3406.00,86.28
3405.00,86.27
3404.00,86.24
3403.00,86.21
3402.00,86.18
3401.00,86.16
3400.00,86.15
3399.00,86.14
3398.00,86.12
3397.00,86.11
3396.00,86.08
3395.00,86.06
3394.00,86.03
3393.00,86.01
3392.00,86.00
3391.00,86.00
3390.00,85.99
3389.00,85.99
3388.00,85.98
3387.00,85.97
3386.00,85.96
3385.00,85.96
3384.00,85.94
3383.00,85.93
3382.00,85.91
3381.00,85.89
3380.00,85.87
3379.00,85.85
3378.00,85.83
3377.00,85.81
3376.00,85.79
3375.00,85.77
3374.00,85.74
3373.00,85.73
3372.00,85.72
3371.00,85.71
3370.00,85.71
3369.00,85.71
3368.00,85.70
3367.00,85.69
3366.00,85.67
3365.00,85.66
3364.00,85.66
3363.00,85.65
3362.00,85.65
3361.00,85.64
3360.00,85.61
3359.00,85.58
3358.00,85.54
3357.00,85.50
3356.00,85.49
3355.00,85.49
3354.00,85.50
3353.00,85.51
3352.00,85.51
3351.00,85.50
3350.00,85.49
3349.00,85.47
3348.00,85.46
3347.00,85.44
3346.00,85.42
3345.00,85.40
3344.00,85.39
3343.00,85.37
3342.00,85.35
3341.00,85.33
3340.00,85.32
3339.00,85.31
3338.00,85.30
3337.00,85.29
3336.00,85.28
3335.00,85.28
3334.00,85.29
3333.00,85.30
3332.00,85.31
3331.00,85.30
3330.00,85.27
3329.00,85.24
3328.00,85.22
3327.00,85.20
3326.00,85.19
3325.00,85.19
3324.00,85.18
3323.00,85.16
3322.00,85.14
3321.00,85.11
3320.00,85.08
3319.00,85.06
3318.00,85.04
3317.00,85.04
3316.00,85.03
3315.00,85.02
3314.00,85.00
3313.00,84.98
3312.00,84.96
3311.00,84.95
3310.00,84.94
3309.00,84.92
3308.00,84.91
3307.00,84.89
3306.00,84.89
3305.00,84.89
3304.00,84.89
3303.00,84.89
3302.00,84.88
3301.00,84.87
3300.00,84.85
3299.00,84.82
3298.00,84.80
3297.00,84.79
3296.00,84.77
3295.00,84.77
3294.00,84.76
3293.00,84.76
3292.00,84.76
3291.00,84.73
3290.00,84.69
3289.00,84.66
3288.00,84.64
3287.00,84.65
3286.00,84.67
3285.00,84.69
3284.00,84.68
3283.00,84.67
3282.00,84.66
3281.00,84.66
3280.00,84.66
3279.00,84.66
3278.00,84.66
3277.00,84.67
3276.00,84.68
3275.00,84.69
3274.00,84.70
3273.00,84.70
3272.00,84.69
3271.00,84.70
3270.00,84.72
3269.00,84.75
3268.00,84.77
3267.00,84.77
3266.00,84.76
3265.00,84.74
3264.00,84.73
3263.00,84.74
3262.00,84.76
3261.00,84.79
3260.00,84.83
3259.00,84.87
3258.00,84.92
3257.00,84.95
3256.00,84.97
3255.00,84.97
3254.00,84.98
3253.00,84.99
3252.00,84.99
3251.00,85.01
3250.00,85.02
3249.00,85.05
3248.00,85.09
3247.00,85.12
3246.00,85.15
3245.00,85.16
3244.00,85.18
3243.00,85.20
3242.00,85.22
3241.00,85.25
3240.00,85.27
3239.00,85.29
3238.00,85.30
3237.00,85.32
3236.00,85.34
3235.00,85.36
3234.00,85.37
3233.00,85.38
3232.00,85.38
3231.00,85.39
3230.00,85.42
3229.00,85.45
3228.00,85.48
3227.00,85.50
3226.00,85.51
3225.00,85.51
3224.00,85.53
3223.00,85.55
3222.00,85.57
3221.00,85.60
3220.00,85.63
3219.00,85.65
3218.00,85.69
3217.00,85.72
3216.00,85.74
3215.00,85.76
3214.00,85.78
3213.00,85.79
3212.00,85.80
3211.00,85.81
3210.00,85.83
3209.00,85.86
3208.00,85.88
3207.00,85.91
3206.00,85.92
3205.00,85.93
3204.00,85.95
3203.00,85.98
3202.00,86.01
3201.00,86.04
3200.00,86.06
3199.00,86.07
3198.00,86.07
3197.00,86.08
3196.00,86.10
3195.00,86.14
3194.00,86.18
3193.00,86.22
3192.00,86.25
3191.00,86.28
3190.00,86.31
3189.00,86.34
3188.00,86.35
3187.00,86.35
3186.00,86.36
3185.00,86.38
3184.00,86.43
3183.00,86.48
3182.00,86.52
3181.00,86.55
3180.00,86.57
3179.00,86.60
3178.00,86.63
3177.00,86.67
3176.00,86.70
3175.00,86.72
3174.00,86.74
3173.00,86.75
3172.00,86.77
3171.00,86.81
3170.00,86.87
3169.00,86.92
3168.00,86.97
3167.00,87.00
3166.00,87.03
3165.00,87.06
3164.00,87.08
3163.00,87.11
3162.00,87.13
3161.00,87.15
3160.00,87.17
3159.00,87.19
3158.00,87.22
3157.00,87.26
3156.00,87.31
3155.00,87.35
3154.00,87.40
3153.00,87.44
3152.00,87.47
3151.00,87.50
3150.00,87.53
3149.00,87.56
3148.00,87.58
3147.00,87.60
3146.00,87.62
3145.00,87.65
3144.00,87.69
3143.00,87.73
3142.00,87.77
3141.00,87.82
3140.00,87.85
3139.00,87.88
3138.00,87.91
3137.00,87.93
3136.00,87.95
3135.00,87.98
3134.00,88.01
3133.00,88.04
3132.00,88.07
3131.00,88.09
3130.00,88.10
3129.00,88.10
3128.00,88.12
3127.00,88.15
3126.00,88.18
3125.00,88.21
3124.00,88.24
3123.00,88.26
3122.00,88.29
3121.00,88.31
3120.00,88.32
3119.00,88.34
3118.00,88.37
3117.00,88.39
3116.00,88.40
3115.00,88.41
3114.00,88.41
3113.00,88.42
3112.00,88.44
3111.00,88.45
3110.00,88.47
3109.00,88.48
3108.00,88.49
3107.00,88.51
3106.00,88.54
3105.00,88.57
3104.00,88.59
3103.00,88.59
3102.00,88.59
3101.00,88.60
3100.00,88.61
3099.00,88.63
3098.00,88.65
3097.00,88.66
3096.00,88.67
3095.00,88.67
3094.00,88.67
3093.00,88.67
3092.00,88.66
3091.00,88.67
3090.00,88.69
3089.00,88.71
3088.00,88.74
3087.00,88.76
3086.00,88.77
3085.00,88.78
3084.00,88.79
3083.00,88.80
3082.00,88.81
3081.00,88.82
3080.00,88.82
3079.00,88.82
3078.00,88.81
3077.00,88.81
3076.00,88.82
3075.00,88.84
3074.00,88.86
3073.00,88.87
3072.00,88.89
3071.00,88.90
3070.00,88.91
3069.00,88.92
3068.00,88.92
3067.00,88.92
3066.00,88.94
3065.00,88.97
3064.00,89.00
3063.00,89.02
3062.00,89.05
3061.00,89.07
3060.00,89.09
3059.00,89.11
3058.00,89.13
3057.00,89.16
3056.00,89.18
3055.00,89.20
3054.00,89.22
3053.00,89.23
3052.00,89.26
3051.00,89.28
3050.00,89.30
3049.00,89.31
3048.00,89.33
3047.00,89.35
3046.00,89.37
3045.00,89.41
3044.00,89.44
3043.00,89.47
3042.00,89.48
3041.00,89.48
3040.00,89.48
3039.00,89.51
3038.00,89.55
3037.00,89.59
3036.00,89.63
3035.00,89.67
3034.00,89.70
3033.00,89.72
3032.00,89.73
3031.00,89.75
3030.00,89.77
3029.00,89.80
3028.00,89.83
3027.00,89.87
3026.00,89.90
3025.00,89.93
3024.00,89.94
3023.00,89.94
3022.00,89.96
3021.00,89.98
3020.00,90.02
3019.00,90.06
3018.00,90.10
3017.00,90.12
3016.00,90.13
3015.00,90.14
3014.00,90.14
3013.00,90.15
3012.00,90.17
3011.00,90.18
3010.00,90.19
3009.00,90.19
3008.00,90.19
3007.00,90.18
3006.00,90.19
3005.00,90.20
3004.00,90.21
3003.00,90.22
3002.00,90.22
3001.00,90.21
3000.00,90.21
2999.00,90.22
2998.00,90.24
2997.00,90.26
2996.00,90.27
2995.00,90.27
2994.00,90.26
2993.00,90.24
2992.00,90.21
2991.00,90.17
2990.00,90.14
2989.00,90.11
2988.00,90.09
2987.00,90.06
2986.00,90.03
2985.00,89.99
2984.00,89.96
2983.00,89.93
2982.00,89.89
2981.00,89.85
2980.00,89.81
2979.00,89.76
2978.00,89.71
2977.00,89.65
2976.00,89.60
2975.00,89.56
2974.00,89.52
2973.00,89.47
2972.00,89.40
2971.00,89.34
2970.00,89.28
2969.00,89.23
2968.00,89.18
2967.00,89.13
2966.00,89.07
2965.00,89.02
2964.00,88.98
2963.00,88.95
2962.00,88.93
2961.00,88.91
2960.00,88.89
2959.00,88.88
2958.00,88.87
2957.00,88.86
2956.00,88.86
2955.00,88.85
2954.00,88.85
2953.00,88.86
2952.00,88.89
2951.00,88.92
2950.00,88.95
2949.00,88.97
2948.00,88.97
2947.00,88.96
2946.00,88.95
2945.00,88.93
2944.00,88.89
2943.00,88.84
2942.00,88.79
2941.00,88.75
2940.00,88.69
2939.00,88.63
2938.00,88.56
2937.00,88.48
2936.00,88.39
2935.00,88.31
2934.00,88.22
2933.00,88.13
2932.00,88.04
2931.00,87.95
2930.00,87.86
2929.00,87.77
2928.00,87.68
2927.00,87.57
2926.00,87.45
2925.00,87.32
2924.00,87.19
2923.00,87.09
2922.00,87.00
2921.00,86.92
2920.00,86.85
2919.00,86.81
2918.00,86.84
2917.00,86.93
2916.00,87.09
2915.00,87.31
2914.00,87.57
2913.00,87.84
2912.00,88.12
2911.00,88.36
2910.00,88.57
2909.00,88.74
2908.00,88.88
2907.00,89.00
2906.00,89.11
2905.00,89.20
2904.00,89.29
2903.00,89.37
2902.00,89.45
2901.00,89.51
2900.00,89.56
2899.00,89.61
2898.00,89.67
2897.00,89.75
2896.00,89.82
2895.00,89.88
2894.00,89.93
2893.00,89.98
2892.00,90.04
2891.00,90.09
2890.00,90.14
2889.00,90.18
2888.00,90.22
2887.00,90.26
2886.00,90.28
2885.00,90.30
2884.00,90.31
2883.00,90.33
2882.00,90.36
2881.00,90.38
2880.00,90.40
2879.00,90.42
2878.00,90.43
2877.00,90.42
2876.00,90.40
2875.00,90.39
2874.00,90.38
2873.00,90.38
2872.00,90.37
2871.00,90.37
2870.00,90.37
2869.00,90.38
2868.00,90.41
2867.00,90.43
2866.00,90.45
2865.00,90.45
2864.00,90.44
2863.00,90.44
2862.00,90.42
2861.00,90.38
2860.00,90.33
2859.00,90.27
2858.00,90.18
2857.00,90.05
2856.00,89.90
2855.00,89.73
2854.00,89.56
2853.00,89.41
2852.00,89.27
2851.00,89.18
2850.00,89.18
2849.00,89.29
2848.00,89.51
2847.00,89.80
2846.00,90.11
2845.00,90.40
2844.00,90.66
2843.00,90.88
2842.00,91.06
2841.00,91.22
2840.00,91.34
2839.00,91.44
2838.00,91.53
2837.00,91.61
2836.00,91.68
2835.00,91.73
2834.00,91.78
2833.00,91.81
2832.00,91.84
2831.00,91.87
2830.00,91.91
2829.00,91.95
2828.00,91.98
2827.00,92.01
2826.00,92.04
2825.00,92.06
2824.00,92.07
2823.00,92.09
2822.00,92.10
2821.00,92.12
2820.00,92.14
2819.00,92.18
2818.00,92.22
2817.00,92.26
2816.00,92.29
2815.00,92.32
2814.00,92.34
2813.00,92.35
2812.00,92.35
2811.00,92.36
2810.00,92.36
2809.00,92.36
2808.00,92.36
2807.00,92.36
2806.00,92.38
2805.00,92.40
2804.00,92.43
2803.00,92.45
2802.00,92.47
2801.00,92.48
2800.00,92.49
2799.00,92.49
2798.00,92.50
2797.00,92.51
2796.00,92.51
2795.00,92.52
2794.00,92.54
2793.00,92.58
2792.00,92.62
2791.00,92.66
2790.00,92.67
2789.00,92.67
2788.00,92.65
2787.00,92.64
2786.00,92.65
2785.00,92.66
2784.00,92.68
2783.00,92.70
2782.00,92.71
2781.00,92.72
2780.00,92.73
2779.00,92.74
2778.00,92.77
2777.00,92.79
2776.00,92.80
2775.00,92.81
2774.00,92.83
2773.00,92.85
2772.00,92.87
2771.00,92.89
2770.00,92.89
2769.00,92.89
2768.00,92.90
2767.00,92.91
2766.00,92.92
2765.00,92.93
2764.00,92.94
2763.00,92.96
2762.00,92.97
2761.00,92.98
2760.00,92.98
2759.00,92.98
2758.00,92.99
2757.00,93.01
2756.00,93.04
2755.00,93.05
2754.00,93.04
2753.00,93.03
2752.00,93.02
2751.00,93.03
2750.00,93.04
2749.00,93.06
2748.00,93.07
2747.00,93.08
2746.00,93.09
2745.00,93.10
2744.00,93.11
2743.00,93.12
2742.00,93.12
2741.00,93.12
2740.00,93.12
2739.00,93.13
2738.00,93.14
2737.00,93.15
2736.00,93.17
2735.00,93.19
2734.00,93.20
2733.00,93.20
2732.00,93.20
2731.00,93.20
2730.00,93.20
2729.00,93.20
2728.00,93.21
2727.00,93.22
2726.00,93.24
2725.00,93.25
2724.00,93.27
2723.00,93.28
2722.00,93.30
2721.00,93.32
2720.00,93.33
2719.00,93.33
2718.00,93.32
2717.00,93.32
2716.00,93.31
2715.00,93.32
2714.00,93.33
2713.00,93.34
2712.00,93.35
2711.00,93.36
2710.00,93.37
2709.00,93.37
2708.00,93.37
2707.00,93.37
2706.00,93.38
2705.00,93.39
2704.00,93.40
2703.00,93.42
2702.00,93.43
2701.00,93.44
2700.00,93.44
2699.00,93.44
2698.00,93.44
2697.00,93.44
2696.00,93.44
2695.00,93.45
2694.00,93.46
2693.00,93.47
2692.00,93.48
2691.00,93.49
2690.00,93.50
2689.00,93.50
2688.00,93.51
2687.00,93.51
2686.00,93.52
2685.00,93.52
2684.00,93.52
2683.00,93.51
2682.00,93.51
2681.00,93.50
2680.00,93.50
2679.00,93.51
2678.00,93.52
2677.00,93.53
2676.00,93.54
2675.00,93.55
2674.00,93.56
2673.00,93.57
2672.00,93.59
2671.00,93.60
2670.00,93.61
2669.00,93.61
2668.00,93.60
2667.00,93.60
2666.00,93.59
2665.00,93.59
2664.00,93.58
2663.00,93.58
2662.00,93.58
2661.00,93.58
2660.00,93.57
2659.00,93.56
2658.00,93.55
2657.00,93.56
2656.00,93.57
2655.00,93.58
2654.00,93.59
2653.00,93.60
2652.00,93.61
2651.00,93.60
2650.00,93.58
2649.00,93.55
2648.00,93.52
2647.00,93.51
2646.00,93.52
2645.00,93.54
2644.00,93.56
2643.00,93.57
2642.00,93.58
2641.00,93.58
2640.00,93.56
2639.00,93.54
2638.00,93.52
2637.00,93.50
2636.00,93.49
2635.00,93.48
2634.00,93.48
2633.00,93.48
2632.00,93.48
2631.00,93.48
2630.00,93.48
2629.00,93.48
2628.00,93.48
2627.00,93.47
2626.00,93.46
2625.00,93.46
2624.00,93.46
2623.00,93.47
2622.00,93.48
2621.00,93.49
2620.00,93.50
2619.00,93.51
2618.00,93.51
2617.00,93.50
2616.00,93.47
2615.00,93.43
2614.00,93.41
2613.00,93.42
2612.00,93.43
2611.00,93.45
2610.00,93.45
2609.00,93.45
2608.00,93.45
2607.00,93.46
2606.00,93.48
2605.00,93.50
2604.00,93.50
2603.00,93.49
2602.00,93.48
2601.00,93.47
2600.00,93.46
2599.00,93.44
2598.00,93.43
2597.00,93.43
2596.00,93.42
2595.00,93.42
2594.00,93.43
2593.00,93.44
2592.00,93.46
2591.00,93.47
2590.00,93.48
2589.00,93.47
2588.00,93.45
2587.00,93.43
2586.00,93.41
2585.00,93.41
2584.00,93.42
2583.00,93.43
2582.00,93.44
2581.00,93.44
2580.00,93.44
2579.00,93.43
2578.00,93.42
2577.00,93.41
2576.00,93.41
2575.00,93.42
2574.00,93.44
2573.00,93.45
2572.00,93.46
2571.00,93.47
2570.00,93.46
2569.00,93.45
2568.00,93.44
2567.00,93.45
2566.00,93.46
2565.00,93.46
2564.00,93.45
2563.00,93.44
2562.00,93.43
2561.00,93.43
2560.00,93.43
2559.00,93.43
2558.00,93.44
2557.00,93.43
2556.00,93.43
2555.00,93.43
2554.00,93.45
2553.00,93.47
2552.00,93.48
2551.00,93.48
2550.00,93.47
2549.00,93.46
2548.00,93.45
2547.00,93.44
2546.00,93.44
2545.00,93.44
2544.00,93.47
2543.00,93.49
2542.00,93.52
2541.00,93.53
2540.00,93.53
2539.00,93.51
2538.00,93.49
2537.00,93.46
2536.00,93.45
2535.00,93.45
2534.00,93.46
2533.00,93.48
2532.00,93.50
2531.00,93.52
2530.00,93.53
2529.00,93.54
2528.00,93.54
2527.00,93.53
2526.00,93.51
2525.00,93.50
2524.00,93.50
2523.00,93.50
2522.00,93.52
2521.00,93.53
2520.00,93.53
2519.00,93.52
2518.00,93.50
2517.00,93.48
2516.00,93.48
2515.00,93.50
2514.00,93.54
2513.00,93.56
2512.00,93.56
2511.00,93.55
2510.00,93.54
2509.00,93.54
2508.00,93.54
2507.00,93.53
2506.00,93.52
2505.00,93.53
2504.00,93.55
2503.00,93.57
2502.00,93.59
2501.00,93.59
2500.00,93.58
2499.00,93.57
2498.00,93.56
2497.00,93.57
2496.00,93.57
2495.00,93.59
2494.00,93.60
2493.00,93.61
2492.00,93.62
2491.00,93.62
2490.00,93.63
2489.00,93.62
2488.00,93.61
2487.00,93.59
2486.00,93.59
2485.00,93.60
2484.00,93.61
2483.00,93.61
2482.00,93.59
2481.00,93.57
2480.00,93.56
2479.00,93.58
2478.00,93.60
2477.00,93.62
2476.00,93.63
2475.00,93.64
2474.00,93.65
2473.00,93.65
2472.00,93.64
2471.00,93.63
2470.00,93.62
2469.00,93.62
2468.00,93.62
2467.00,93.63
2466.00,93.63
2465.00,93.64
2464.00,93.65
2463.00,93.67
2462.00,93.69
2461.00,93.70
2460.00,93.70
2459.00,93.70
2458.00,93.70
2457.00,93.69
2456.00,93.67
2455.00,93.66
2454.00,93.66
2453.00,93.67
2452.00,93.68
2451.00,93.67
2450.00,93.66
2449.00,93.67
2448.00,93.68
2447.00,93.70
2446.00,93.70
2445.00,93.68
2444.00,93.66
2443.00,93.66
2442.00,93.68
2441.00,93.70
2440.00,93.71
2439.00,93.70
2438.00,93.70
2437.00,93.71
2436.00,93.72
2435.00,93.74
2434.00,93.75
2433.00,93.75
2432.00,93.74
2431.00,93.73
2430.00,93.75
2429.00,93.77
2428.00,93.79
2427.00,93.79
2426.00,93.79
2425.00,93.79
2424.00,93.78
2423.00,93.78
2422.00,93.79
2421.00,93.80
2420.00,93.81
2419.00,93.81
2418.00,93.81
2417.00,93.81
2416.00,93.79
2415.00,93.78
2414.00,93.76
2413.00,93.77
2412.00,93.79
2411.00,93.81
2410.00,93.83
2409.00,93.85
2408.00,93.86
2407.00,93.86
2406.00,93.86
2405.00,93.85
2404.00,93.85
2403.00,93.86
2402.00,93.88
2401.00,93.89
2400.00,93.89
2399.00,93.89
2398.00,93.91
2397.00,93.93
2396.00,93.95
2395.00,93.96
2394.00,93.95
2393.00,93.94
2392.00,93.92
2391.00,93.92
2390.00,93.92
2389.00,93.93
2388.00,93.95
2387.00,93.97
2386.00,93.99
2385.00,93.99
2384.00,94.00
2383.00,94.02
2382.00,94.05
2381.00,94.09
2380.00,94.11
2379.00,94.11
2378.00,94.09
2377.00,94.07
2376.00,94.05
2375.00,94.04
2374.00,94.04
2373.00,94.05
2372.00,94.05
2371.00,94.02
2370.00,93.97
2369.00,93.93
2368.00,93.93
2367.00,93.97
2366.00,94.00
2365.00,94.02
2364.00,94.03
2363.00,94.06
2362.00,94.12
2361.00,94.17
2360.00,94.18
2359.00,94.13
2358.00,94.07
2357.00,94.01
2356.00,93.96
2355.00,93.93
2354.00,93.93
2353.00,93.97
2352.00,94.03
2351.00,94.08
2350.00,94.09
2349.00,94.09
2348.00,94.10
2347.00,94.12
2346.00,94.14
2345.00,94.13
2344.00,94.10
2343.00,94.09
2342.00,94.09
2341.00,94.08
2340.00,94.10
2339.00,94.14
2338.00,94.18
2337.00,94.19
2336.00,94.17
2335.00,94.13
2334.00,94.10
2333.00,94.09
2332.00,94.07
2331.00,94.05
2330.00,94.04
2329.00,94.02
2328.00,94.01
2327.00,94.01
2326.00,94.02
2325.00,94.05
2324.00,94.07
2323.00,94.05
2322.00,94.00
2321.00,93.94
2320.00,93.90
2319.00,93.90
2318.00,93.92
2317.00,93.94
2316.00,93.95
2315.00,93.93
2314.00,93.91
2313.00,93.91
2312.00,93.91
2311.00,93.91
2310.00,93.89
2309.00,93.85
2308.00,93.82
2307.00,93.79
2306.00,93.78
2305.00,93.78
2304.00,93.79
2303.00,93.79
2302.00,93.79
2301.00,93.80
2300.00,93.80
2299.00,93.81
2298.00,93.81
2297.00,93.79
2296.00,93.78
2295.00,93.76
2294.00,93.73
2293.00,93.70
2292.00,93.67
2291.00,93.65
2290.00,93.64
2289.00,93.63
2288.00,93.61
2287.00,93.59
2286.00,93.56
2285.00,93.53
2284.00,93.50
2283.00,93.49
2282.00,93.49
2281.00,93.51
2280.00,93.51
2279.00,93.49
2278.00,93.43
2277.00,93.38
2276.00,93.35
2275.00,93.35
2274.00,93.36
2273.00,93.36
2272.00,93.35
2271.00,93.33
2270.00,93.32
2269.00,93.32
2268.00,93.31
2267.00,93.31
2266.00,93.29
2265.00,93.27
2264.00,93.24
2263.00,93.21
2262.00,93.20
2261.00,93.21
2260.00,93.24
2259.00,93.26
2258.00,93.27
2257.00,93.25
2256.00,93.22
2255.00,93.18
2254.00,93.14
2253.00,93.11
2252.00,93.11
2251.00,93.12
2250.00,93.13
2249.00,93.12
2248.00,93.09
2247.00,93.04
2246.00,92.99
2245.00,92.95
2244.00,92.95
2243.00,92.97
2242.00,92.99
2241.00,93.01
2240.00,93.03
2239.00,93.04
2238.00,93.04
2237.00,93.02
2236.00,92.98
2235.00,92.95
2234.00,92.92
2233.00,92.91
2232.00,92.92
2231.00,92.93
2230.00,92.94
2229.00,92.94
2228.00,92.92
2227.00,92.90
2226.00,92.88
2225.00,92.88
2224.00,92.92
2223.00,92.95
2222.00,92.95
2221.00,92.90
2220.00,92.85
2219.00,92.81
2218.00,92.80
2217.00,92.80
2216.00,92.82
2215.00,92.83
2214.00,92.84
2213.00,92.84
2212.00,92.82
2211.00,92.78
2210.00,92.70
2209.00,92.60
2208.00,92.56
2207.00,92.60
2206.00,92.67
2205.00,92.70
2204.00,92.69
2203.00,92.64
2202.00,92.59
2201.00,92.55
2200.00,92.52
2199.00,92.51
2198.00,92.53
2197.00,92.54
2196.00,92.55
2195.00,92.56
2194.00,92.59
2193.00,92.62
2192.00,92.64
2191.00,92.60
2190.00,92.53
2189.00,92.46
2188.00,92.41
2187.00,92.41
2186.00,92.42
2185.00,92.44
2184.00,92.46
2183.00,92.47
2182.00,92.49
2181.00,92.51
2180.00,92.51
2179.00,92.48
2178.00,92.45
2177.00,92.42
2176.00,92.41
2175.00,92.40
2174.00,92.38
2173.00,92.34
2172.00,92.31
2171.00,92.27
2170.00,92.23
2169.00,92.19
2168.00,92.15
2167.00,92.11
2166.00,92.06
2165.00,92.02
2164.00,91.99
2163.00,92.00
2162.00,92.01
2161.00,92.01
2160.00,92.02
2159.00,92.05
2158.00,92.11
2157.00,92.19
2156.00,92.27
2155.00,92.34
2154.00,92.38
2153.00,92.37
2152.00,92.35
2151.00,92.35
2150.00,92.40
2149.00,92.49
2148.00,92.57
2147.00,92.63
2146.00,92.66
2145.00,92.69
2144.00,92.73
2143.00,92.78
2142.00,92.82
2141.00,92.86
2140.00,92.88
2139.00,92.91
2138.00,92.93
2137.00,92.97
2136.00,93.01
2135.00,93.05
2134.00,93.07
2133.00,93.09
2132.00,93.14
2131.00,93.20
2130.00,93.27
2129.00,93.33
2128.00,93.37
2127.00,93.38
2126.00,93.36
2125.00,93.32
2124.00,93.29
2123.00,93.30
2122.00,93.34
2121.00,93.37
2120.00,93.39
2119.00,93.39
2118.00,93.36
2117.00,93.32
2116.00,93.29
2115.00,93.29
2114.00,93.32
2113.00,93.35
2112.00,93.36
2111.00,93.36
2110.00,93.35
2109.00,93.35
2108.00,93.35
2107.00,93.36
2106.00,93.37
2105.00,93.38
2104.00,93.38
2103.00,93.37
2102.00,93.36
2101.00,93.34
2100.00,93.32
2099.00,93.32
2098.00,93.32
2097.00,93.33
2096.00,93.36
2095.00,93.40
2094.00,93.43
2093.00,93.44
2092.00,93.45
2091.00,93.45
2090.00,93.44
2089.00,93.43
2088.00,93.42
2087.00,93.43
2086.00,93.43
2085.00,93.42
2084.00,93.39
2083.00,93.35
2082.00,93.34
2081.00,93.34
2080.00,93.35
2079.00,93.37
2078.00,93.38
2077.00,93.37
2076.00,93.35
2075.00,93.33
2074.00,93.33
2073.00,93.33
2072.00,93.32
2071.00,93.32
2070.00,93.31
2069.00,93.30
2068.00,93.29
2067.00,93.28
2066.00,93.28
2065.00,93.29
2064.00,93.31
2063.00,93.33
2062.00,93.33
2061.00,93.31
2060.00,93.28
2059.00,93.25
2058.00,93.23
2057.00,93.21
2056.00,93.17
2055.00,93.12
2054.00,93.06
2053.00,92.99
2052.00,92.92
2051.00,92.88
2050.00,92.84
2049.00,92.81
2048.00,92.79
2047.00,92.78
2046.00,92.77
2045.00,92.77
2044.00,92.78
2043.00,92.80
2042.00,92.82
2041.00,92.81
2040.00,92.77
2039.00,92.74
2038.00,92.71
2037.00,92.67
2036.00,92.60
2035.00,92.54
2034.00,92.52
2033.00,92.55
2032.00,92.60
2031.00,92.65
2030.00,92.69
2029.00,92.72
2028.00,92.72
2027.00,92.69
2026.00,92.65
2025.00,92.60
2024.00,92.58
2023.00,92.59
2022.00,92.60
2021.00,92.61
2020.00,92.64
2019.00,92.68
2018.00,92.73
2017.00,92.75
2016.00,92.76
2015.00,92.76
2014.00,92.78
2013.00,92.80
2012.00,92.83
2011.00,92.86
2010.00,92.87
2009.00,92.88
2008.00,92.88
2007.00,92.87
2006.00,92.88
2005.00,92.91
2004.00,92.98
2003.00,93.05
2002.00,93.09
2001.00,93.11
2000.00,93.12
1999.00,93.13
1998.00,93.14
1997.00,93.13
1996.00,93.11
1995.00,93.11
1994.00,93.13
1993.00,93.14
1992.00,93.14
1991.00,93.13
1990.00,93.09
1989.00,93.05
1988.00,93.03
1987.00,93.02
1986.00,93.02
1985.00,93.00
1984.00,92.97
1983.00,92.95
1982.00,92.94
1981.00,92.93
1980.00,92.91
1979.00,92.88
1978.00,92.85
1977.00,92.85
1976.00,92.85
1975.00,92.87
1974.00,92.90
1973.00,92.94
1972.00,92.99
1971.00,93.03
1970.00,93.04
1969.00,93.02
1968.00,93.02
1967.00,93.04
1966.00,93.09
1965.00,93.15
1964.00,93.19
1963.00,93.22
1962.00,93.25
1961.00,93.28
1960.00,93.31
1959.00,93.32
1958.00,93.32
1957.00,93.32
1956.00,93.36
1955.00,93.42
1954.00,93.50
1953.00,93.54
1952.00,93.57
1951.00,93.58
1950.00,93.58
1949.00,93.59
1948.00,93.60
1947.00,93.61
1946.00,93.62
1945.00,93.61
1944.00,93.61
1943.00,93.65
1942.00,93.71
1941.00,93.76
1940.00,93.78
1939.00,93.78
1938.00,93.79
1937.00,93.80
1936.00,93.81
1935.00,93.83
1934.00,93.85
1933.00,93.86
1932.00,93.88
1931.00,93.90
1930.00,93.90
1929.00,93.90
1928.00,93.92
1927.00,93.97
1926.00,94.00
1925.00,94.02
1924.00,94.03
1923.00,94.06
1922.00,94.08
1921.00,94.07
1920.00,94.06
1919.00,94.06
1918.00,94.07
1917.00,94.07
1916.00,94.06
1915.00,94.06
1914.00,94.08
1913.00,94.10
1912.00,94.10
1911.00,94.11
1910.00,94.13
1909.00,94.16
1908.00,94.19
1907.00,94.22
1906.00,94.22
1905.00,94.21
1904.00,94.21
1903.00,94.21
1902.00,94.22
1901.00,94.22
1900.00,94.22
1899.00,94.22
1898.00,94.20
1897.00,94.18
1896.00,94.18
1895.00,94.20
1894.00,94.22
1893.00,94.21
1892.00,94.17
1891.00,94.17
1890.00,94.21
1889.00,94.28
1888.00,94.32
1887.00,94.32
1886.00,94.31
1885.00,94.30
1884.00,94.30
1883.00,94.31
1882.00,94.32
1881.00,94.32
1880.00,94.34
1879.00,94.37
1878.00,94.39
1877.00,94.39
1876.00,94.37
1875.00,94.35
1874.00,94.33
1873.00,94.31
1872.00,94.29
1871.00,94.28
1870.00,94.28
1869.00,94.30
1868.00,94.35
1867.00,94.39
1866.00,94.41
1865.00,94.40
1864.00,94.38
1863.00,94.38
1862.00,94.39
1861.00,94.41
1860.00,94.43
1859.00,94.45
1858.00,94.46
1857.00,94.47
1856.00,94.48
1855.00,94.49
1854.00,94.51
1853.00,94.50
1852.00,94.49
1851.00,94.48
1850.00,94.47
1849.00,94.46
1848.00,94.44
1847.00,94.43
1846.00,94.43
1845.00,94.48
1844.00,94.54
1843.00,94.58
1842.00,94.55
1841.00,94.52
1840.00,94.53
1839.00,94.54
1838.00,94.54
1837.00,94.54
1836.00,94.54
1835.00,94.56
1834.00,94.58
1833.00,94.59
1832.00,94.60
1831.00,94.60
1830.00,94.59
1829.00,94.58
1828.00,94.56
1827.00,94.52
1826.00,94.53
1825.00,94.56
1824.00,94.58
1823.00,94.58
1822.00,94.56
1821.00,94.55
1820.00,94.56
1819.00,94.58
1818.00,94.61
1817.00,94.63
1816.00,94.63
1815.00,94.61
1814.00,94.58
1813.00,94.55
1812.00,94.56
1811.00,94.59
1810.00,94.63
1809.00,94.65
1808.00,94.66
1807.00,94.67
1806.00,94.66
1805.00,94.64
1804.00,94.60
1803.00,94.57
1802.00,94.57
1801.00,94.59
1800.00,94.61
1799.00,94.62
1798.00,94.62
1797.00,94.60
1796.00,94.58
1795.00,94.55
1794.00,94.52
1793.00,94.53
1792.00,94.57
1791.00,94.62
1790.00,94.63
1789.00,94.62
1788.00,94.58
1787.00,94.56
1786.00,94.55
1785.00,94.56
1784.00,94.55
1783.00,94.53
1782.00,94.50
1781.00,94.49
1780.00,94.51
1779.00,94.53
1778.00,94.52
1777.00,94.51
1776.00,94.50
1775.00,94.49
1774.00,94.49
1773.00,94.49
1772.00,94.46
1771.00,94.43
1770.00,94.41
1769.00,94.37
1768.00,94.34
1767.00,94.32
1766.00,94.31
1765.00,94.29
1764.00,94.28
1763.00,94.25
1762.00,94.23
1761.00,94.26
1760.00,94.23
1759.00,94.18
1758.00,94.15
1757.00,94.16
1756.00,94.16
1755.00,94.15
1754.00,94.11
1753.00,94.06
1752.00,94.02
1751.00,93.97
1750.00,93.93
1749.00,93.87
1748.00,93.82
1747.00,93.77
1746.00,93.71
1745.00,93.66
1744.00,93.61
1743.00,93.55
1742.00,93.49
1741.00,93.42
1740.00,93.37
1739.00,93.35
1738.00,93.31
1737.00,93.23
1736.00,93.14
1735.00,93.15
1734.00,93.21
1733.00,93.22
1732.00,93.17
1731.00,93.13
1730.00,93.12
1729.00,93.13
1728.00,93.11
1727.00,93.08
1726.00,93.05
1725.00,93.01
1724.00,92.96
1723.00,92.92
1722.00,92.87
1721.00,92.79
1720.00,92.68
1719.00,92.60
1718.00,92.55
1717.00,92.50
1716.00,92.41
1715.00,92.35
1714.00,92.29
1713.00,92.22
1712.00,92.13
1711.00,92.04
1710.00,91.95
1709.00,91.82
1708.00,91.66
1707.00,91.51
1706.00,91.38
1705.00,91.28
1704.00,91.17
1703.00,91.04
1702.00,90.86
1701.00,90.63
1700.00,90.36
1699.00,90.12
1698.00,89.92
1697.00,89.71
1696.00,89.46
1695.00,89.20
1694.00,88.96
1693.00,88.76
1692.00,88.56
1691.00,88.37
1690.00,88.18
1689.00,88.00
1688.00,87.84
1687.00,87.67
1686.00,87.45
1685.00,87.17
1684.00,86.83
1683.00,86.55
1682.00,86.37
1681.00,86.24
1680.00,86.11
1679.00,85.98
1678.00,85.85
1677.00,85.69
1676.00,85.48
1675.00,85.23
1674.00,85.01
1673.00,84.83
1672.00,84.66
1671.00,84.47
1670.00,84.25
1669.00,84.01
1668.00,83.80
1667.00,83.64
1666.00,83.52
1665.00,83.39
1664.00,83.21
1663.00,82.97
1662.00,82.72
1661.00,82.50
1660.00,82.32
1659.00,82.17
1658.00,82.06
1657.00,81.99
1656.00,81.90
1655.00,81.76
1654.00,81.47
1653.00,80.96
1652.00,80.56
1651.00,80.44
1650.00,80.45
1649.00,80.44
1648.00,80.35
1647.00,80.18
1646.00,79.98
1645.00,79.85
1644.00,79.80
1643.00,79.79
1642.00,79.79
1641.00,79.78
1640.00,79.77
1639.00,79.76
1638.00,79.75
1637.00,79.69
1636.00,79.56
1635.00,79.41
1634.00,79.36
1633.00,79.39
1632.00,79.46
1631.00,79.53
1630.00,79.58
1629.00,79.61
1628.00,79.63
1627.00,79.65
1626.00,79.70
1625.00,79.76
1624.00,79.83
1623.00,79.90
1622.00,79.97
1621.00,80.09
1620.00,80.24
1619.00,80.37
1618.00,80.49
1617.00,80.58
1616.00,80.66
1615.00,80.76
1614.00,80.90
1613.00,81.04
1612.00,81.19
1611.00,81.31
1610.00,81.41
1609.00,81.51
1608.00,81.60
1607.00,81.69
1606.00,81.77
1605.00,81.84
1604.00,81.88
1603.00,81.90
1602.00,81.92
1601.00,81.92
1600.00,81.93
1599.00,81.91
1598.00,81.87
1597.00,81.82
1596.00,81.77
1595.00,81.71
1594.00,81.64
1593.00,81.57
1592.00,81.51
1591.00,81.44
1590.00,81.36
1589.00,81.29
1588.00,81.21
1587.00,81.13
1586.00,81.03
1585.00,80.92
1584.00,80.80
1583.00,80.67
1582.00,80.53
1581.00,80.39
1580.00,80.28
1579.00,80.16
1578.00,80.01
1577.00,79.78
1576.00,79.49
1575.00,79.22
1574.00,79.07
1573.00,78.98
1572.00,78.89
1571.00,78.72
1570.00,78.43
1569.00,78.13
1568.00,77.91
1567.00,77.76
1566.00,77.63
1565.00,77.50
1564.00,77.40
1563.00,77.38
1562.00,77.42
1561.00,77.41
1560.00,77.23
1559.00,76.77
1558.00,76.37
1557.00,76.26
1556.00,76.27
1555.00,76.25
1554.00,76.20
1553.00,76.14
1552.00,76.10
1551.00,76.05
1550.00,76.00
1549.00,75.96
1548.00,75.98
1547.00,76.03
1546.00,76.08
1545.00,76.13
1544.00,76.17
1543.00,76.23
1542.00,76.27
1541.00,76.27
1540.00,76.23
1539.00,76.22
1538.00,76.33
1537.00,76.52
1536.00,76.73
1535.00,76.89
1534.00,77.00
1533.00,77.08
1532.00,77.19
1531.00,77.36
1530.00,77.55
1529.00,77.72
1528.00,77.86
1527.00,77.98
1526.00,78.11
1525.00,78.26
1524.00,78.40
1523.00,78.52
1522.00,78.60
1521.00,78.64
1520.00,78.68
1519.00,78.77
1518.00,78.88
1517.00,79.00
1516.00,79.11
1515.00,79.26
1514.00,79.45
1513.00,79.65
1512.00,79.85
1511.00,80.05
1510.00,80.24
1509.00,80.42
1508.00,80.61
1507.00,80.83
1506.00,81.03
1505.00,81.24
1504.00,81.47
1503.00,81.71
1502.00,81.97
1501.00,82.22
1500.00,82.45
1499.00,82.67
1498.00,82.89
1497.00,83.13
1496.00,83.36
1495.00,83.58
1494.00,83.79
1493.00,83.99
1492.00,84.17
1491.00,84.35
1490.00,84.57
1489.00,84.78
1488.00,84.99
1487.00,85.19
1486.00,85.38
1485.00,85.54
1484.00,85.66
1483.00,85.77
1482.00,85.88
1481.00,85.97
1480.00,86.03
1479.00,86.08
1478.00,86.09
1477.00,86.07
1476.00,86.00
1475.00,85.89
1474.00,85.76
1473.00,85.60
1472.00,85.43
1471.00,85.31
1470.00,85.25
1469.00,85.19
1468.00,85.14
1467.00,85.07
1466.00,84.98
1465.00,84.87
1464.00,84.78
1463.00,84.75
1462.00,84.79
1461.00,84.85
1460.00,84.89
1459.00,84.88
1458.00,84.84
1457.00,84.73
1456.00,84.59
1455.00,84.50
1454.00,84.48
1453.00,84.49
1452.00,84.49
1451.00,84.49
1450.00,84.50
1449.00,84.52
1448.00,84.53
1447.00,84.53
1446.00,84.53
1445.00,84.54
1444.00,84.55
1443.00,84.56
1442.00,84.58
1441.00,84.62
1440.00,84.65
1439.00,84.69
1438.00,84.71
1437.00,84.71
1436.00,84.68
1435.00,84.67
1434.00,84.69
1433.00,84.72
1432.00,84.72
1431.00,84.69
1430.00,84.64
1429.00,84.57
1428.00,84.48
1427.00,84.38
1426.00,84.27
1425.00,84.14
1424.00,84.00
1423.00,83.90
1422.00,83.83
1421.00,83.75
1420.00,83.58
1419.00,83.35
1418.00,83.15
1417.00,83.01
1416.00,82.90
1415.00,82.79
1414.00,82.68
1413.00,82.55
1412.00,82.41
1411.00,82.25
1410.00,82.11
1409.00,81.98
1408.00,81.84
1407.00,81.68
1406.00,81.52
1405.00,81.35
1404.00,81.17
1403.00,81.03
1402.00,80.92
1401.00,80.81
1400.00,80.67
1399.00,80.53
1398.00,80.42
1397.00,80.35
1396.00,80.30
1395.00,80.26
1394.00,80.25
1393.00,80.26
1392.00,80.31
1391.00,80.37
1390.00,80.45
1389.00,80.51
1388.00,80.56
1387.00,80.61
1386.00,80.71
1385.00,80.83
1384.00,80.97
1383.00,81.12
1382.00,81.28
1381.00,81.42
1380.00,81.57
1379.00,81.72
1378.00,81.87
1377.00,82.01
1376.00,82.15
1375.00,82.31
1374.00,82.48
1373.00,82.65
1372.00,82.81
1371.00,82.96
1370.00,83.10
1369.00,83.21
1368.00,83.33
1367.00,83.46
1366.00,83.61
1365.00,83.75
1364.00,83.89
1363.00,84.02
1362.00,84.14
1361.00,84.26
1360.00,84.38
1359.00,84.49
1358.00,84.59
1357.00,84.68
1356.00,84.76
1355.00,84.84
1354.00,84.91
1353.00,84.96
1352.00,85.00
1351.00,85.03
1350.00,85.06
1349.00,85.09
1348.00,85.12
1347.00,85.16
1346.00,85.19
1345.00,85.22
1344.00,85.25
1343.00,85.27
1342.00,85.29
1341.00,85.31
1340.00,85.33
1339.00,85.35
1338.00,85.39
1337.00,85.45
1336.00,85.51
1335.00,85.56
1334.00,85.60
1333.00,85.63
1332.00,85.65
1331.00,85.66
1330.00,85.66
1329.00,85.66
1328.00,85.65
1327.00,85.64
1326.00,85.62
1325.00,85.60
1324.00,85.58
1323.00,85.56
1322.00,85.54
1321.00,85.52
1320.00,85.50
1319.00,85.48
1318.00,85.47
1317.00,85.46
1316.00,85.44
1315.00,85.43
1314.00,85.42
1313.00,85.43
1312.00,85.45
1311.00,85.47
1310.00,85.49
1309.00,85.51
1308.00,85.51
1307.00,85.50
1306.00,85.48
1305.00,85.44
1304.00,85.40
1303.00,85.37
1302.00,85.34
1301.00,85.31
1300.00,85.28
1299.00,85.25
1298.00,85.24
1297.00,85.22
1296.00,85.21
1295.00,85.19
1294.00,85.18
1293.00,85.20
1292.00,85.23
1291.00,85.29
1290.00,85.35
1289.00,85.42
1288.00,85.48
1287.00,85.53
1286.00,85.59
1285.00,85.64
1284.00,85.68
1283.00,85.72
1282.00,85.76
1281.00,85.79
1280.00,85.83
1279.00,85.86
1278.00,85.88
1277.00,85.89
1276.00,85.90
1275.00,85.90
1274.00,85.90
1273.00,85.90
1272.00,85.90
1271.00,85.90
1270.00,85.91
1269.00,85.92
1268.00,85.92
1267.00,85.92
1266.00,85.92
1265.00,85.92
1264.00,85.92
1263.00,85.90
1262.00,85.87
1261.00,85.84
1260.00,85.80
1259.00,85.77
1258.00,85.73
1257.00,85.69
1256.00,85.65
1255.00,85.63
1254.00,85.61
1253.00,85.59
1252.00,85.57
1251.00,85.54
1250.00,85.50
1249.00,85.47
1248.00,85.42
1247.00,85.38
1246.00,85.35
1245.00,85.33
1244.00,85.31
1243.00,85.29
1242.00,85.28
1241.00,85.27
1240.00,85.25
1239.00,85.24
1238.00,85.23
1237.00,85.23
1236.00,85.23
1235.00,85.23
1234.00,85.23
1233.00,85.24
1232.00,85.25
1231.00,85.27
1230.00,85.30
1229.00,85.34
1228.00,85.39
1227.00,85.44
1226.00,85.50
1225.00,85.55
1224.00,85.61
1223.00,85.68
1222.00,85.76
1221.00,85.83
1220.00,85.90
1219.00,85.95
1218.00,86.00
1217.00,86.07
1216.00,86.16
1215.00,86.25
1214.00,86.33
1213.00,86.37
1212.00,86.40
1211.00,86.43
1210.00,86.48
1209.00,86.52
1208.00,86.56
1207.00,86.59
1206.00,86.62
1205.00,86.67
1204.00,86.71
1203.00,86.74
1202.00,86.77
1201.00,86.79
1200.00,86.82
1199.00,86.88
1198.00,86.94
1197.00,86.99
1196.00,87.03
1195.00,87.05
1194.00,87.07
1193.00,87.08
1192.00,87.09
1191.00,87.11
1190.00,87.12
1189.00,87.13
1188.00,87.14
1187.00,87.16
1186.00,87.17
1185.00,87.18
1184.00,87.19
1183.00,87.20
1182.00,87.21
1181.00,87.19
1180.00,87.16
1179.00,87.12
1178.00,87.09
1177.00,87.07
1176.00,87.05
1175.00,87.05
1174.00,87.06
1173.00,87.08
1172.00,87.08
1171.00,87.09
1170.00,87.10
1169.00,87.13
1168.00,87.18
1167.00,87.24
1166.00,87.30
1165.00,87.35
1164.00,87.40
1163.00,87.44
1162.00,87.46
1161.00,87.47
1160.00,87.46
1159.00,87.46
1158.00,87.49
1157.00,87.54
1156.00,87.60
1155.00,87.66
1154.00,87.70
1153.00,87.74
1152.00,87.79
1151.00,87.86
1150.00,87.93
1149.00,88.00
1148.00,88.06
1147.00,88.10
1146.00,88.14
1145.00,88.18
1144.00,88.21
1143.00,88.23
1142.00,88.23
1141.00,88.23
1140.00,88.24
1139.00,88.26
1138.00,88.27
1137.00,88.27
1136.00,88.24
1135.00,88.21
1134.00,88.18
1133.00,88.15
1132.00,88.12
1131.00,88.09
1130.00,88.06
1129.00,88.03
1128.00,88.01
1127.00,88.00
1126.00,87.98
1125.00,87.97
1124.00,87.97
1123.00,87.98
1122.00,88.00
1121.00,88.00
1120.00,87.98
1119.00,87.94
1118.00,87.91
1117.00,87.90
1116.00,87.90
1115.00,87.89
1114.00,87.89
1113.00,87.89
1112.00,87.89
1111.00,87.88
1110.00,87.88
1109.00,87.88
1108.00,87.90
1107.00,87.91
1106.00,87.89
1105.00,87.86
1104.00,87.84
1103.00,87.83
1102.00,87.84
1101.00,87.85
1100.00,87.85
1099.00,87.83
1098.00,87.79
1097.00,87.75
1096.00,87.71
1095.00,87.69
1094.00,87.67
1093.00,87.65
1092.00,87.62
1091.00,87.59
1090.00,87.55
1089.00,87.51
1088.00,87.46
1087.00,87.43
1086.00,87.40
1085.00,87.39
1084.00,87.39
1083.00,87.38
1082.00,87.37
1081.00,87.33
1080.00,87.28
1079.00,87.22
1078.00,87.17
1077.00,87.18
1076.00,87.22
1075.00,87.27
1074.00,87.31
1073.00,87.32
1072.00,87.31
1071.00,87.31
1070.00,87.33
1069.00,87.36
1068.00,87.40
1067.00,87.43
1066.00,87.45
1065.00,87.46
1064.00,87.44
1063.00,87.42
1062.00,87.43
1061.00,87.47
1060.00,87.53
1059.00,87.58
1058.00,87.61
1057.00,87.60
1056.00,87.58
1055.00,87.56
1054.00,87.55
1053.00,87.52
1052.00,87.47
1051.00,87.40
1050.00,87.33
1049.00,87.29
1048.00,87.28
1047.00,87.28
1046.00,87.30
1045.00,87.32
1044.00,87.33
1043.00,87.36
1042.00,87.39
1041.00,87.45
1040.00,87.53
1039.00,87.61
1038.00,87.70
1037.00,87.77
1036.00,87.84
1035.00,87.91
1034.00,87.97
1033.00,88.03
1032.00,88.08
1031.00,88.11
1030.00,88.14
1029.00,88.18
1028.00,88.22
1027.00,88.26
1026.00,88.32
1025.00,88.40
1024.00,88.49
1023.00,88.58
1022.00,88.65
1021.00,88.72
1020.00,88.79
1019.00,88.87
1018.00,88.94
1017.00,88.99
1016.00,89.04
1015.00,89.07
1014.00,89.11
1013.00,89.14
1012.00,89.19
1011.00,89.25
1010.00,89.31
1009.00,89.37
1008.00,89.42
1007.00,89.46
1006.00,89.51
1005.00,89.56
1004.00,89.60
1003.00,89.64
1002.00,89.66
1001.00,89.67
1000.00,89.67
999.00,89.67
998.00,89.69
997.00,89.72
996.00,89.76
995.00,89.80
994.00,89.84
993.00,89.86
992.00,89.88
991.00,89.91
990.00,89.94
989.00,89.98
988.00,90.01
987.00,90.03
986.00,90.05
985.00,90.08
984.00,90.11
983.00,90.16
982.00,90.20
981.00,90.24
980.00,90.26
979.00,90.28
978.00,90.30
977.00,90.32
976.00,90.34
975.00,90.35
974.00,90.36
973.00,90.37
972.00,90.38
971.00,90.40
970.00,90.43
969.00,90.44
968.00,90.43
967.00,90.41
966.00,90.41
965.00,90.43
964.00,90.45
963.00,90.47
962.00,90.49
961.00,90.51
960.00,90.52
959.00,90.54
958.00,90.54
957.00,90.54
956.00,90.55
955.00,90.55
954.00,90.54
953.00,90.55
952.00,90.55
951.00,90.56
950.00,90.57
949.00,90.58
948.00,90.60
947.00,90.62
946.00,90.64
945.00,90.64
944.00,90.63
943.00,90.61
942.00,90.59
941.00,90.56
940.00,90.55
939.00,90.56
938.00,90.57
937.00,90.58
936.00,90.57
935.00,90.54
934.00,90.52
933.00,90.51
932.00,90.49
931.00,90.47
930.00,90.45
929.00,90.44
928.00,90.44
927.00,90.42
926.00,90.40
925.00,90.38
924.00,90.38
923.00,90.38
922.00,90.39
921.00,90.41
920.00,90.44
919.00,90.47
918.00,90.48
917.00,90.49
916.00,90.49
915.00,90.50
914.00,90.52
913.00,90.55
912.00,90.57
911.00,90.60
910.00,90.61
909.00,90.63
908.00,90.63
907.00,90.63
906.00,90.61
905.00,90.57
904.00,90.53
903.00,90.50
902.00,90.48
901.00,90.47
900.00,90.45
899.00,90.41
898.00,90.38
897.00,90.36
896.00,90.35
895.00,90.33
894.00,90.31
893.00,90.31
892.00,90.32
891.00,90.32
890.00,90.29
889.00,90.23
888.00,90.16
887.00,90.08
886.00,90.02
885.00,89.97
884.00,89.91
883.00,89.85
882.00,89.78
881.00,89.72
880.00,89.70
879.00,89.70
878.00,89.71
877.00,89.73
876.00,89.74
875.00,89.73
874.00,89.68
873.00,89.61
872.00,89.55
871.00,89.54
870.00,89.57
869.00,89.61
868.00,89.64
867.00,89.64
866.00,89.62
865.00,89.60
864.00,89.58
863.00,89.57
862.00,89.57
861.00,89.59
860.00,89.61
859.00,89.60
858.00,89.58
857.00,89.53
856.00,89.47
855.00,89.40
854.00,89.34
853.00,89.30
852.00,89.29
851.00,89.29
850.00,89.26
849.00,89.21
848.00,89.14
847.00,89.07
846.00,89.02
845.00,88.98
844.00,88.94
843.00,88.88
842.00,88.81
841.00,88.75
840.00,88.69
839.00,88.64
838.00,88.59
837.00,88.55
836.00,88.49
835.00,88.42
834.00,88.34
833.00,88.28
832.00,88.25
831.00,88.24
830.00,88.22
829.00,88.20
828.00,88.17
827.00,88.14
826.00,88.10
825.00,88.06
824.00,87.99
823.00,87.90
822.00,87.83
821.00,87.79
820.00,87.78
819.00,87.78
818.00,87.76
817.00,87.73
816.00,87.69
815.00,87.65
814.00,87.60
813.00,87.55
812.00,87.48
811.00,87.39
810.00,87.31
809.00,87.25
808.00,87.22
807.00,87.20
806.00,87.15
805.00,87.08
804.00,86.99
803.00,86.91
802.00,86.84
801.00,86.77
800.00,86.68
799.00,86.60
798.00,86.54
797.00,86.49
796.00,86.42
795.00,86.33
794.00,86.26
793.00,86.19
792.00,86.15
791.00,86.11
790.00,86.07
789.00,86.02
788.00,85.98
787.00,85.96
786.00,85.95
785.00,85.95
784.00,85.92
783.00,85.89
782.00,85.85
781.00,85.81
780.00,85.78
779.00,85.76
778.00,85.73
777.00,85.71
776.00,85.69
775.00,85.69
774.00,85.69
773.00,85.69
772.00,85.64
771.00,85.57
770.00,85.50
769.00,85.44
768.00,85.40
767.00,85.37
766.00,85.37
765.00,85.36
764.00,85.33
763.00,85.27
762.00,85.21
761.00,85.14
760.00,85.07
759.00,85.01
758.00,84.94
757.00,84.89
756.00,84.85
755.00,84.81
754.00,84.74
753.00,84.66
752.00,84.58
751.00,84.51
750.00,84.46
749.00,84.43
748.00,84.41
747.00,84.38
746.00,84.33
745.00,84.26
744.00,84.18
743.00,84.11
742.00,84.07
741.00,84.04
740.00,83.99
739.00,83.92
738.00,83.84
737.00,83.76
736.00,83.70
735.00,83.68
734.00,83.67
733.00,83.64
732.00,83.58
731.00,83.51
730.00,83.45
729.00,83.40
728.00,83.37
727.00,83.35
726.00,83.29
725.00,83.19
724.00,83.07
723.00,82.95
722.00,82.87
721.00,82.80
720.00,82.74
719.00,82.70
718.00,82.67
717.00,82.65
716.00,82.62
715.00,82.59
714.00,82.55
713.00,82.50
712.00,82.43
711.00,82.37
710.00,82.33
709.00,82.29
708.00,82.25
707.00,82.20
706.00,82.15
705.00,82.09
704.00,82.01
703.00,81.93
702.00,81.86
701.00,81.79
700.00,81.71
699.00,81.64
698.00,81.58
697.00,81.53
696.00,81.47
695.00,81.42
694.00,81.39
693.00,81.38
692.00,81.38
691.00,81.39
690.00,81.38
689.00,81.33
688.00,81.24
687.00,81.14
686.00,81.06
685.00,80.98
684.00,80.89
683.00,80.84
682.00,80.84
681.00,80.87
680.00,80.86
679.00,80.80
678.00,80.70
677.00,80.59
676.00,80.51
675.00,80.47
674.00,80.47
673.00,80.50
672.00,80.53
671.00,80.58
670.00,80.63
669.00,80.58
668.00,80.31
667.00,80.04
666.00,79.96
665.00,79.96
664.00,79.94
663.00,79.89
662.00,79.82
661.00,79.75
660.00,79.66
659.00,79.57
658.00,79.51
657.00,79.48
656.00,79.48
655.00,79.49
654.00,79.49
653.00,79.47
652.00,79.44
651.00,79.44
650.00,79.45
649.00,79.40
648.00,79.27
647.00,79.10
646.00,78.98
645.00,78.93
644.00,78.93
643.00,78.95
642.00,78.98
641.00,78.99
640.00,78.98
639.00,78.97
638.00,78.98
637.00,78.96
636.00,78.85
635.00,78.69
634.00,78.60
633.00,78.60
632.00,78.65
631.00,78.71
630.00,78.81
629.00,78.95
628.00,79.08
627.00,79.13
626.00,79.05
625.00,78.83
624.00,78.52
623.00,78.23
622.00,78.05
621.00,77.99
620.00,77.94
619.00,77.84
618.00,77.73
617.00,77.68
616.00,77.75
615.00,77.92
614.00,78.06
613.00,78.08
612.00,77.99
611.00,77.93
610.00,77.89
609.00,77.79
608.00,77.57
607.00,77.35
606.00,77.25
605.00,77.27
604.00,77.25
603.00,77.07
602.00,76.76
601.00,76.51
600.00,76.50
599.00,76.78
598.00,77.14
597.00,77.36
596.00,77.45
595.00,77.53
594.00,77.56
593.00,77.38
592.00,77.05
591.00,76.91
590.00,77.17
589.00,77.67
588.00,78.10
587.00,78.35
586.00,78.42
585.00,78.29
584.00,78.01
583.00,77.80
582.00,77.82
581.00,77.96
580.00,78.02
579.00,78.04
578.00,78.16
577.00,78.24
576.00,77.98
575.00,77.36
574.00,76.70
573.00,76.28
572.00,76.14
571.00,76.31
570.00,76.76
569.00,77.27
568.00,77.60
567.00,77.61
566.00,77.35
565.00,76.96
564.00,76.53
563.00,76.18
562.00,75.93
561.00,75.79
560.00,75.83
559.00,76.08
558.00,76.34
557.00,76.29
556.00,75.95
555.00,75.62
554.00,75.37
553.00,75.04
552.00,74.59
551.00,74.63
550.00,75.12
