Created as New Dataset,12.1 Red Wool Corriedale sheep
cm-1,%T
4000.00,101.20
3999.00,101.22
3998.00,101.23
3997.00,101.23
3996.00,101.21
3995.00,101.17
3994.00,101.12
3993.00,101.09
3992.00,101.07
3991.00,101.08
3990.00,101.11
3989.00,101.14
3988.00,101.17
3987.00,101.20
3986.00,101.22
3985.00,101.23
3984.00,101.22
3983.00,101.20
3982.00,101.18
3981.00,101.18
3980.00,101.19
3979.00,101.22
3978.00,101.24
3977.00,101.26
3976.00,101.27
3975.00,101.26
3974.00,101.24
3973.00,101.22
3972.00,101.19
3971.00,101.17
3970.00,101.16
3969.00,101.16
3968.00,101.16
3967.00,101.16
3966.00,101.17
3965.00,101.17
3964.00,101.17
3963.00,101.17
3962.00,101.17
3961.00,101.18
3960.00,101.18
3959.00,101.17
3958.00,101.17
3957.00,101.19
3956.00,101.22
3955.00,101.25
3954.00,101.27
3953.00,101.28
3952.00,101.26
3951.00,101.23
3950.00,101.19
3949.00,101.16
3948.00,101.15
3947.00,101.15
3946.00,101.15
3945.00,101.16
3944.00,101.16
3943.00,101.17
3942.00,101.18
3941.00,101.18
3940.00,101.17
3939.00,101.17
3938.00,101.19
3937.00,101.20
3936.00,101.20
3935.00,101.18
3934.00,101.16
3933.00,101.14
3932.00,101.14
3931.00,101.14
3930.00,101.15
3929.00,101.16
3928.00,101.18
3927.00,101.18
3926.00,101.18
3925.00,101.19
3924.00,101.19
3923.00,101.17
3922.00,101.15
3921.00,101.13
3920.00,101.12
3919.00,101.11
3918.00,101.10
3917.00,101.11
3916.00,101.13
3915.00,101.14
3914.00,101.15
3913.00,101.15
3912.00,101.15
3911.00,101.16
3910.00,101.16
3909.00,101.16
3908.00,101.14
3907.00,101.11
3906.00,101.09
3905.00,101.08
3904.00,101.08
3903.00,101.06
3902.00,101.02
3901.00,100.97
3900.00,100.96
3899.00,100.98
3898.00,101.03
3897.00,101.08
3896.00,101.12
3895.00,101.15
3894.00,101.16
3893.00,101.15
3892.00,101.14
3891.00,101.14
3890.00,101.15
3889.00,101.12
3888.00,101.06
3887.00,101.02
3886.00,101.04
3885.00,101.08
3884.00,101.09
3883.00,101.06
3882.00,101.04
3881.00,101.07
3880.00,101.13
3879.00,101.17
3878.00,101.17
3877.00,101.14
3876.00,101.11
3875.00,101.10
3874.00,101.11
3873.00,101.08
3872.00,101.02
3871.00,100.99
3870.00,101.02
3869.00,101.06
3868.00,101.05
3867.00,101.00
3866.00,100.98
3865.00,101.03
3864.00,101.08
3863.00,101.10
3862.00,101.10
3861.00,101.10
3860.00,101.10
3859.00,101.11
3858.00,101.11
3857.00,101.09
3856.00,101.06
3855.00,101.04
3854.00,101.05
3853.00,101.05
3852.00,101.05
3851.00,101.03
3850.00,101.03
3849.00,101.04
3848.00,101.07
3847.00,101.08
3846.00,101.08
3845.00,101.07
3844.00,101.08
3843.00,101.10
3842.00,101.11
3841.00,101.10
3840.00,101.08
3839.00,101.07
3838.00,101.06
3837.00,101.05
3836.00,101.04
3835.00,101.03
3834.00,101.02
3833.00,101.01
3832.00,101.03
3831.00,101.06
3830.00,101.10
3829.00,101.11
3828.00,101.12
3827.00,101.14
3826.00,101.16
3825.00,101.15
3824.00,101.10
3823.00,101.03
3822.00,101.02
3821.00,101.06
3820.00,101.09
3819.00,101.07
3818.00,101.03
3817.00,101.03
3816.00,101.08
3815.00,101.12
3814.00,101.10
3813.00,101.06
3812.00,101.05
3811.00,101.07
3810.00,101.09
3809.00,101.08
3808.00,101.08
3807.00,101.10
3806.00,101.13
3805.00,101.10
3804.00,101.05
3803.00,101.02
3802.00,101.05
3801.00,101.10
3800.00,101.09
3799.00,101.03
3798.00,100.99
3797.00,101.02
3796.00,101.09
3795.00,101.13
3794.00,101.13
3793.00,101.11
3792.00,101.10
3791.00,101.10
3790.00,101.11
3789.00,101.12
3788.00,101.13
3787.00,101.12
3786.00,101.11
3785.00,101.10
3784.00,101.09
3783.00,101.08
3782.00,101.05
3781.00,101.04
3780.00,101.04
3779.00,101.05
3778.00,101.04
3777.00,101.01
3776.00,100.99
3775.00,100.99
3774.00,101.01
3773.00,101.02
3772.00,101.02
3771.00,101.03
3770.00,101.05
3769.00,101.06
3768.00,101.04
3767.00,101.02
3766.00,101.01
3765.00,101.04
3764.00,101.06
3763.00,101.06
3762.00,101.04
3761.00,101.04
3760.00,101.04
3759.00,101.03
3758.00,101.01
3757.00,101.01
3756.00,101.02
3755.00,101.01
3754.00,101.01
3753.00,101.00
3752.00,100.99
3751.00,100.96
3750.00,100.94
3749.00,100.96
3748.00,100.95
3747.00,100.87
3746.00,100.78
3745.00,100.79
3744.00,100.87
3743.00,100.92
3742.00,100.91
3741.00,100.88
3740.00,100.88
3739.00,100.90
3738.00,100.91
3737.00,100.93
3736.00,100.94
3735.00,100.91
3734.00,100.85
3733.00,100.80
3732.00,100.82
3731.00,100.87
3730.00,100.89
3729.00,100.88
3728.00,100.87
3727.00,100.87
3726.00,100.89
3725.00,100.89
3724.00,100.88
3723.00,100.88
3722.00,100.88
3721.00,100.89
3720.00,100.88
3719.00,100.88
3718.00,100.89
3717.00,100.91
3716.00,100.91
3715.00,100.90
3714.00,100.88
3713.00,100.87
3712.00,100.86
3711.00,100.85
3710.00,100.85
3709.00,100.86
3708.00,100.88
3707.00,100.91
3706.00,100.93
3705.00,100.92
3704.00,100.89
3703.00,100.86
3702.00,100.82
3701.00,100.80
3700.00,100.78
3699.00,100.77
3698.00,100.77
3697.00,100.79
3696.00,100.82
3695.00,100.84
3694.00,100.84
3693.00,100.85
3692.00,100.83
3691.00,100.78
3690.00,100.70
3689.00,100.63
3688.00,100.63
3687.00,100.65
3686.00,100.68
3685.00,100.69
3684.00,100.70
3683.00,100.69
3682.00,100.67
3681.00,100.65
3680.00,100.66
3679.00,100.68
3678.00,100.66
3677.00,100.62
3676.00,100.57
3675.00,100.54
3674.00,100.50
3673.00,100.42
3672.00,100.35
3671.00,100.34
3670.00,100.36
3669.00,100.37
3668.00,100.35
3667.00,100.34
3666.00,100.34
3665.00,100.36
3664.00,100.39
3663.00,100.40
3662.00,100.39
3661.00,100.36
3660.00,100.33
3659.00,100.28
3658.00,100.23
3657.00,100.22
3656.00,100.22
3655.00,100.21
3654.00,100.14
3653.00,100.04
3652.00,99.96
3651.00,99.93
3650.00,99.91
3649.00,99.87
3648.00,99.82
3647.00,99.79
3646.00,99.76
3645.00,99.74
3644.00,99.72
3643.00,99.71
3642.00,99.73
3641.00,99.74
3640.00,99.72
3639.00,99.69
3638.00,99.66
3637.00,99.63
3636.00,99.59
3635.00,99.57
3634.00,99.56
3633.00,99.53
3632.00,99.45
3631.00,99.35
3630.00,99.26
3629.00,99.21
3628.00,99.17
3627.00,99.12
3626.00,99.07
3625.00,99.04
3624.00,99.03
3623.00,99.02
3622.00,98.98
3621.00,98.91
3620.00,98.85
3619.00,98.81
3618.00,98.79
3617.00,98.75
3616.00,98.70
3615.00,98.64
3614.00,98.61
3613.00,98.61
3612.00,98.61
3611.00,98.58
3610.00,98.54
3609.00,98.51
3608.00,98.49
3607.00,98.46
3606.00,98.42
3605.00,98.39
3604.00,98.39
3603.00,98.38
3602.00,98.37
3601.00,98.34
3600.00,98.30
3599.00,98.24
3598.00,98.18
3597.00,98.12
3596.00,98.06
3595.00,98.01
3594.00,97.97
3593.00,97.93
3592.00,97.90
3591.00,97.86
3590.00,97.82
3589.00,97.78
3588.00,97.73
3587.00,97.68
3586.00,97.61
3585.00,97.55
3584.00,97.50
3583.00,97.47
3582.00,97.47
3581.00,97.47
3580.00,97.45
3579.00,97.42
3578.00,97.38
3577.00,97.33
3576.00,97.30
3575.00,97.26
3574.00,97.22
3573.00,97.17
3572.00,97.12
3571.00,97.05
3570.00,96.99
3569.00,96.93
3568.00,96.89
3567.00,96.87
3566.00,96.84
3565.00,96.81
3564.00,96.77
3563.00,96.73
3562.00,96.69
3561.00,96.66
3560.00,96.62
3559.00,96.57
3558.00,96.52
3557.00,96.47
3556.00,96.42
3555.00,96.40
3554.00,96.38
3553.00,96.36
3552.00,96.34
3551.00,96.29
3550.00,96.24
3549.00,96.18
3548.00,96.12
3547.00,96.06
3546.00,96.00
3545.00,95.94
3544.00,95.89
3543.00,95.86
3542.00,95.85
3541.00,95.83
3540.00,95.80
3539.00,95.75
3538.00,95.71
3537.00,95.66
3536.00,95.62
3535.00,95.58
3534.00,95.54
3533.00,95.50
3532.00,95.46
3531.00,95.42
3530.00,95.38
3529.00,95.33
3528.00,95.28
3527.00,95.24
3526.00,95.18
3525.00,95.12
3524.00,95.06
3523.00,95.02
3522.00,95.00
3521.00,94.99
3520.00,94.98
3519.00,94.96
3518.00,94.92
3517.00,94.87
3516.00,94.80
3515.00,94.74
3514.00,94.69
3513.00,94.66
3512.00,94.64
3511.00,94.64
3510.00,94.63
3509.00,94.60
3508.00,94.56
3507.00,94.52
3506.00,94.48
3505.00,94.44
3504.00,94.38
3503.00,94.31
3502.00,94.25
3501.00,94.20
3500.00,94.17
3499.00,94.15
3498.00,94.13
3497.00,94.11
3496.00,94.08
3495.00,94.05
3494.00,94.01
3493.00,93.96
3492.00,93.90
3491.00,93.85
3490.00,93.81
3489.00,93.78
3488.00,93.76
3487.00,93.76
3486.00,93.76
3485.00,93.76
3484.00,93.73
3483.00,93.69
3482.00,93.63
3481.00,93.58
3480.00,93.54
3479.00,93.51
3478.00,93.48
3477.00,93.43
3476.00,93.38
3475.00,93.33
3474.00,93.28
3473.00,93.24
3472.00,93.21
3471.00,93.19
3470.00,93.16
3469.00,93.13
3468.00,93.09
3467.00,93.06
3466.00,93.03
3465.00,93.00
3464.00,92.99
3463.00,92.96
3462.00,92.94
3461.00,92.92
3460.00,92.90
3459.00,92.88
3458.00,92.86
3457.00,92.83
3456.00,92.80
3455.00,92.76
3454.00,92.71
3453.00,92.66
3452.00,92.62
3451.00,92.59
3450.00,92.57
3449.00,92.55
3448.00,92.51
3447.00,92.47
3446.00,92.43
3445.00,92.40
3444.00,92.39
3443.00,92.39
3442.00,92.38
3441.00,92.34
3440.00,92.30
3439.00,92.24
3438.00,92.20
3437.00,92.16
3436.00,92.13
3435.00,92.10
3434.00,92.08
3433.00,92.06
3432.00,92.04
3431.00,92.02
3430.00,91.99
3429.00,91.97
3428.00,91.95
3427.00,91.92
3426.00,91.89
3425.00,91.84
3424.00,91.79
3423.00,91.74
3422.00,91.70
3421.00,91.66
3420.00,91.63
3419.00,91.59
3418.00,91.55
3417.00,91.53
3416.00,91.52
3415.00,91.52
3414.00,91.52
3413.00,91.50
3412.00,91.46
3411.00,91.41
3410.00,91.36
3409.00,91.33
3408.00,91.30
3407.00,91.29
3406.00,91.28
3405.00,91.25
3404.00,91.22
3403.00,91.18
3402.00,91.16
3401.00,91.14
3400.00,91.13
3399.00,91.12
3398.00,91.09
3397.00,91.04
3396.00,90.99
3395.00,90.96
3394.00,90.93
3393.00,90.92
3392.00,90.91
3391.00,90.89
3390.00,90.87
3389.00,90.85
3388.00,90.84
3387.00,90.85
3386.00,90.85
3385.00,90.84
3384.00,90.81
3383.00,90.78
3382.00,90.76
3381.00,90.74
3380.00,90.74
3379.00,90.73
3378.00,90.72
3377.00,90.70
3376.00,90.68
3375.00,90.65
3374.00,90.61
3373.00,90.57
3372.00,90.54
3371.00,90.52
3370.00,90.50
3369.00,90.48
3368.00,90.45
3367.00,90.41
3366.00,90.37
3365.00,90.34
3364.00,90.30
3363.00,90.27
3362.00,90.25
3361.00,90.24
3360.00,90.23
3359.00,90.22
3358.00,90.19
3357.00,90.16
3356.00,90.14
3355.00,90.12
3354.00,90.11
3353.00,90.10
3352.00,90.07
3351.00,90.05
3350.00,90.02
3349.00,90.01
3348.00,90.00
3347.00,89.99
3346.00,89.98
3345.00,89.96
3344.00,89.92
3343.00,89.88
3342.00,89.84
3341.00,89.82
3340.00,89.81
3339.00,89.81
3338.00,89.80
3337.00,89.77
3336.00,89.73
3335.00,89.68
3334.00,89.64
3333.00,89.62
3332.00,89.60
3331.00,89.58
3330.00,89.57
3329.00,89.54
3328.00,89.52
3327.00,89.49
3326.00,89.46
3325.00,89.43
3324.00,89.39
3323.00,89.36
3322.00,89.34
3321.00,89.33
3320.00,89.32
3319.00,89.30
3318.00,89.26
3317.00,89.22
3316.00,89.18
3315.00,89.15
3314.00,89.12
3313.00,89.09
3312.00,89.05
3311.00,89.01
3310.00,88.98
3309.00,88.97
3308.00,88.96
3307.00,88.94
3306.00,88.91
3305.00,88.88
3304.00,88.84
3303.00,88.81
3302.00,88.78
3301.00,88.76
3300.00,88.73
3299.00,88.70
3298.00,88.66
3297.00,88.62
3296.00,88.59
3295.00,88.58
3294.00,88.57
3293.00,88.56
3292.00,88.53
3291.00,88.50
3290.00,88.48
3289.00,88.47
3288.00,88.46
3287.00,88.44
3286.00,88.41
3285.00,88.38
3284.00,88.37
3283.00,88.38
3282.00,88.39
3281.00,88.39
3280.00,88.39
3279.00,88.39
3278.00,88.38
3277.00,88.36
3276.00,88.35
3275.00,88.34
3274.00,88.34
3273.00,88.35
3272.00,88.34
3271.00,88.34
3270.00,88.35
3269.00,88.36
3268.00,88.39
3267.00,88.42
3266.00,88.45
3265.00,88.48
3264.00,88.50
3263.00,88.52
3262.00,88.53
3261.00,88.55
3260.00,88.57
3259.00,88.60
3258.00,88.62
3257.00,88.65
3256.00,88.67
3255.00,88.71
3254.00,88.74
3253.00,88.76
3252.00,88.78
3251.00,88.81
3250.00,88.85
3249.00,88.90
3248.00,88.95
3247.00,89.00
3246.00,89.05
3245.00,89.09
3244.00,89.12
3243.00,89.15
3242.00,89.17
3241.00,89.19
3240.00,89.21
3239.00,89.23
3238.00,89.25
3237.00,89.27
3236.00,89.30
3235.00,89.33
3234.00,89.36
3233.00,89.39
3232.00,89.42
3231.00,89.45
3230.00,89.48
3229.00,89.53
3228.00,89.58
3227.00,89.63
3226.00,89.66
3225.00,89.69
3224.00,89.70
3223.00,89.71
3222.00,89.71
3221.00,89.71
3220.00,89.71
3219.00,89.73
3218.00,89.76
3217.00,89.80
3216.00,89.84
3215.00,89.88
3214.00,89.92
3213.00,89.94
3212.00,89.96
3211.00,89.98
3210.00,90.02
3209.00,90.07
3208.00,90.11
3207.00,90.13
3206.00,90.15
3205.00,90.16
3204.00,90.18
3203.00,90.20
3202.00,90.22
3201.00,90.25
3200.00,90.27
3199.00,90.30
3198.00,90.32
3197.00,90.35
3196.00,90.39
3195.00,90.43
3194.00,90.48
3193.00,90.52
3192.00,90.57
3191.00,90.61
3190.00,90.66
3189.00,90.70
3188.00,90.74
3187.00,90.78
3186.00,90.81
3185.00,90.84
3184.00,90.88
3183.00,90.91
3182.00,90.95
3181.00,90.98
3180.00,91.03
3179.00,91.08
3178.00,91.13
3177.00,91.18
3176.00,91.22
3175.00,91.25
3174.00,91.29
3173.00,91.33
3172.00,91.38
3171.00,91.43
3170.00,91.48
3169.00,91.53
3168.00,91.58
3167.00,91.62
3166.00,91.66
3165.00,91.69
3164.00,91.71
3163.00,91.74
3162.00,91.77
3161.00,91.81
3160.00,91.85
3159.00,91.90
3158.00,91.95
3157.00,92.00
3156.00,92.05
3155.00,92.10
3154.00,92.14
3153.00,92.18
3152.00,92.23
3151.00,92.28
3150.00,92.32
3149.00,92.34
3148.00,92.36
3147.00,92.39
3146.00,92.44
3145.00,92.49
3144.00,92.53
3143.00,92.57
3142.00,92.61
3141.00,92.66
3140.00,92.70
3139.00,92.73
3138.00,92.75
3137.00,92.77
3136.00,92.79
3135.00,92.82
3134.00,92.86
3133.00,92.89
3132.00,92.91
3131.00,92.93
3130.00,92.94
3129.00,92.97
3128.00,93.02
3127.00,93.08
3126.00,93.14
3125.00,93.18
3124.00,93.22
3123.00,93.24
3122.00,93.25
3121.00,93.25
3120.00,93.27
3119.00,93.29
3118.00,93.32
3117.00,93.35
3116.00,93.36
3115.00,93.36
3114.00,93.37
3113.00,93.39
3112.00,93.42
3111.00,93.45
3110.00,93.47
3109.00,93.48
3108.00,93.48
3107.00,93.47
3106.00,93.46
3105.00,93.46
3104.00,93.47
3103.00,93.47
3102.00,93.48
3101.00,93.49
3100.00,93.51
3099.00,93.54
3098.00,93.56
3097.00,93.58
3096.00,93.59
3095.00,93.59
3094.00,93.59
3093.00,93.59
3092.00,93.60
3091.00,93.61
3090.00,93.61
3089.00,93.61
3088.00,93.61
3087.00,93.61
3086.00,93.62
3085.00,93.63
3084.00,93.63
3083.00,93.62
3082.00,93.61
3081.00,93.60
3080.00,93.60
3079.00,93.61
3078.00,93.63
3077.00,93.63
3076.00,93.63
3075.00,93.62
3074.00,93.62
3073.00,93.64
3072.00,93.66
3071.00,93.69
3070.00,93.70
3069.00,93.71
3068.00,93.72
3067.00,93.74
3066.00,93.76
3065.00,93.78
3064.00,93.78
3063.00,93.78
3062.00,93.78
3061.00,93.78
3060.00,93.78
3059.00,93.79
3058.00,93.81
3057.00,93.84
3056.00,93.88
3055.00,93.93
3054.00,93.97
3053.00,94.00
3052.00,94.02
3051.00,94.04
3050.00,94.07
3049.00,94.12
3048.00,94.16
3047.00,94.20
3046.00,94.23
3045.00,94.27
3044.00,94.31
3043.00,94.34
3042.00,94.35
3041.00,94.36
3040.00,94.37
3039.00,94.40
3038.00,94.44
3037.00,94.48
3036.00,94.53
3035.00,94.56
3034.00,94.59
3033.00,94.61
3032.00,94.64
3031.00,94.68
3030.00,94.71
3029.00,94.75
3028.00,94.78
3027.00,94.83
3026.00,94.87
3025.00,94.90
3024.00,94.92
3023.00,94.93
3022.00,94.94
3021.00,94.97
3020.00,95.00
3019.00,95.03
3018.00,95.07
3017.00,95.11
3016.00,95.15
3015.00,95.19
3014.00,95.22
3013.00,95.25
3012.00,95.28
3011.00,95.30
3010.00,95.31
3009.00,95.31
3008.00,95.31
3007.00,95.31
3006.00,95.31
3005.00,95.31
3004.00,95.31
3003.00,95.32
3002.00,95.33
3001.00,95.34
3000.00,95.35
2999.00,95.37
2998.00,95.38
2997.00,95.38
2996.00,95.36
2995.00,95.32
2994.00,95.28
2993.00,95.24
2992.00,95.21
2991.00,95.18
2990.00,95.17
2989.00,95.14
2988.00,95.11
2987.00,95.08
2986.00,95.04
2985.00,94.99
2984.00,94.94
2983.00,94.88
2982.00,94.81
2981.00,94.75
2980.00,94.69
2979.00,94.62
2978.00,94.56
2977.00,94.50
2976.00,94.44
2975.00,94.39
2974.00,94.33
2973.00,94.27
2972.00,94.21
2971.00,94.15
2970.00,94.09
2969.00,94.03
2968.00,93.96
2967.00,93.90
2966.00,93.84
2965.00,93.78
2964.00,93.73
2963.00,93.69
2962.00,93.66
2961.00,93.63
2960.00,93.60
2959.00,93.59
2958.00,93.59
2957.00,93.61
2956.00,93.63
2955.00,93.64
2954.00,93.63
2953.00,93.62
2952.00,93.61
2951.00,93.63
2950.00,93.66
2949.00,93.70
2948.00,93.72
2947.00,93.74
2946.00,93.73
2945.00,93.72
2944.00,93.68
2943.00,93.63
2942.00,93.58
2941.00,93.51
2940.00,93.45
2939.00,93.40
2938.00,93.34
2937.00,93.28
2936.00,93.21
2935.00,93.14
2934.00,93.06
2933.00,92.98
2932.00,92.91
2931.00,92.85
2930.00,92.80
2929.00,92.75
2928.00,92.70
2927.00,92.65
2926.00,92.58
2925.00,92.53
2924.00,92.48
2923.00,92.46
2922.00,92.45
2921.00,92.43
2920.00,92.41
2919.00,92.41
2918.00,92.44
2917.00,92.54
2916.00,92.70
2915.00,92.90
2914.00,93.12
2913.00,93.34
2912.00,93.54
2911.00,93.72
2910.00,93.89
2909.00,94.03
2908.00,94.17
2907.00,94.29
2906.00,94.39
2905.00,94.48
2904.00,94.56
2903.00,94.63
2902.00,94.70
2901.00,94.77
2900.00,94.83
2899.00,94.89
2898.00,94.95
2897.00,95.01
2896.00,95.07
2895.00,95.13
2894.00,95.18
2893.00,95.23
2892.00,95.27
2891.00,95.31
2890.00,95.34
2889.00,95.37
2888.00,95.39
2887.00,95.41
2886.00,95.43
2885.00,95.44
2884.00,95.45
2883.00,95.46
2882.00,95.47
2881.00,95.49
2880.00,95.51
2879.00,95.52
2878.00,95.52
2877.00,95.52
2876.00,95.52
2875.00,95.53
2874.00,95.53
2873.00,95.53
2872.00,95.53
2871.00,95.54
2870.00,95.56
2869.00,95.59
2868.00,95.64
2867.00,95.68
2866.00,95.72
2865.00,95.76
2864.00,95.78
2863.00,95.79
2862.00,95.78
2861.00,95.75
2860.00,95.70
2859.00,95.65
2858.00,95.58
2857.00,95.51
2856.00,95.43
2855.00,95.36
2854.00,95.27
2853.00,95.17
2852.00,95.08
2851.00,95.05
2850.00,95.08
2849.00,95.19
2848.00,95.37
2847.00,95.59
2846.00,95.83
2845.00,96.06
2844.00,96.27
2843.00,96.44
2842.00,96.58
2841.00,96.70
2840.00,96.80
2839.00,96.89
2838.00,96.96
2837.00,97.02
2836.00,97.08
2835.00,97.12
2834.00,97.17
2833.00,97.20
2832.00,97.24
2831.00,97.27
2830.00,97.30
2829.00,97.33
2828.00,97.36
2827.00,97.39
2826.00,97.42
2825.00,97.44
2824.00,97.45
2823.00,97.47
2822.00,97.48
2821.00,97.50
2820.00,97.52
2819.00,97.55
2818.00,97.58
2817.00,97.61
2816.00,97.64
2815.00,97.66
2814.00,97.68
2813.00,97.69
2812.00,97.70
2811.00,97.72
2810.00,97.74
2809.00,97.76
2808.00,97.78
2807.00,97.80
2806.00,97.81
2805.00,97.82
2804.00,97.84
2803.00,97.85
2802.00,97.86
2801.00,97.87
2800.00,97.88
2799.00,97.90
2798.00,97.92
2797.00,97.93
2796.00,97.95
2795.00,97.97
2794.00,98.00
2793.00,98.02
2792.00,98.05
2791.00,98.07
2790.00,98.07
2789.00,98.07
2788.00,98.07
2787.00,98.08
2786.00,98.10
2785.00,98.11
2784.00,98.12
2783.00,98.13
2782.00,98.14
2781.00,98.15
2780.00,98.17
2779.00,98.18
2778.00,98.20
2777.00,98.21
2776.00,98.23
2775.00,98.24
2774.00,98.26
2773.00,98.28
2772.00,98.30
2771.00,98.32
2770.00,98.33
2769.00,98.34
2768.00,98.35
2767.00,98.37
2766.00,98.38
2765.00,98.38
2764.00,98.38
2763.00,98.37
2762.00,98.37
2761.00,98.38
2760.00,98.39
2759.00,98.40
2758.00,98.42
2757.00,98.44
2756.00,98.47
2755.00,98.50
2754.00,98.51
2753.00,98.51
2752.00,98.51
2751.00,98.50
2750.00,98.49
2749.00,98.49
2748.00,98.49
2747.00,98.51
2746.00,98.53
2745.00,98.54
2744.00,98.55
2743.00,98.55
2742.00,98.56
2741.00,98.57
2740.00,98.58
2739.00,98.59
2738.00,98.61
2737.00,98.63
2736.00,98.65
2735.00,98.67
2734.00,98.67
2733.00,98.67
2732.00,98.67
2731.00,98.68
2730.00,98.68
2729.00,98.69
2728.00,98.70
2727.00,98.71
2726.00,98.72
2725.00,98.73
2724.00,98.76
2723.00,98.78
2722.00,98.78
2721.00,98.78
2720.00,98.78
2719.00,98.79
2718.00,98.80
2717.00,98.81
2716.00,98.81
2715.00,98.82
2714.00,98.82
2713.00,98.82
2712.00,98.83
2711.00,98.85
2710.00,98.86
2709.00,98.87
2708.00,98.87
2707.00,98.87
2706.00,98.88
2705.00,98.89
2704.00,98.91
2703.00,98.91
2702.00,98.91
2701.00,98.90
2700.00,98.89
2699.00,98.90
2698.00,98.92
2697.00,98.93
2696.00,98.94
2695.00,98.94
2694.00,98.95
2693.00,98.96
2692.00,98.98
2691.00,99.00
2690.00,99.02
2689.00,99.03
2688.00,99.03
2687.00,99.01
2686.00,99.01
2685.00,99.01
2684.00,99.02
2683.00,99.04
2682.00,99.05
2681.00,99.06
2680.00,99.06
2679.00,99.07
2678.00,99.06
2677.00,99.05
2676.00,99.05
2675.00,99.05
2674.00,99.07
2673.00,99.07
2672.00,99.08
2671.00,99.08
2670.00,99.08
2669.00,99.08
2668.00,99.09
2667.00,99.10
2666.00,99.11
2665.00,99.12
2664.00,99.12
2663.00,99.11
2662.00,99.10
2661.00,99.09
2660.00,99.09
2659.00,99.08
2658.00,99.08
2657.00,99.08
2656.00,99.08
2655.00,99.09
2654.00,99.10
2653.00,99.12
2652.00,99.13
2651.00,99.14
2650.00,99.15
2649.00,99.16
2648.00,99.16
2647.00,99.16
2646.00,99.15
2645.00,99.14
2644.00,99.14
2643.00,99.14
2642.00,99.16
2641.00,99.17
2640.00,99.17
2639.00,99.15
2638.00,99.13
2637.00,99.11
2636.00,99.11
2635.00,99.12
2634.00,99.12
2633.00,99.11
2632.00,99.10
2631.00,99.11
2630.00,99.12
2629.00,99.13
2628.00,99.14
2627.00,99.13
2626.00,99.12
2625.00,99.12
2624.00,99.11
2623.00,99.10
2622.00,99.10
2621.00,99.10
2620.00,99.10
2619.00,99.11
2618.00,99.13
2617.00,99.15
2616.00,99.16
2615.00,99.16
2614.00,99.17
2613.00,99.17
2612.00,99.18
2611.00,99.20
2610.00,99.22
2609.00,99.24
2608.00,99.24
2607.00,99.23
2606.00,99.21
2605.00,99.20
2604.00,99.19
2603.00,99.20
2602.00,99.20
2601.00,99.19
2600.00,99.18
2599.00,99.18
2598.00,99.17
2597.00,99.18
2596.00,99.19
2595.00,99.21
2594.00,99.24
2593.00,99.25
2592.00,99.27
2591.00,99.29
2590.00,99.31
2589.00,99.33
2588.00,99.32
2587.00,99.29
2586.00,99.25
2585.00,99.21
2584.00,99.21
2583.00,99.22
2582.00,99.24
2581.00,99.25
2580.00,99.25
2579.00,99.24
2578.00,99.23
2577.00,99.22
2576.00,99.22
2575.00,99.24
2574.00,99.27
2573.00,99.29
2572.00,99.31
2571.00,99.33
2570.00,99.34
2569.00,99.34
2568.00,99.33
2567.00,99.30
2566.00,99.27
2565.00,99.26
2564.00,99.25
2563.00,99.27
2562.00,99.29
2561.00,99.31
2560.00,99.31
2559.00,99.30
2558.00,99.29
2557.00,99.29
2556.00,99.29
2555.00,99.29
2554.00,99.29
2553.00,99.30
2552.00,99.30
2551.00,99.30
2550.00,99.28
2549.00,99.26
2548.00,99.25
2547.00,99.24
2546.00,99.25
2545.00,99.27
2544.00,99.28
2543.00,99.28
2542.00,99.28
2541.00,99.29
2540.00,99.29
2539.00,99.28
2538.00,99.27
2537.00,99.24
2536.00,99.23
2535.00,99.24
2534.00,99.27
2533.00,99.29
2532.00,99.30
2531.00,99.30
2530.00,99.30
2529.00,99.31
2528.00,99.30
2527.00,99.30
2526.00,99.30
2525.00,99.30
2524.00,99.30
2523.00,99.32
2522.00,99.34
2521.00,99.34
2520.00,99.34
2519.00,99.33
2518.00,99.33
2517.00,99.32
2516.00,99.31
2515.00,99.31
2514.00,99.33
2513.00,99.35
2512.00,99.37
2511.00,99.37
2510.00,99.36
2509.00,99.35
2508.00,99.35
2507.00,99.37
2506.00,99.38
2505.00,99.38
2504.00,99.37
2503.00,99.35
2502.00,99.33
2501.00,99.33
2500.00,99.33
2499.00,99.34
2498.00,99.36
2497.00,99.38
2496.00,99.39
2495.00,99.38
2494.00,99.36
2493.00,99.34
2492.00,99.33
2491.00,99.34
2490.00,99.35
2489.00,99.36
2488.00,99.35
2487.00,99.35
2486.00,99.36
2485.00,99.37
2484.00,99.39
2483.00,99.42
2482.00,99.43
2481.00,99.43
2480.00,99.42
2479.00,99.42
2478.00,99.42
2477.00,99.42
2476.00,99.43
2475.00,99.42
2474.00,99.41
2473.00,99.40
2472.00,99.39
2471.00,99.38
2470.00,99.38
2469.00,99.37
2468.00,99.37
2467.00,99.38
2466.00,99.39
2465.00,99.41
2464.00,99.42
2463.00,99.43
2462.00,99.44
2461.00,99.45
2460.00,99.44
2459.00,99.43
2458.00,99.41
2457.00,99.40
2456.00,99.39
2455.00,99.40
2454.00,99.41
2453.00,99.42
2452.00,99.44
2451.00,99.46
2450.00,99.47
2449.00,99.48
2448.00,99.46
2447.00,99.44
2446.00,99.42
2445.00,99.42
2444.00,99.42
2443.00,99.42
2442.00,99.43
2441.00,99.42
2440.00,99.41
2439.00,99.39
2438.00,99.38
2437.00,99.39
2436.00,99.40
2435.00,99.41
2434.00,99.41
2433.00,99.42
2432.00,99.42
2431.00,99.42
2430.00,99.43
2429.00,99.43
2428.00,99.43
2427.00,99.43
2426.00,99.42
2425.00,99.41
2424.00,99.40
2423.00,99.39
2422.00,99.39
2421.00,99.41
2420.00,99.43
2419.00,99.45
2418.00,99.46
2417.00,99.46
2416.00,99.46
2415.00,99.46
2414.00,99.46
2413.00,99.46
2412.00,99.46
2411.00,99.46
2410.00,99.46
2409.00,99.46
2408.00,99.47
2407.00,99.48
2406.00,99.50
2405.00,99.52
2404.00,99.51
2403.00,99.50
2402.00,99.48
2401.00,99.46
2400.00,99.45
2399.00,99.45
2398.00,99.47
2397.00,99.49
2396.00,99.51
2395.00,99.52
2394.00,99.50
2393.00,99.48
2392.00,99.46
2391.00,99.46
2390.00,99.47
2389.00,99.48
2388.00,99.50
2387.00,99.52
2386.00,99.55
2385.00,99.57
2384.00,99.58
2383.00,99.59
2382.00,99.59
2381.00,99.58
2380.00,99.57
2379.00,99.55
2378.00,99.54
2377.00,99.55
2376.00,99.58
2375.00,99.60
2374.00,99.61
2373.00,99.60
2372.00,99.58
2371.00,99.59
2370.00,99.62
2369.00,99.65
2368.00,99.65
2367.00,99.61
2366.00,99.55
2365.00,99.51
2364.00,99.50
2363.00,99.53
2362.00,99.55
2361.00,99.57
2360.00,99.55
2359.00,99.50
2358.00,99.43
2357.00,99.36
2356.00,99.33
2355.00,99.35
2354.00,99.37
2353.00,99.37
2352.00,99.36
2351.00,99.38
2350.00,99.44
2349.00,99.56
2348.00,99.68
2347.00,99.78
2346.00,99.80
2345.00,99.74
2344.00,99.63
2343.00,99.54
2342.00,99.45
2341.00,99.37
2340.00,99.31
2339.00,99.27
2338.00,99.27
2337.00,99.31
2336.00,99.38
2335.00,99.44
2334.00,99.47
2333.00,99.46
2332.00,99.42
2331.00,99.38
2330.00,99.35
2329.00,99.33
2328.00,99.33
2327.00,99.35
2326.00,99.37
2325.00,99.36
2324.00,99.32
2323.00,99.29
2322.00,99.27
2321.00,99.26
2320.00,99.26
2319.00,99.25
2318.00,99.25
2317.00,99.27
2316.00,99.29
2315.00,99.31
2314.00,99.31
2313.00,99.30
2312.00,99.28
2311.00,99.27
2310.00,99.26
2309.00,99.27
2308.00,99.27
2307.00,99.28
2306.00,99.29
2305.00,99.29
2304.00,99.29
2303.00,99.29
2302.00,99.29
2301.00,99.28
2300.00,99.27
2299.00,99.26
2298.00,99.25
2297.00,99.24
2296.00,99.24
2295.00,99.25
2294.00,99.26
2293.00,99.24
2292.00,99.21
2291.00,99.19
2290.00,99.19
2289.00,99.21
2288.00,99.23
2287.00,99.23
2286.00,99.22
2285.00,99.20
2284.00,99.18
2283.00,99.17
2282.00,99.16
2281.00,99.15
2280.00,99.13
2279.00,99.11
2278.00,99.10
2277.00,99.10
2276.00,99.10
2275.00,99.08
2274.00,99.07
2273.00,99.05
2272.00,99.05
2271.00,99.05
2270.00,99.04
2269.00,99.04
2268.00,99.04
2267.00,99.06
2266.00,99.09
2265.00,99.11
2264.00,99.13
2263.00,99.13
2262.00,99.10
2261.00,99.05
2260.00,99.01
2259.00,99.01
2258.00,99.02
2257.00,99.04
2256.00,99.06
2255.00,99.08
2254.00,99.09
2253.00,99.09
2252.00,99.06
2251.00,99.02
2250.00,98.99
2249.00,98.99
2248.00,99.02
2247.00,99.06
2246.00,99.09
2245.00,99.07
2244.00,99.02
2243.00,98.95
2242.00,98.89
2241.00,98.86
2240.00,98.86
2239.00,98.88
2238.00,98.89
2237.00,98.90
2236.00,98.91
2235.00,98.93
2234.00,98.94
2233.00,98.95
2232.00,98.97
2231.00,98.98
2230.00,98.96
2229.00,98.92
2228.00,98.87
2227.00,98.84
2226.00,98.83
2225.00,98.84
2224.00,98.84
2223.00,98.84
2222.00,98.82
2221.00,98.79
2220.00,98.76
2219.00,98.74
2218.00,98.74
2217.00,98.76
2216.00,98.79
2215.00,98.82
2214.00,98.86
2213.00,98.89
2212.00,98.91
2211.00,98.91
2210.00,98.89
2209.00,98.84
2208.00,98.80
2207.00,98.78
2206.00,98.77
2205.00,98.75
2204.00,98.70
2203.00,98.67
2202.00,98.65
2201.00,98.66
2200.00,98.68
2199.00,98.69
2198.00,98.70
2197.00,98.74
2196.00,98.79
2195.00,98.83
2194.00,98.82
2193.00,98.77
2192.00,98.71
2191.00,98.66
2190.00,98.62
2189.00,98.58
2188.00,98.57
2187.00,98.58
2186.00,98.58
2185.00,98.57
2184.00,98.55
2183.00,98.55
2182.00,98.56
2181.00,98.56
2180.00,98.56
2179.00,98.57
2178.00,98.59
2177.00,98.59
2176.00,98.54
2175.00,98.47
2174.00,98.41
2173.00,98.39
2172.00,98.43
2171.00,98.48
2170.00,98.49
2169.00,98.45
2168.00,98.40
2167.00,98.39
2166.00,98.41
2165.00,98.44
2164.00,98.48
2163.00,98.52
2162.00,98.54
2161.00,98.56
2160.00,98.62
2159.00,98.71
2158.00,98.80
2157.00,98.82
2156.00,98.77
2155.00,98.70
2154.00,98.67
2153.00,98.69
2152.00,98.72
2151.00,98.75
2150.00,98.75
2149.00,98.71
2148.00,98.67
2147.00,98.65
2146.00,98.66
2145.00,98.70
2144.00,98.74
2143.00,98.75
2142.00,98.74
2141.00,98.73
2140.00,98.75
2139.00,98.80
2138.00,98.86
2137.00,98.91
2136.00,98.94
2135.00,98.95
2134.00,98.96
2133.00,98.96
2132.00,98.97
2131.00,98.99
2130.00,98.99
2129.00,98.96
2128.00,98.92
2127.00,98.90
2126.00,98.90
2125.00,98.91
2124.00,98.94
2123.00,98.97
2122.00,99.00
2121.00,99.01
2120.00,99.00
2119.00,98.98
2118.00,98.93
2117.00,98.89
2116.00,98.87
2115.00,98.91
2114.00,98.96
2113.00,98.98
2112.00,98.95
2111.00,98.89
2110.00,98.83
2109.00,98.81
2108.00,98.85
2107.00,98.91
2106.00,98.96
2105.00,98.98
2104.00,98.97
2103.00,98.96
2102.00,98.95
2101.00,98.95
2100.00,98.95
2099.00,98.97
2098.00,98.97
2097.00,98.97
2096.00,98.96
2095.00,98.96
2094.00,98.95
2093.00,98.93
2092.00,98.91
2091.00,98.89
2090.00,98.86
2089.00,98.84
2088.00,98.84
2087.00,98.86
2086.00,98.89
2085.00,98.92
2084.00,98.95
2083.00,98.98
2082.00,99.00
2081.00,98.98
2080.00,98.95
2079.00,98.91
2078.00,98.86
2077.00,98.80
2076.00,98.75
2075.00,98.74
2074.00,98.78
2073.00,98.83
2072.00,98.88
2071.00,98.90
2070.00,98.90
2069.00,98.89
2068.00,98.87
2067.00,98.86
2066.00,98.88
2065.00,98.92
2064.00,98.97
2063.00,99.01
2062.00,99.01
2061.00,98.98
2060.00,98.93
2059.00,98.91
2058.00,98.90
2057.00,98.91
2056.00,98.92
2055.00,98.93
2054.00,98.93
2053.00,98.89
2052.00,98.85
2051.00,98.83
2050.00,98.83
2049.00,98.85
2048.00,98.86
2047.00,98.87
2046.00,98.88
2045.00,98.90
2044.00,98.92
2043.00,98.93
2042.00,98.89
2041.00,98.83
2040.00,98.77
2039.00,98.72
2038.00,98.67
2037.00,98.62
2036.00,98.58
2035.00,98.59
2034.00,98.64
2033.00,98.69
2032.00,98.74
2031.00,98.77
2030.00,98.76
2029.00,98.73
2028.00,98.69
2027.00,98.70
2026.00,98.73
2025.00,98.76
2024.00,98.76
2023.00,98.76
2022.00,98.75
2021.00,98.74
2020.00,98.77
2019.00,98.80
2018.00,98.83
2017.00,98.84
2016.00,98.83
2015.00,98.83
2014.00,98.82
2013.00,98.81
2012.00,98.82
2011.00,98.87
2010.00,98.95
2009.00,99.02
2008.00,99.04
2007.00,99.03
2006.00,98.99
2005.00,98.93
2004.00,98.86
2003.00,98.81
2002.00,98.79
2001.00,98.78
2000.00,98.80
1999.00,98.82
1998.00,98.85
1997.00,98.86
1996.00,98.87
1995.00,98.88
1994.00,98.91
1993.00,98.93
1992.00,98.94
1991.00,98.92
1990.00,98.89
1989.00,98.83
1988.00,98.78
1987.00,98.74
1986.00,98.71
1985.00,98.69
1984.00,98.72
1983.00,98.78
1982.00,98.84
1981.00,98.84
1980.00,98.79
1979.00,98.75
1978.00,98.74
1977.00,98.76
1976.00,98.78
1975.00,98.79
1974.00,98.81
1973.00,98.83
1972.00,98.85
1971.00,98.88
1970.00,98.90
1969.00,98.91
1968.00,98.91
1967.00,98.93
1966.00,98.97
1965.00,99.02
1964.00,99.07
1963.00,99.10
1962.00,99.09
1961.00,99.04
1960.00,98.99
1959.00,98.97
1958.00,98.99
1957.00,99.02
1956.00,99.05
1955.00,99.07
1954.00,99.08
1953.00,99.06
1952.00,99.03
1951.00,99.01
1950.00,98.99
1949.00,98.98
1948.00,98.98
1947.00,99.00
1946.00,99.02
1945.00,99.04
1944.00,99.06
1943.00,99.09
1942.00,99.13
1941.00,99.16
1940.00,99.20
1939.00,99.23
1938.00,99.25
1937.00,99.24
1936.00,99.23
1935.00,99.22
1934.00,99.22
1933.00,99.23
1932.00,99.26
1931.00,99.29
1930.00,99.30
1929.00,99.30
1928.00,99.28
1927.00,99.25
1926.00,99.22
1925.00,99.19
1924.00,99.16
1923.00,99.16
1922.00,99.17
1921.00,99.17
1920.00,99.18
1919.00,99.19
1918.00,99.21
1917.00,99.21
1916.00,99.23
1915.00,99.26
1914.00,99.30
1913.00,99.33
1912.00,99.35
1911.00,99.35
1910.00,99.34
1909.00,99.31
1908.00,99.27
1907.00,99.26
1906.00,99.26
1905.00,99.27
1904.00,99.28
1903.00,99.29
1902.00,99.29
1901.00,99.29
1900.00,99.29
1899.00,99.30
1898.00,99.32
1897.00,99.33
1896.00,99.33
1895.00,99.32
1894.00,99.32
1893.00,99.33
1892.00,99.34
1891.00,99.35
1890.00,99.35
1889.00,99.34
1888.00,99.33
1887.00,99.31
1886.00,99.29
1885.00,99.27
1884.00,99.27
1883.00,99.28
1882.00,99.29
1881.00,99.30
1880.00,99.29
1879.00,99.30
1878.00,99.31
1877.00,99.31
1876.00,99.30
1875.00,99.30
1874.00,99.30
1873.00,99.30
1872.00,99.32
1871.00,99.35
1870.00,99.38
1869.00,99.37
1868.00,99.35
1867.00,99.34
1866.00,99.33
1865.00,99.32
1864.00,99.32
1863.00,99.33
1862.00,99.35
1861.00,99.36
1860.00,99.37
1859.00,99.37
1858.00,99.35
1857.00,99.32
1856.00,99.30
1855.00,99.32
1854.00,99.35
1853.00,99.38
1852.00,99.39
1851.00,99.39
1850.00,99.39
1849.00,99.39
1848.00,99.39
1847.00,99.39
1846.00,99.39
1845.00,99.38
1844.00,99.37
1843.00,99.38
1842.00,99.39
1841.00,99.37
1840.00,99.35
1839.00,99.34
1838.00,99.34
1837.00,99.33
1836.00,99.32
1835.00,99.32
1834.00,99.34
1833.00,99.35
1832.00,99.37
1831.00,99.38
1830.00,99.38
1829.00,99.37
1828.00,99.36
1827.00,99.34
1826.00,99.32
1825.00,99.30
1824.00,99.28
1823.00,99.27
1822.00,99.28
1821.00,99.30
1820.00,99.30
1819.00,99.31
1818.00,99.30
1817.00,99.28
1816.00,99.26
1815.00,99.24
1814.00,99.24
1813.00,99.25
1812.00,99.27
1811.00,99.30
1810.00,99.32
1809.00,99.32
1808.00,99.31
1807.00,99.29
1806.00,99.29
1805.00,99.28
1804.00,99.29
1803.00,99.30
1802.00,99.31
1801.00,99.31
1800.00,99.30
1799.00,99.31
1798.00,99.31
1797.00,99.31
1796.00,99.30
1795.00,99.29
1794.00,99.27
1793.00,99.25
1792.00,99.23
1791.00,99.22
1790.00,99.21
1789.00,99.19
1788.00,99.17
1787.00,99.17
1786.00,99.17
1785.00,99.17
1784.00,99.17
1783.00,99.16
1782.00,99.14
1781.00,99.11
1780.00,99.09
1779.00,99.07
1778.00,99.06
1777.00,99.07
1776.00,99.08
1775.00,99.09
1774.00,99.09
1773.00,99.08
1772.00,99.05
1771.00,99.03
1770.00,98.99
1769.00,98.93
1768.00,98.89
1767.00,98.87
1766.00,98.88
1765.00,98.89
1764.00,98.87
1763.00,98.85
1762.00,98.83
1761.00,98.81
1760.00,98.78
1759.00,98.77
1758.00,98.76
1757.00,98.74
1756.00,98.71
1755.00,98.67
1754.00,98.63
1753.00,98.60
1752.00,98.57
1751.00,98.56
1750.00,98.53
1749.00,98.48
1748.00,98.41
1747.00,98.36
1746.00,98.30
1745.00,98.23
1744.00,98.15
1743.00,98.09
1742.00,98.05
1741.00,97.99
1740.00,97.93
1739.00,97.88
1738.00,97.85
1737.00,97.80
1736.00,97.73
1735.00,97.68
1734.00,97.65
1733.00,97.64
1732.00,97.63
1731.00,97.61
1730.00,97.59
1729.00,97.57
1728.00,97.55
1727.00,97.54
1726.00,97.55
1725.00,97.54
1724.00,97.52
1723.00,97.50
1722.00,97.49
1721.00,97.46
1720.00,97.38
1719.00,97.27
1718.00,97.16
1717.00,97.06
1716.00,96.96
1715.00,96.87
1714.00,96.78
1713.00,96.66
1712.00,96.53
1711.00,96.40
1710.00,96.28
1709.00,96.14
1708.00,95.98
1707.00,95.78
1706.00,95.53
1705.00,95.26
1704.00,95.03
1703.00,94.84
1702.00,94.63
1701.00,94.30
1700.00,93.87
1699.00,93.51
1698.00,93.19
1697.00,92.79
1696.00,92.34
1695.00,91.96
1694.00,91.70
1693.00,91.47
1692.00,91.21
1691.00,90.92
1690.00,90.63
1689.00,90.33
1688.00,90.06
1687.00,89.81
1686.00,89.57
1685.00,89.24
1684.00,88.84
1683.00,88.53
1682.00,88.29
1681.00,88.05
1680.00,87.81
1679.00,87.61
1678.00,87.44
1677.00,87.25
1676.00,86.97
1675.00,86.66
1674.00,86.38
1673.00,86.15
1672.00,85.92
1671.00,85.65
1670.00,85.34
1669.00,85.01
1668.00,84.70
1667.00,84.46
1666.00,84.25
1665.00,84.03
1664.00,83.76
1663.00,83.44
1662.00,83.12
1661.00,82.82
1660.00,82.53
1659.00,82.26
1658.00,82.01
1657.00,81.80
1656.00,81.58
1655.00,81.33
1654.00,80.94
1653.00,80.42
1652.00,80.07
1651.00,79.94
1650.00,79.87
1649.00,79.74
1648.00,79.52
1647.00,79.25
1646.00,79.02
1645.00,78.87
1644.00,78.76
1643.00,78.66
1642.00,78.58
1641.00,78.51
1640.00,78.46
1639.00,78.44
1638.00,78.42
1637.00,78.37
1636.00,78.29
1635.00,78.21
1634.00,78.17
1633.00,78.13
1632.00,78.09
1631.00,78.07
1630.00,78.08
1629.00,78.11
1628.00,78.16
1627.00,78.22
1626.00,78.30
1625.00,78.38
1624.00,78.47
1623.00,78.59
1622.00,78.75
1621.00,78.91
1620.00,79.07
1619.00,79.22
1618.00,79.39
1617.00,79.63
1616.00,79.90
1615.00,80.16
1614.00,80.39
1613.00,80.60
1612.00,80.82
1611.00,81.05
1610.00,81.29
1609.00,81.52
1608.00,81.76
1607.00,82.00
1606.00,82.22
1605.00,82.41
1604.00,82.59
1603.00,82.73
1602.00,82.85
1601.00,82.96
1600.00,83.07
1599.00,83.16
1598.00,83.23
1597.00,83.29
1596.00,83.33
1595.00,83.36
1594.00,83.37
1593.00,83.38
1592.00,83.38
1591.00,83.37
1590.00,83.34
1589.00,83.29
1588.00,83.23
1587.00,83.16
1586.00,83.07
1585.00,82.97
1584.00,82.87
1583.00,82.75
1582.00,82.61
1581.00,82.47
1580.00,82.34
1579.00,82.17
1578.00,81.95
1577.00,81.70
1576.00,81.47
1575.00,81.30
1574.00,81.17
1573.00,81.05
1572.00,80.90
1571.00,80.70
1570.00,80.44
1569.00,80.17
1568.00,79.93
1567.00,79.72
1566.00,79.51
1565.00,79.30
1564.00,79.09
1563.00,78.91
1562.00,78.75
1561.00,78.60
1560.00,78.38
1559.00,78.03
1558.00,77.73
1557.00,77.54
1556.00,77.35
1555.00,77.14
1554.00,76.93
1553.00,76.75
1552.00,76.60
1551.00,76.45
1550.00,76.30
1549.00,76.19
1548.00,76.13
1547.00,76.09
1546.00,76.07
1545.00,76.06
1544.00,76.05
1543.00,76.04
1542.00,76.03
1541.00,76.02
1540.00,76.02
1539.00,76.08
1538.00,76.17
1537.00,76.26
1536.00,76.33
1535.00,76.40
1534.00,76.49
1533.00,76.62
1532.00,76.73
1531.00,76.83
1530.00,76.94
1529.00,77.06
1528.00,77.19
1527.00,77.33
1526.00,77.49
1525.00,77.63
1524.00,77.76
1523.00,77.86
1522.00,77.96
1521.00,78.05
1520.00,78.14
1519.00,78.20
1518.00,78.24
1517.00,78.29
1516.00,78.37
1515.00,78.48
1514.00,78.62
1513.00,78.79
1512.00,79.00
1511.00,79.24
1510.00,79.48
1509.00,79.70
1508.00,79.92
1507.00,80.24
1506.00,80.62
1505.00,80.94
1504.00,81.19
1503.00,81.43
1502.00,81.69
1501.00,81.99
1500.00,82.30
1499.00,82.60
1498.00,82.91
1497.00,83.24
1496.00,83.58
1495.00,83.90
1494.00,84.21
1493.00,84.51
1492.00,84.82
1491.00,85.16
1490.00,85.52
1489.00,85.87
1488.00,86.16
1487.00,86.40
1486.00,86.62
1485.00,86.81
1484.00,86.97
1483.00,87.11
1482.00,87.26
1481.00,87.40
1480.00,87.50
1479.00,87.56
1478.00,87.60
1477.00,87.61
1476.00,87.56
1475.00,87.47
1474.00,87.34
1473.00,87.15
1472.00,86.95
1471.00,86.80
1470.00,86.71
1469.00,86.64
1468.00,86.58
1467.00,86.54
1466.00,86.48
1465.00,86.40
1464.00,86.31
1463.00,86.26
1462.00,86.25
1461.00,86.25
1460.00,86.22
1459.00,86.13
1458.00,85.98
1457.00,85.81
1456.00,85.69
1455.00,85.63
1454.00,85.60
1453.00,85.56
1452.00,85.53
1451.00,85.52
1450.00,85.53
1449.00,85.54
1448.00,85.55
1447.00,85.56
1446.00,85.59
1445.00,85.62
1444.00,85.64
1443.00,85.67
1442.00,85.71
1441.00,85.76
1440.00,85.82
1439.00,85.89
1438.00,85.98
1437.00,86.08
1436.00,86.17
1435.00,86.24
1434.00,86.29
1433.00,86.33
1432.00,86.38
1431.00,86.41
1430.00,86.44
1429.00,86.43
1428.00,86.39
1427.00,86.33
1426.00,86.25
1425.00,86.18
1424.00,86.08
1423.00,85.98
1422.00,85.87
1421.00,85.75
1420.00,85.61
1419.00,85.45
1418.00,85.30
1417.00,85.17
1416.00,85.01
1415.00,84.85
1414.00,84.69
1413.00,84.53
1412.00,84.36
1411.00,84.18
1410.00,84.00
1409.00,83.82
1408.00,83.63
1407.00,83.43
1406.00,83.23
1405.00,83.01
1404.00,82.81
1403.00,82.64
1402.00,82.51
1401.00,82.38
1400.00,82.24
1399.00,82.12
1398.00,82.03
1397.00,81.96
1396.00,81.89
1395.00,81.82
1394.00,81.79
1393.00,81.76
1392.00,81.76
1391.00,81.78
1390.00,81.82
1389.00,81.88
1388.00,81.96
1387.00,82.08
1386.00,82.22
1385.00,82.36
1384.00,82.52
1383.00,82.69
1382.00,82.88
1381.00,83.07
1380.00,83.27
1379.00,83.48
1378.00,83.69
1377.00,83.89
1376.00,84.09
1375.00,84.30
1374.00,84.51
1373.00,84.71
1372.00,84.89
1371.00,85.04
1370.00,85.19
1369.00,85.34
1368.00,85.49
1367.00,85.66
1366.00,85.83
1365.00,86.00
1364.00,86.17
1363.00,86.35
1362.00,86.51
1361.00,86.66
1360.00,86.78
1359.00,86.88
1358.00,86.96
1357.00,87.04
1356.00,87.10
1355.00,87.16
1354.00,87.21
1353.00,87.26
1352.00,87.31
1351.00,87.35
1350.00,87.39
1349.00,87.41
1348.00,87.42
1347.00,87.44
1346.00,87.46
1345.00,87.49
1344.00,87.53
1343.00,87.55
1342.00,87.57
1341.00,87.58
1340.00,87.60
1339.00,87.64
1338.00,87.69
1337.00,87.73
1336.00,87.76
1335.00,87.78
1334.00,87.79
1333.00,87.82
1332.00,87.84
1331.00,87.86
1330.00,87.87
1329.00,87.87
1328.00,87.87
1327.00,87.85
1326.00,87.82
1325.00,87.79
1324.00,87.76
1323.00,87.72
1322.00,87.68
1321.00,87.62
1320.00,87.57
1319.00,87.53
1318.00,87.50
1317.00,87.48
1316.00,87.45
1315.00,87.43
1314.00,87.40
1313.00,87.39
1312.00,87.39
1311.00,87.39
1310.00,87.39
1309.00,87.37
1308.00,87.34
1307.00,87.32
1306.00,87.30
1305.00,87.28
1304.00,87.27
1303.00,87.26
1302.00,87.25
1301.00,87.23
1300.00,87.19
1299.00,87.16
1298.00,87.14
1297.00,87.13
1296.00,87.13
1295.00,87.12
1294.00,87.12
1293.00,87.12
1292.00,87.14
1291.00,87.17
1290.00,87.20
1289.00,87.24
1288.00,87.26
1287.00,87.30
1286.00,87.33
1285.00,87.36
1284.00,87.39
1283.00,87.41
1282.00,87.44
1281.00,87.47
1280.00,87.49
1279.00,87.51
1278.00,87.52
1277.00,87.52
1276.00,87.50
1275.00,87.49
1274.00,87.48
1273.00,87.48
1272.00,87.48
1271.00,87.49
1270.00,87.48
1269.00,87.46
1268.00,87.43
1267.00,87.40
1266.00,87.39
1265.00,87.38
1264.00,87.36
1263.00,87.33
1262.00,87.28
1261.00,87.23
1260.00,87.17
1259.00,87.12
1258.00,87.07
1257.00,87.02
1256.00,86.97
1255.00,86.92
1254.00,86.87
1253.00,86.83
1252.00,86.79
1251.00,86.74
1250.00,86.69
1249.00,86.64
1248.00,86.59
1247.00,86.54
1246.00,86.49
1245.00,86.43
1244.00,86.39
1243.00,86.35
1242.00,86.32
1241.00,86.29
1240.00,86.27
1239.00,86.25
1238.00,86.25
1237.00,86.26
1236.00,86.28
1235.00,86.30
1234.00,86.34
1233.00,86.38
1232.00,86.43
1231.00,86.49
1230.00,86.55
1229.00,86.62
1228.00,86.69
1227.00,86.74
1226.00,86.80
1225.00,86.87
1224.00,86.95
1223.00,87.04
1222.00,87.14
1221.00,87.24
1220.00,87.32
1219.00,87.42
1218.00,87.53
1217.00,87.65
1216.00,87.76
1215.00,87.86
1214.00,87.94
1213.00,88.00
1212.00,88.05
1211.00,88.09
1210.00,88.12
1209.00,88.16
1208.00,88.19
1207.00,88.24
1206.00,88.30
1205.00,88.37
1204.00,88.45
1203.00,88.52
1202.00,88.59
1201.00,88.63
1200.00,88.67
1199.00,88.72
1198.00,88.78
1197.00,88.85
1196.00,88.89
1195.00,88.93
1194.00,88.95
1193.00,88.97
1192.00,88.99
1191.00,89.01
1190.00,89.05
1189.00,89.10
1188.00,89.15
1187.00,89.19
1186.00,89.21
1185.00,89.22
1184.00,89.23
1183.00,89.23
1182.00,89.22
1181.00,89.19
1180.00,89.15
1179.00,89.10
1178.00,89.06
1177.00,89.03
1176.00,89.02
1175.00,89.00
1174.00,88.99
1173.00,88.99
1172.00,89.00
1171.00,89.04
1170.00,89.10
1169.00,89.17
1168.00,89.23
1167.00,89.29
1166.00,89.34
1165.00,89.38
1164.00,89.42
1163.00,89.45
1162.00,89.49
1161.00,89.53
1160.00,89.56
1159.00,89.59
1158.00,89.62
1157.00,89.66
1156.00,89.70
1155.00,89.74
1154.00,89.78
1153.00,89.82
1152.00,89.88
1151.00,89.96
1150.00,90.06
1149.00,90.15
1148.00,90.22
1147.00,90.28
1146.00,90.33
1145.00,90.38
1144.00,90.42
1143.00,90.46
1142.00,90.50
1141.00,90.53
1140.00,90.55
1139.00,90.54
1138.00,90.53
1137.00,90.52
1136.00,90.50
1135.00,90.48
1134.00,90.45
1133.00,90.42
1132.00,90.39
1131.00,90.38
1130.00,90.37
1129.00,90.34
1128.00,90.30
1127.00,90.26
1126.00,90.22
1125.00,90.20
1124.00,90.18
1123.00,90.18
1122.00,90.20
1121.00,90.23
1120.00,90.24
1119.00,90.24
1118.00,90.23
1117.00,90.22
1116.00,90.20
1115.00,90.19
1114.00,90.18
1113.00,90.19
1112.00,90.20
1111.00,90.21
1110.00,90.20
1109.00,90.19
1108.00,90.17
1107.00,90.15
1106.00,90.14
1105.00,90.14
1104.00,90.14
1103.00,90.13
1102.00,90.12
1101.00,90.09
1100.00,90.06
1099.00,90.02
1098.00,89.99
1097.00,89.97
1096.00,89.95
1095.00,89.94
1094.00,89.93
1093.00,89.92
1092.00,89.90
1091.00,89.88
1090.00,89.85
1089.00,89.81
1088.00,89.75
1087.00,89.69
1086.00,89.63
1085.00,89.58
1084.00,89.52
1083.00,89.47
1082.00,89.42
1081.00,89.39
1080.00,89.38
1079.00,89.38
1078.00,89.39
1077.00,89.40
1076.00,89.38
1075.00,89.35
1074.00,89.33
1073.00,89.34
1072.00,89.37
1071.00,89.40
1070.00,89.43
1069.00,89.48
1068.00,89.52
1067.00,89.56
1066.00,89.60
1065.00,89.63
1064.00,89.67
1063.00,89.70
1062.00,89.72
1061.00,89.74
1060.00,89.76
1059.00,89.78
1058.00,89.82
1057.00,89.85
1056.00,89.88
1055.00,89.89
1054.00,89.87
1053.00,89.83
1052.00,89.81
1051.00,89.80
1050.00,89.81
1049.00,89.81
1048.00,89.81
1047.00,89.80
1046.00,89.80
1045.00,89.81
1044.00,89.84
1043.00,89.89
1042.00,89.98
1041.00,90.07
1040.00,90.16
1039.00,90.22
1038.00,90.26
1037.00,90.30
1036.00,90.37
1035.00,90.46
1034.00,90.56
1033.00,90.65
1032.00,90.72
1031.00,90.76
1030.00,90.79
1029.00,90.81
1028.00,90.85
1027.00,90.89
1026.00,90.95
1025.00,91.00
1024.00,91.06
1023.00,91.10
1022.00,91.15
1021.00,91.20
1020.00,91.27
1019.00,91.36
1018.00,91.47
1017.00,91.56
1016.00,91.63
1015.00,91.68
1014.00,91.72
1013.00,91.76
1012.00,91.81
1011.00,91.85
1010.00,91.90
1009.00,91.94
1008.00,92.00
1007.00,92.06
1006.00,92.13
1005.00,92.18
1004.00,92.21
1003.00,92.23
1002.00,92.25
1001.00,92.26
1000.00,92.28
999.00,92.30
998.00,92.31
997.00,92.31
996.00,92.31
995.00,92.33
994.00,92.35
993.00,92.38
992.00,92.41
991.00,92.43
990.00,92.44
989.00,92.45
988.00,92.45
987.00,92.46
986.00,92.47
985.00,92.49
984.00,92.50
983.00,92.52
982.00,92.53
981.00,92.55
980.00,92.58
979.00,92.60
978.00,92.62
977.00,92.62
976.00,92.61
975.00,92.62
974.00,92.63
973.00,92.65
972.00,92.67
971.00,92.69
970.00,92.71
969.00,92.73
968.00,92.73
967.00,92.72
966.00,92.69
965.00,92.67
964.00,92.65
963.00,92.64
962.00,92.64
961.00,92.65
960.00,92.66
959.00,92.68
958.00,92.69
957.00,92.71
956.00,92.72
955.00,92.72
954.00,92.73
953.00,92.74
952.00,92.75
951.00,92.75
950.00,92.75
949.00,92.76
948.00,92.76
947.00,92.77
946.00,92.76
945.00,92.74
944.00,92.70
943.00,92.65
942.00,92.60
941.00,92.55
940.00,92.52
939.00,92.49
938.00,92.47
937.00,92.46
936.00,92.46
935.00,92.47
934.00,92.46
933.00,92.43
932.00,92.37
931.00,92.30
930.00,92.25
929.00,92.23
928.00,92.23
927.00,92.25
926.00,92.27
925.00,92.29
924.00,92.30
923.00,92.31
922.00,92.32
921.00,92.32
920.00,92.32
919.00,92.33
918.00,92.35
917.00,92.38
916.00,92.41
915.00,92.43
914.00,92.44
913.00,92.46
912.00,92.48
911.00,92.51
910.00,92.52
909.00,92.51
908.00,92.48
907.00,92.43
906.00,92.39
905.00,92.37
904.00,92.35
903.00,92.33
902.00,92.31
901.00,92.28
900.00,92.24
899.00,92.21
898.00,92.20
897.00,92.19
896.00,92.18
895.00,92.16
894.00,92.14
893.00,92.11
892.00,92.07
891.00,92.01
890.00,91.95
889.00,91.91
888.00,91.89
887.00,91.88
886.00,91.87
885.00,91.84
884.00,91.79
883.00,91.72
882.00,91.65
881.00,91.59
880.00,91.57
879.00,91.56
878.00,91.55
877.00,91.54
876.00,91.53
875.00,91.51
874.00,91.50
873.00,91.47
872.00,91.44
871.00,91.41
870.00,91.40
869.00,91.40
868.00,91.39
867.00,91.36
866.00,91.32
865.00,91.29
864.00,91.26
863.00,91.24
862.00,91.21
861.00,91.18
860.00,91.16
859.00,91.15
858.00,91.13
857.00,91.10
856.00,91.03
855.00,90.95
854.00,90.86
853.00,90.80
852.00,90.73
851.00,90.65
850.00,90.56
849.00,90.48
848.00,90.42
847.00,90.36
846.00,90.32
845.00,90.28
844.00,90.24
843.00,90.20
842.00,90.14
841.00,90.06
840.00,89.98
839.00,89.91
838.00,89.86
837.00,89.82
836.00,89.76
835.00,89.71
834.00,89.65
833.00,89.60
832.00,89.54
831.00,89.50
830.00,89.47
829.00,89.43
828.00,89.40
827.00,89.35
826.00,89.31
825.00,89.26
824.00,89.21
823.00,89.15
822.00,89.13
821.00,89.13
820.00,89.12
819.00,89.09
818.00,89.03
817.00,88.96
816.00,88.89
815.00,88.84
814.00,88.78
813.00,88.73
812.00,88.67
811.00,88.59
810.00,88.51
809.00,88.44
808.00,88.36
807.00,88.28
806.00,88.20
805.00,88.14
804.00,88.11
803.00,88.09
802.00,88.08
801.00,88.04
800.00,87.97
799.00,87.90
798.00,87.83
797.00,87.79
796.00,87.77
795.00,87.73
794.00,87.67
793.00,87.58
792.00,87.48
791.00,87.39
790.00,87.31
789.00,87.25
788.00,87.20
787.00,87.16
786.00,87.11
785.00,87.04
784.00,86.96
783.00,86.90
782.00,86.87
781.00,86.86
780.00,86.84
779.00,86.81
778.00,86.76
777.00,86.69
776.00,86.61
775.00,86.55
774.00,86.53
773.00,86.50
772.00,86.47
771.00,86.42
770.00,86.34
769.00,86.23
768.00,86.13
767.00,86.06
766.00,86.00
765.00,85.95
764.00,85.88
763.00,85.82
762.00,85.76
761.00,85.70
760.00,85.63
759.00,85.56
758.00,85.49
757.00,85.41
756.00,85.32
755.00,85.25
754.00,85.21
753.00,85.18
752.00,85.15
751.00,85.09
750.00,85.02
749.00,84.93
748.00,84.82
747.00,84.73
746.00,84.67
745.00,84.63
744.00,84.59
743.00,84.55
742.00,84.49
741.00,84.41
740.00,84.32
739.00,84.22
738.00,84.14
737.00,84.11
736.00,84.11
735.00,84.14
734.00,84.18
733.00,84.17
732.00,84.10
731.00,84.00
730.00,83.88
729.00,83.76
728.00,83.63
727.00,83.51
726.00,83.43
725.00,83.37
724.00,83.32
723.00,83.25
722.00,83.16
721.00,83.07
720.00,82.98
719.00,82.91
718.00,82.83
717.00,82.73
716.00,82.64
715.00,82.56
714.00,82.51
713.00,82.47
712.00,82.44
711.00,82.41
710.00,82.36
709.00,82.26
708.00,82.14
707.00,82.01
706.00,81.90
705.00,81.78
704.00,81.67
703.00,81.58
702.00,81.52
701.00,81.45
700.00,81.36
699.00,81.24
698.00,81.13
697.00,81.03
696.00,80.96
695.00,80.92
694.00,80.94
693.00,80.99
692.00,81.04
691.00,81.04
690.00,81.01
689.00,80.95
688.00,80.88
687.00,80.80
686.00,80.72
685.00,80.63
684.00,80.56
683.00,80.52
682.00,80.48
681.00,80.43
680.00,80.39
679.00,80.39
678.00,80.40
677.00,80.34
676.00,80.23
675.00,80.12
674.00,80.05
673.00,79.99
672.00,79.92
671.00,79.86
670.00,79.85
669.00,79.87
668.00,79.80
667.00,79.65
666.00,79.53
665.00,79.42
664.00,79.27
663.00,79.08
662.00,78.89
661.00,78.76
660.00,78.72
659.00,78.77
658.00,78.86
657.00,78.89
656.00,78.81
655.00,78.69
654.00,78.59
653.00,78.51
652.00,78.44
651.00,78.38
650.00,78.31
649.00,78.24
648.00,78.20
647.00,78.23
646.00,78.30
645.00,78.33
644.00,78.28
643.00,78.22
642.00,78.16
641.00,78.10
640.00,78.01
639.00,77.94
638.00,77.88
637.00,77.79
636.00,77.69
635.00,77.66
634.00,77.71
633.00,77.77
632.00,77.78
631.00,77.78
630.00,77.80
629.00,77.81
628.00,77.77
627.00,77.76
626.00,77.85
625.00,78.02
624.00,78.19
623.00,78.32
622.00,78.34
621.00,78.16
620.00,77.80
619.00,77.47
618.00,77.31
617.00,77.24
616.00,77.09
615.00,76.88
614.00,76.70
613.00,76.60
612.00,76.61
611.00,76.76
610.00,76.90
609.00,76.84
608.00,76.56
607.00,76.28
606.00,76.21
605.00,76.32
604.00,76.59
603.00,77.05
602.00,77.61
601.00,77.98
600.00,77.94
599.00,77.57
598.00,77.12
597.00,76.70
596.00,76.34
595.00,76.06
594.00,75.94
593.00,75.95
592.00,76.00
591.00,76.08
590.00,76.16
589.00,76.14
588.00,75.92
587.00,75.53
586.00,75.09
585.00,74.68
584.00,74.43
583.00,74.49
582.00,74.87
581.00,75.35
580.00,75.80
579.00,76.23
578.00,76.61
577.00,76.70
576.00,76.36
575.00,75.84
574.00,75.54
573.00,75.62
572.00,75.90
571.00,76.05
570.00,75.79
569.00,75.17
568.00,74.58
567.00,74.45
566.00,74.79
565.00,75.29
564.00,75.81
563.00,76.32
562.00,76.50
561.00,76.05
560.00,75.23
559.00,74.69
558.00,74.64
557.00,74.63
556.00,74.40
555.00,74.27
554.00,74.49
553.00,74.72
552.00,74.52
551.00,74.04
550.00,73.58
