Created as New Dataset,Forensic, 3
cm-1,%T
4000.00,98.17
3999.00,98.19
3998.00,98.21
3997.00,98.23
3996.00,98.25
3995.00,98.25
3994.00,98.25
3993.00,98.25
3992.00,98.25
3991.00,98.24
3990.00,98.23
3989.00,98.21
3988.00,98.19
3987.00,98.17
3986.00,98.16
3985.00,98.15
3984.00,98.15
3983.00,98.15
3982.00,98.16
3981.00,98.17
3980.00,98.17
3979.00,98.18
3978.00,98.18
3977.00,98.17
3976.00,98.17
3975.00,98.17
3974.00,98.17
3973.00,98.18
3972.00,98.19
3971.00,98.20
3970.00,98.20
3969.00,98.20
3968.00,98.19
3967.00,98.17
3966.00,98.16
3965.00,98.14
3964.00,98.14
3963.00,98.15
3962.00,98.16
3961.00,98.17
3960.00,98.18
3959.00,98.18
3958.00,98.19
3957.00,98.20
3956.00,98.21
3955.00,98.23
3954.00,98.24
3953.00,98.23
3952.00,98.21
3951.00,98.20
3950.00,98.20
3949.00,98.21
3948.00,98.22
3947.00,98.23
3946.00,98.22
3945.00,98.21
3944.00,98.19
3943.00,98.18
3942.00,98.17
3941.00,98.17
3940.00,98.17
3939.00,98.16
3938.00,98.15
3937.00,98.15
3936.00,98.15
3935.00,98.15
3934.00,98.15
3933.00,98.15
3932.00,98.15
3931.00,98.15
3930.00,98.16
3929.00,98.16
3928.00,98.16
3927.00,98.15
3926.00,98.14
3925.00,98.15
3924.00,98.17
3923.00,98.20
3922.00,98.21
3921.00,98.21
3920.00,98.19
3919.00,98.17
3918.00,98.15
3917.00,98.14
3916.00,98.14
3915.00,98.12
3914.00,98.11
3913.00,98.09
3912.00,98.08
3911.00,98.09
3910.00,98.11
3909.00,98.13
3908.00,98.15
3907.00,98.15
3906.00,98.15
3905.00,98.16
3904.00,98.19
3903.00,98.24
3902.00,98.27
3901.00,98.26
3900.00,98.22
3899.00,98.18
3898.00,98.15
3897.00,98.15
3896.00,98.16
3895.00,98.17
3894.00,98.18
3893.00,98.18
3892.00,98.17
3891.00,98.18
3890.00,98.20
3889.00,98.21
3888.00,98.20
3887.00,98.17
3886.00,98.15
3885.00,98.14
3884.00,98.15
3883.00,98.15
3882.00,98.14
3881.00,98.13
3880.00,98.14
3879.00,98.15
3878.00,98.15
3877.00,98.13
3876.00,98.10
3875.00,98.09
3874.00,98.10
3873.00,98.12
3872.00,98.13
3871.00,98.11
3870.00,98.09
3869.00,98.10
3868.00,98.12
3867.00,98.13
3866.00,98.13
3865.00,98.14
3864.00,98.15
3863.00,98.15
3862.00,98.14
3861.00,98.12
3860.00,98.11
3859.00,98.10
3858.00,98.08
3857.00,98.07
3856.00,98.07
3855.00,98.07
3854.00,98.08
3853.00,98.10
3852.00,98.11
3851.00,98.09
3850.00,98.04
3849.00,97.99
3848.00,97.97
3847.00,97.97
3846.00,97.98
3845.00,98.01
3844.00,98.03
3843.00,98.04
3842.00,98.05
3841.00,98.05
3840.00,98.05
3839.00,98.04
3838.00,98.03
3837.00,98.01
3836.00,98.00
3835.00,98.00
3834.00,98.00
3833.00,98.01
3832.00,98.01
3831.00,98.02
3830.00,98.03
3829.00,98.04
3828.00,98.05
3827.00,98.05
3826.00,98.06
3825.00,98.06
3824.00,98.04
3823.00,97.99
3822.00,97.95
3821.00,97.95
3820.00,97.98
3819.00,98.00
3818.00,98.00
3817.00,97.98
3816.00,97.96
3815.00,97.95
3814.00,97.95
3813.00,97.93
3812.00,97.94
3811.00,97.97
3810.00,98.02
3809.00,98.05
3808.00,98.05
3807.00,98.01
3806.00,97.98
3805.00,97.97
3804.00,97.96
3803.00,97.94
3802.00,97.92
3801.00,97.91
3800.00,97.91
3799.00,97.91
3798.00,97.91
3797.00,97.93
3796.00,97.97
3795.00,98.01
3794.00,98.04
3793.00,98.04
3792.00,98.04
3791.00,98.04
3790.00,98.04
3789.00,98.05
3788.00,98.05
3787.00,98.03
3786.00,98.01
3785.00,97.99
3784.00,97.99
3783.00,98.00
3782.00,98.02
3781.00,98.03
3780.00,98.02
3779.00,98.02
3778.00,98.01
3777.00,98.01
3776.00,97.99
3775.00,97.98
3774.00,97.96
3773.00,97.95
3772.00,97.95
3771.00,97.95
3770.00,97.95
3769.00,97.95
3768.00,97.94
3767.00,97.90
3766.00,97.87
3765.00,97.85
3764.00,97.86
3763.00,97.88
3762.00,97.90
3761.00,97.92
3760.00,97.92
3759.00,97.91
3758.00,97.90
3757.00,97.89
3756.00,97.90
3755.00,97.90
3754.00,97.90
3753.00,97.88
3752.00,97.86
3751.00,97.83
3750.00,97.82
3749.00,97.82
3748.00,97.84
3747.00,97.84
3746.00,97.83
3745.00,97.81
3744.00,97.82
3743.00,97.86
3742.00,97.87
3741.00,97.84
3740.00,97.82
3739.00,97.83
3738.00,97.84
3737.00,97.85
3736.00,97.84
3735.00,97.83
3734.00,97.83
3733.00,97.84
3732.00,97.85
3731.00,97.86
3730.00,97.86
3729.00,97.85
3728.00,97.84
3727.00,97.82
3726.00,97.82
3725.00,97.83
3724.00,97.84
3723.00,97.84
3722.00,97.84
3721.00,97.84
3720.00,97.84
3719.00,97.83
3718.00,97.82
3717.00,97.82
3716.00,97.83
3715.00,97.84
3714.00,97.85
3713.00,97.84
3712.00,97.81
3711.00,97.77
3710.00,97.73
3709.00,97.72
3708.00,97.73
3707.00,97.76
3706.00,97.77
3705.00,97.78
3704.00,97.79
3703.00,97.79
3702.00,97.80
3701.00,97.81
3700.00,97.82
3699.00,97.81
3698.00,97.80
3697.00,97.79
3696.00,97.79
3695.00,97.79
3694.00,97.78
3693.00,97.77
3692.00,97.75
3691.00,97.74
3690.00,97.72
3689.00,97.71
3688.00,97.69
3687.00,97.68
3686.00,97.67
3685.00,97.66
3684.00,97.65
3683.00,97.64
3682.00,97.64
3681.00,97.63
3680.00,97.61
3679.00,97.60
3678.00,97.59
3677.00,97.54
3676.00,97.47
3675.00,97.42
3674.00,97.41
3673.00,97.41
3672.00,97.39
3671.00,97.37
3670.00,97.34
3669.00,97.32
3668.00,97.31
3667.00,97.30
3666.00,97.29
3665.00,97.28
3664.00,97.25
3663.00,97.21
3662.00,97.17
3661.00,97.14
3660.00,97.13
3659.00,97.14
3658.00,97.15
3657.00,97.15
3656.00,97.13
3655.00,97.10
3654.00,97.06
3653.00,97.00
3652.00,96.94
3651.00,96.89
3650.00,96.85
3649.00,96.83
3648.00,96.82
3647.00,96.81
3646.00,96.81
3645.00,96.79
3644.00,96.76
3643.00,96.72
3642.00,96.69
3641.00,96.69
3640.00,96.69
3639.00,96.69
3638.00,96.68
3637.00,96.66
3636.00,96.64
3635.00,96.62
3634.00,96.62
3633.00,96.63
3632.00,96.63
3631.00,96.60
3630.00,96.55
3629.00,96.50
3628.00,96.47
3627.00,96.46
3626.00,96.43
3625.00,96.40
3624.00,96.39
3623.00,96.39
3622.00,96.38
3621.00,96.37
3620.00,96.35
3619.00,96.32
3618.00,96.31
3617.00,96.29
3616.00,96.27
3615.00,96.24
3614.00,96.22
3613.00,96.21
3612.00,96.21
3611.00,96.19
3610.00,96.17
3609.00,96.16
3608.00,96.15
3607.00,96.15
3606.00,96.14
3605.00,96.12
3604.00,96.12
3603.00,96.12
3602.00,96.11
3601.00,96.09
3600.00,96.07
3599.00,96.06
3598.00,96.05
3597.00,96.05
3596.00,96.03
3595.00,96.01
3594.00,95.98
3593.00,95.97
3592.00,95.97
3591.00,95.98
3590.00,95.99
3589.00,95.98
3588.00,95.97
3587.00,95.96
3586.00,95.94
3585.00,95.91
3584.00,95.87
3583.00,95.83
3582.00,95.81
3581.00,95.80
3580.00,95.79
3579.00,95.77
3578.00,95.75
3577.00,95.72
3576.00,95.68
3575.00,95.65
3574.00,95.62
3573.00,95.60
3572.00,95.59
3571.00,95.60
3570.00,95.60
3569.00,95.60
3568.00,95.58
3567.00,95.55
3566.00,95.52
3565.00,95.48
3564.00,95.44
3563.00,95.41
3562.00,95.39
3561.00,95.36
3560.00,95.32
3559.00,95.27
3558.00,95.23
3557.00,95.20
3556.00,95.20
3555.00,95.20
3554.00,95.19
3553.00,95.17
3552.00,95.13
3551.00,95.10
3550.00,95.07
3549.00,95.04
3548.00,95.00
3547.00,94.97
3546.00,94.95
3545.00,94.95
3544.00,94.93
3543.00,94.90
3542.00,94.86
3541.00,94.82
3540.00,94.81
3539.00,94.80
3538.00,94.80
3537.00,94.79
3536.00,94.77
3535.00,94.76
3534.00,94.76
3533.00,94.75
3532.00,94.73
3531.00,94.69
3530.00,94.64
3529.00,94.60
3528.00,94.59
3527.00,94.60
3526.00,94.61
3525.00,94.61
3524.00,94.58
3523.00,94.55
3522.00,94.51
3521.00,94.48
3520.00,94.46
3519.00,94.44
3518.00,94.42
3517.00,94.40
3516.00,94.39
3515.00,94.37
3514.00,94.36
3513.00,94.33
3512.00,94.28
3511.00,94.23
3510.00,94.19
3509.00,94.16
3508.00,94.15
3507.00,94.15
3506.00,94.13
3505.00,94.10
3504.00,94.07
3503.00,94.04
3502.00,94.04
3501.00,94.03
3500.00,94.02
3499.00,94.00
3498.00,93.98
3497.00,93.96
3496.00,93.95
3495.00,93.94
3494.00,93.95
3493.00,93.97
3492.00,93.97
3491.00,93.97
3490.00,93.95
3489.00,93.93
3488.00,93.92
3487.00,93.93
3486.00,93.93
3485.00,93.92
3484.00,93.90
3483.00,93.87
3482.00,93.84
3481.00,93.83
3480.00,93.83
3479.00,93.84
3478.00,93.85
3477.00,93.87
3476.00,93.89
3475.00,93.91
3474.00,93.91
3473.00,93.91
3472.00,93.91
3471.00,93.92
3470.00,93.94
3469.00,93.95
3468.00,93.95
3467.00,93.94
3466.00,93.92
3465.00,93.90
3464.00,93.89
3463.00,93.89
3462.00,93.90
3461.00,93.92
3460.00,93.94
3459.00,93.95
3458.00,93.96
3457.00,93.97
3456.00,93.99
3455.00,94.00
3454.00,94.01
3453.00,94.01
3452.00,94.01
3451.00,94.01
3450.00,94.02
3449.00,94.04
3448.00,94.08
3447.00,94.13
3446.00,94.18
3445.00,94.22
3444.00,94.25
3443.00,94.26
3442.00,94.26
3441.00,94.27
3440.00,94.28
3439.00,94.31
3438.00,94.33
3437.00,94.33
3436.00,94.33
3435.00,94.32
3434.00,94.35
3433.00,94.39
3432.00,94.43
3431.00,94.45
3430.00,94.45
3429.00,94.44
3428.00,94.45
3427.00,94.48
3426.00,94.53
3425.00,94.57
3424.00,94.59
3423.00,94.59
3422.00,94.58
3421.00,94.57
3420.00,94.58
3419.00,94.60
3418.00,94.62
3417.00,94.63
3416.00,94.65
3415.00,94.67
3414.00,94.70
3413.00,94.72
3412.00,94.74
3411.00,94.77
3410.00,94.80
3409.00,94.82
3408.00,94.82
3407.00,94.82
3406.00,94.81
3405.00,94.80
3404.00,94.80
3403.00,94.82
3402.00,94.84
3401.00,94.85
3400.00,94.86
3399.00,94.86
3398.00,94.86
3397.00,94.87
3396.00,94.89
3395.00,94.91
3394.00,94.93
3393.00,94.94
3392.00,94.94
3391.00,94.95
3390.00,94.97
3389.00,94.99
3388.00,95.00
3387.00,95.00
3386.00,95.00
3385.00,94.98
3384.00,94.97
3383.00,94.96
3382.00,94.96
3381.00,94.98
3380.00,95.01
3379.00,95.05
3378.00,95.09
3377.00,95.12
3376.00,95.14
3375.00,95.16
3374.00,95.16
3373.00,95.16
3372.00,95.16
3371.00,95.15
3370.00,95.16
3369.00,95.17
3368.00,95.19
3367.00,95.20
3366.00,95.20
3365.00,95.19
3364.00,95.18
3363.00,95.18
3362.00,95.19
3361.00,95.22
3360.00,95.25
3359.00,95.28
3358.00,95.29
3357.00,95.31
3356.00,95.32
3355.00,95.33
3354.00,95.34
3353.00,95.34
3352.00,95.35
3351.00,95.37
3350.00,95.38
3349.00,95.39
3348.00,95.40
3347.00,95.41
3346.00,95.42
3345.00,95.42
3344.00,95.43
3343.00,95.44
3342.00,95.46
3341.00,95.48
3340.00,95.51
3339.00,95.53
3338.00,95.55
3337.00,95.57
3336.00,95.57
3335.00,95.56
3334.00,95.55
3333.00,95.55
3332.00,95.55
3331.00,95.56
3330.00,95.59
3329.00,95.62
3328.00,95.66
3327.00,95.68
3326.00,95.68
3325.00,95.67
3324.00,95.66
3323.00,95.67
3322.00,95.69
3321.00,95.70
3320.00,95.71
3319.00,95.70
3318.00,95.70
3317.00,95.71
3316.00,95.72
3315.00,95.74
3314.00,95.76
3313.00,95.78
3312.00,95.80
3311.00,95.81
3310.00,95.82
3309.00,95.81
3308.00,95.80
3307.00,95.79
3306.00,95.77
3305.00,95.76
3304.00,95.76
3303.00,95.78
3302.00,95.80
3301.00,95.81
3300.00,95.82
3299.00,95.82
3298.00,95.83
3297.00,95.84
3296.00,95.85
3295.00,95.85
3294.00,95.85
3293.00,95.84
3292.00,95.84
3291.00,95.84
3290.00,95.85
3289.00,95.87
3288.00,95.88
3287.00,95.88
3286.00,95.88
3285.00,95.89
3284.00,95.90
3283.00,95.91
3282.00,95.91
3281.00,95.90
3280.00,95.90
3279.00,95.90
3278.00,95.91
3277.00,95.91
3276.00,95.90
3275.00,95.89
3274.00,95.88
3273.00,95.89
3272.00,95.91
3271.00,95.94
3270.00,95.98
3269.00,96.00
3268.00,96.01
3267.00,96.01
3266.00,96.02
3265.00,96.04
3264.00,96.05
3263.00,96.07
3262.00,96.07
3261.00,96.07
3260.00,96.06
3259.00,96.05
3258.00,96.03
3257.00,96.03
3256.00,96.04
3255.00,96.07
3254.00,96.09
3253.00,96.10
3252.00,96.10
3251.00,96.09
3250.00,96.10
3249.00,96.10
3248.00,96.11
3247.00,96.11
3246.00,96.11
3245.00,96.10
3244.00,96.10
3243.00,96.09
3242.00,96.08
3241.00,96.07
3240.00,96.09
3239.00,96.11
3238.00,96.14
3237.00,96.16
3236.00,96.16
3235.00,96.15
3234.00,96.15
3233.00,96.16
3232.00,96.18
3231.00,96.20
3230.00,96.21
3229.00,96.19
3228.00,96.17
3227.00,96.16
3226.00,96.18
3225.00,96.21
3224.00,96.23
3223.00,96.24
3222.00,96.23
3221.00,96.22
3220.00,96.22
3219.00,96.23
3218.00,96.24
3217.00,96.27
3216.00,96.30
3215.00,96.33
3214.00,96.33
3213.00,96.33
3212.00,96.31
3211.00,96.30
3210.00,96.28
3209.00,96.27
3208.00,96.28
3207.00,96.29
3206.00,96.32
3205.00,96.34
3204.00,96.35
3203.00,96.35
3202.00,96.35
3201.00,96.34
3200.00,96.34
3199.00,96.35
3198.00,96.36
3197.00,96.37
3196.00,96.37
3195.00,96.38
3194.00,96.39
3193.00,96.41
3192.00,96.43
3191.00,96.43
3190.00,96.42
3189.00,96.41
3188.00,96.42
3187.00,96.44
3186.00,96.46
3185.00,96.49
3184.00,96.50
3183.00,96.50
3182.00,96.50
3181.00,96.50
3180.00,96.50
3179.00,96.50
3178.00,96.49
3177.00,96.48
3176.00,96.47
3175.00,96.48
3174.00,96.49
3173.00,96.50
3172.00,96.51
3171.00,96.51
3170.00,96.51
3169.00,96.51
3168.00,96.52
3167.00,96.53
3166.00,96.54
3165.00,96.55
3164.00,96.56
3163.00,96.56
3162.00,96.56
3161.00,96.55
3160.00,96.54
3159.00,96.53
3158.00,96.53
3157.00,96.53
3156.00,96.53
3155.00,96.54
3154.00,96.55
3153.00,96.56
3152.00,96.58
3151.00,96.58
3150.00,96.59
3149.00,96.59
3148.00,96.59
3147.00,96.61
3146.00,96.62
3145.00,96.63
3144.00,96.63
3143.00,96.64
3142.00,96.64
3141.00,96.65
3140.00,96.65
3139.00,96.64
3138.00,96.64
3137.00,96.64
3136.00,96.63
3135.00,96.62
3134.00,96.60
3133.00,96.59
3132.00,96.59
3131.00,96.62
3130.00,96.64
3129.00,96.66
3128.00,96.66
3127.00,96.66
3126.00,96.66
3125.00,96.66
3124.00,96.66
3123.00,96.66
3122.00,96.65
3121.00,96.65
3120.00,96.64
3119.00,96.64
3118.00,96.65
3117.00,96.66
3116.00,96.67
3115.00,96.67
3114.00,96.66
3113.00,96.66
3112.00,96.66
3111.00,96.67
3110.00,96.68
3109.00,96.70
3108.00,96.70
3107.00,96.71
3106.00,96.71
3105.00,96.71
3104.00,96.70
3103.00,96.69
3102.00,96.67
3101.00,96.66
3100.00,96.65
3099.00,96.65
3098.00,96.66
3097.00,96.66
3096.00,96.67
3095.00,96.67
3094.00,96.67
3093.00,96.67
3092.00,96.67
3091.00,96.67
3090.00,96.68
3089.00,96.68
3088.00,96.68
3087.00,96.69
3086.00,96.70
3085.00,96.71
3084.00,96.71
3083.00,96.71
3082.00,96.69
3081.00,96.69
3080.00,96.68
3079.00,96.68
3078.00,96.69
3077.00,96.69
3076.00,96.69
3075.00,96.69
3074.00,96.68
3073.00,96.68
3072.00,96.68
3071.00,96.68
3070.00,96.68
3069.00,96.67
3068.00,96.67
3067.00,96.66
3066.00,96.65
3065.00,96.65
3064.00,96.66
3063.00,96.66
3062.00,96.66
3061.00,96.66
3060.00,96.67
3059.00,96.66
3058.00,96.67
3057.00,96.67
3056.00,96.68
3055.00,96.69
3054.00,96.70
3053.00,96.70
3052.00,96.70
3051.00,96.69
3050.00,96.68
3049.00,96.67
3048.00,96.64
3047.00,96.62
3046.00,96.60
3045.00,96.59
3044.00,96.59
3043.00,96.59
3042.00,96.59
3041.00,96.58
3040.00,96.58
3039.00,96.56
3038.00,96.55
3037.00,96.53
3036.00,96.53
3035.00,96.52
3034.00,96.50
3033.00,96.49
3032.00,96.47
3031.00,96.45
3030.00,96.42
3029.00,96.40
3028.00,96.38
3027.00,96.37
3026.00,96.36
3025.00,96.36
3024.00,96.35
3023.00,96.35
3022.00,96.34
3021.00,96.33
3020.00,96.33
3019.00,96.32
3018.00,96.32
3017.00,96.31
3016.00,96.30
3015.00,96.28
3014.00,96.26
3013.00,96.26
3012.00,96.27
3011.00,96.27
3010.00,96.27
3009.00,96.26
3008.00,96.24
3007.00,96.22
3006.00,96.21
3005.00,96.20
3004.00,96.19
3003.00,96.18
3002.00,96.15
3001.00,96.13
3000.00,96.11
2999.00,96.09
2998.00,96.07
2997.00,96.05
2996.00,96.03
2995.00,96.02
2994.00,96.01
2993.00,95.99
2992.00,95.98
2991.00,95.95
2990.00,95.91
2989.00,95.88
2988.00,95.86
2987.00,95.86
2986.00,95.86
2985.00,95.87
2984.00,95.86
2983.00,95.84
2982.00,95.81
2981.00,95.78
2980.00,95.74
2979.00,95.71
2978.00,95.68
2977.00,95.65
2976.00,95.61
2975.00,95.57
2974.00,95.52
2973.00,95.47
2972.00,95.42
2971.00,95.36
2970.00,95.29
2969.00,95.22
2968.00,95.14
2967.00,95.06
2966.00,94.98
2965.00,94.90
2964.00,94.84
2963.00,94.79
2962.00,94.75
2961.00,94.73
2960.00,94.71
2959.00,94.70
2958.00,94.69
2957.00,94.69
2956.00,94.67
2955.00,94.63
2954.00,94.58
2953.00,94.53
2952.00,94.49
2951.00,94.45
2950.00,94.42
2949.00,94.39
2948.00,94.37
2947.00,94.35
2946.00,94.33
2945.00,94.28
2944.00,94.23
2943.00,94.18
2942.00,94.15
2941.00,94.14
2940.00,94.14
2939.00,94.14
2938.00,94.14
2937.00,94.13
2936.00,94.12
2935.00,94.11
2934.00,94.11
2933.00,94.11
2932.00,94.12
2931.00,94.12
2930.00,94.13
2929.00,94.14
2928.00,94.16
2927.00,94.19
2926.00,94.21
2925.00,94.22
2924.00,94.23
2923.00,94.25
2922.00,94.28
2921.00,94.32
2920.00,94.35
2919.00,94.38
2918.00,94.41
2917.00,94.44
2916.00,94.49
2915.00,94.53
2914.00,94.57
2913.00,94.60
2912.00,94.62
2911.00,94.63
2910.00,94.64
2909.00,94.65
2908.00,94.66
2907.00,94.67
2906.00,94.69
2905.00,94.70
2904.00,94.71
2903.00,94.72
2902.00,94.72
2901.00,94.72
2900.00,94.72
2899.00,94.72
2898.00,94.71
2897.00,94.70
2896.00,94.70
2895.00,94.71
2894.00,94.72
2893.00,94.73
2892.00,94.74
2891.00,94.74
2890.00,94.74
2889.00,94.75
2888.00,94.75
2887.00,94.76
2886.00,94.76
2885.00,94.76
2884.00,94.77
2883.00,94.78
2882.00,94.79
2881.00,94.80
2880.00,94.80
2879.00,94.81
2878.00,94.81
2877.00,94.82
2876.00,94.82
2875.00,94.84
2874.00,94.87
2873.00,94.90
2872.00,94.93
2871.00,94.94
2870.00,94.95
2869.00,94.95
2868.00,94.96
2867.00,94.98
2866.00,95.00
2865.00,95.03
2864.00,95.05
2863.00,95.06
2862.00,95.06
2861.00,95.07
2860.00,95.07
2859.00,95.08
2858.00,95.09
2857.00,95.10
2856.00,95.10
2855.00,95.10
2854.00,95.12
2853.00,95.16
2852.00,95.21
2851.00,95.27
2850.00,95.33
2849.00,95.41
2848.00,95.50
2847.00,95.59
2846.00,95.67
2845.00,95.73
2844.00,95.78
2843.00,95.83
2842.00,95.87
2841.00,95.92
2840.00,95.97
2839.00,96.01
2838.00,96.05
2837.00,96.08
2836.00,96.11
2835.00,96.15
2834.00,96.18
2833.00,96.21
2832.00,96.23
2831.00,96.25
2830.00,96.27
2829.00,96.28
2828.00,96.28
2827.00,96.28
2826.00,96.29
2825.00,96.30
2824.00,96.31
2823.00,96.33
2822.00,96.34
2821.00,96.35
2820.00,96.36
2819.00,96.36
2818.00,96.36
2817.00,96.37
2816.00,96.38
2815.00,96.38
2814.00,96.39
2813.00,96.40
2812.00,96.40
2811.00,96.41
2810.00,96.42
2809.00,96.43
2808.00,96.44
2807.00,96.43
2806.00,96.42
2805.00,96.41
2804.00,96.42
2803.00,96.43
2802.00,96.44
2801.00,96.45
2800.00,96.47
2799.00,96.49
2798.00,96.50
2797.00,96.50
2796.00,96.50
2795.00,96.50
2794.00,96.50
2793.00,96.50
2792.00,96.49
2791.00,96.49
2790.00,96.49
2789.00,96.50
2788.00,96.51
2787.00,96.53
2786.00,96.53
2785.00,96.54
2784.00,96.55
2783.00,96.56
2782.00,96.56
2781.00,96.57
2780.00,96.57
2779.00,96.58
2778.00,96.59
2777.00,96.60
2776.00,96.59
2775.00,96.59
2774.00,96.59
2773.00,96.59
2772.00,96.59
2771.00,96.60
2770.00,96.60
2769.00,96.60
2768.00,96.60
2767.00,96.61
2766.00,96.62
2765.00,96.62
2764.00,96.62
2763.00,96.62
2762.00,96.62
2761.00,96.62
2760.00,96.62
2759.00,96.62
2758.00,96.62
2757.00,96.61
2756.00,96.60
2755.00,96.59
2754.00,96.58
2753.00,96.57
2752.00,96.58
2751.00,96.59
2750.00,96.61
2749.00,96.61
2748.00,96.61
2747.00,96.60
2746.00,96.58
2745.00,96.56
2744.00,96.55
2743.00,96.56
2742.00,96.56
2741.00,96.57
2740.00,96.58
2739.00,96.58
2738.00,96.58
2737.00,96.58
2736.00,96.57
2735.00,96.55
2734.00,96.53
2733.00,96.52
2732.00,96.52
2731.00,96.54
2730.00,96.55
2729.00,96.56
2728.00,96.57
2727.00,96.56
2726.00,96.55
2725.00,96.54
2724.00,96.53
2723.00,96.53
2722.00,96.54
2721.00,96.54
2720.00,96.55
2719.00,96.55
2718.00,96.56
2717.00,96.57
2716.00,96.59
2715.00,96.61
2714.00,96.62
2713.00,96.62
2712.00,96.62
2711.00,96.62
2710.00,96.63
2709.00,96.64
2708.00,96.65
2707.00,96.65
2706.00,96.65
2705.00,96.65
2704.00,96.65
2703.00,96.65
2702.00,96.66
2701.00,96.67
2700.00,96.67
2699.00,96.67
2698.00,96.66
2697.00,96.66
2696.00,96.66
2695.00,96.66
2694.00,96.66
2693.00,96.66
2692.00,96.66
2691.00,96.67
2690.00,96.67
2689.00,96.67
2688.00,96.67
2687.00,96.67
2686.00,96.67
2685.00,96.68
2684.00,96.68
2683.00,96.69
2682.00,96.70
2681.00,96.70
2680.00,96.69
2679.00,96.68
2678.00,96.66
2677.00,96.64
2676.00,96.64
2675.00,96.65
2674.00,96.65
2673.00,96.65
2672.00,96.65
2671.00,96.66
2670.00,96.67
2669.00,96.69
2668.00,96.69
2667.00,96.68
2666.00,96.67
2665.00,96.66
2664.00,96.65
2663.00,96.63
2662.00,96.61
2661.00,96.60
2660.00,96.59
2659.00,96.58
2658.00,96.58
2657.00,96.57
2656.00,96.56
2655.00,96.55
2654.00,96.54
2653.00,96.54
2652.00,96.54
2651.00,96.53
2650.00,96.54
2649.00,96.54
2648.00,96.54
2647.00,96.53
2646.00,96.51
2645.00,96.50
2644.00,96.49
2643.00,96.47
2642.00,96.45
2641.00,96.43
2640.00,96.42
2639.00,96.41
2638.00,96.41
2637.00,96.41
2636.00,96.41
2635.00,96.40
2634.00,96.39
2633.00,96.39
2632.00,96.40
2631.00,96.40
2630.00,96.40
2629.00,96.39
2628.00,96.37
2627.00,96.36
2626.00,96.37
2625.00,96.38
2624.00,96.38
2623.00,96.38
2622.00,96.36
2621.00,96.35
2620.00,96.35
2619.00,96.36
2618.00,96.39
2617.00,96.41
2616.00,96.41
2615.00,96.39
2614.00,96.37
2613.00,96.36
2612.00,96.36
2611.00,96.36
2610.00,96.36
2609.00,96.36
2608.00,96.35
2607.00,96.35
2606.00,96.33
2605.00,96.31
2604.00,96.29
2603.00,96.28
2602.00,96.28
2601.00,96.29
2600.00,96.31
2599.00,96.33
2598.00,96.33
2597.00,96.33
2596.00,96.32
2595.00,96.31
2594.00,96.29
2593.00,96.28
2592.00,96.26
2591.00,96.24
2590.00,96.23
2589.00,96.23
2588.00,96.23
2587.00,96.23
2586.00,96.22
2585.00,96.22
2584.00,96.22
2583.00,96.22
2582.00,96.23
2581.00,96.24
2580.00,96.25
2579.00,96.27
2578.00,96.27
2577.00,96.26
2576.00,96.25
2575.00,96.25
2574.00,96.26
2573.00,96.26
2572.00,96.25
2571.00,96.23
2570.00,96.21
2569.00,96.21
2568.00,96.23
2567.00,96.26
2566.00,96.27
2565.00,96.24
2564.00,96.21
2563.00,96.17
2562.00,96.16
2561.00,96.16
2560.00,96.17
2559.00,96.19
2558.00,96.21
2557.00,96.23
2556.00,96.22
2555.00,96.21
2554.00,96.19
2553.00,96.18
2552.00,96.19
2551.00,96.20
2550.00,96.22
2549.00,96.24
2548.00,96.25
2547.00,96.25
2546.00,96.25
2545.00,96.23
2544.00,96.21
2543.00,96.21
2542.00,96.22
2541.00,96.23
2540.00,96.21
2539.00,96.19
2538.00,96.18
2537.00,96.18
2536.00,96.19
2535.00,96.20
2534.00,96.20
2533.00,96.21
2532.00,96.22
2531.00,96.24
2530.00,96.26
2529.00,96.26
2528.00,96.25
2527.00,96.24
2526.00,96.24
2525.00,96.24
2524.00,96.24
2523.00,96.24
2522.00,96.24
2521.00,96.22
2520.00,96.20
2519.00,96.17
2518.00,96.15
2517.00,96.15
2516.00,96.17
2515.00,96.20
2514.00,96.22
2513.00,96.23
2512.00,96.22
2511.00,96.20
2510.00,96.19
2509.00,96.19
2508.00,96.19
2507.00,96.20
2506.00,96.21
2505.00,96.23
2504.00,96.23
2503.00,96.23
2502.00,96.22
2501.00,96.20
2500.00,96.19
2499.00,96.19
2498.00,96.19
2497.00,96.20
2496.00,96.19
2495.00,96.18
2494.00,96.18
2493.00,96.19
2492.00,96.21
2491.00,96.22
2490.00,96.22
2489.00,96.21
2488.00,96.21
2487.00,96.21
2486.00,96.20
2485.00,96.20
2484.00,96.19
2483.00,96.19
2482.00,96.20
2481.00,96.21
2480.00,96.21
2479.00,96.19
2478.00,96.17
2477.00,96.15
2476.00,96.13
2475.00,96.12
2474.00,96.12
2473.00,96.12
2472.00,96.12
2471.00,96.12
2470.00,96.12
2469.00,96.12
2468.00,96.13
2467.00,96.14
2466.00,96.15
2465.00,96.15
2464.00,96.15
2463.00,96.16
2462.00,96.18
2461.00,96.17
2460.00,96.16
2459.00,96.13
2458.00,96.11
2457.00,96.10
2456.00,96.10
2455.00,96.11
2454.00,96.12
2453.00,96.14
2452.00,96.16
2451.00,96.17
2450.00,96.17
2449.00,96.17
2448.00,96.16
2447.00,96.16
2446.00,96.15
2445.00,96.13
2444.00,96.11
2443.00,96.10
2442.00,96.11
2441.00,96.14
2440.00,96.17
2439.00,96.20
2438.00,96.21
2437.00,96.20
2436.00,96.20
2435.00,96.20
2434.00,96.21
2433.00,96.21
2432.00,96.20
2431.00,96.18
2430.00,96.17
2429.00,96.18
2428.00,96.20
2427.00,96.21
2426.00,96.21
2425.00,96.19
2424.00,96.17
2423.00,96.14
2422.00,96.14
2421.00,96.15
2420.00,96.16
2419.00,96.17
2418.00,96.17
2417.00,96.17
2416.00,96.17
2415.00,96.17
2414.00,96.18
2413.00,96.20
2412.00,96.22
2411.00,96.24
2410.00,96.25
2409.00,96.26
2408.00,96.27
2407.00,96.29
2406.00,96.31
2405.00,96.33
2404.00,96.32
2403.00,96.31
2402.00,96.31
2401.00,96.32
2400.00,96.32
2399.00,96.33
2398.00,96.34
2397.00,96.36
2396.00,96.38
2395.00,96.40
2394.00,96.43
2393.00,96.46
2392.00,96.46
2391.00,96.46
2390.00,96.44
2389.00,96.43
2388.00,96.44
2387.00,96.45
2386.00,96.46
2385.00,96.47
2384.00,96.49
2383.00,96.51
2382.00,96.53
2381.00,96.54
2380.00,96.56
2379.00,96.58
2378.00,96.64
2377.00,96.71
2376.00,96.79
2375.00,96.84
2374.00,96.87
2373.00,96.88
2372.00,96.88
2371.00,96.89
2370.00,96.89
2369.00,96.88
2368.00,96.85
2367.00,96.81
2366.00,96.81
2365.00,96.82
2364.00,96.84
2363.00,96.85
2362.00,96.87
2361.00,96.90
2360.00,96.90
2359.00,96.84
2358.00,96.77
2357.00,96.75
2356.00,96.79
2355.00,96.87
2354.00,96.91
2353.00,96.91
2352.00,96.91
2351.00,96.91
2350.00,96.91
2349.00,96.90
2348.00,96.90
2347.00,96.92
2346.00,96.98
2345.00,97.04
2344.00,97.07
2343.00,97.05
2342.00,96.98
2341.00,96.90
2340.00,96.85
2339.00,96.82
2338.00,96.83
2337.00,96.86
2336.00,96.87
2335.00,96.87
2334.00,96.86
2333.00,96.86
2332.00,96.87
2331.00,96.87
2330.00,96.86
2329.00,96.83
2328.00,96.82
2327.00,96.79
2326.00,96.74
2325.00,96.67
2324.00,96.59
2323.00,96.54
2322.00,96.54
2321.00,96.58
2320.00,96.62
2319.00,96.62
2318.00,96.58
2317.00,96.53
2316.00,96.49
2315.00,96.47
2314.00,96.47
2313.00,96.48
2312.00,96.49
2311.00,96.49
2310.00,96.48
2309.00,96.45
2308.00,96.42
2307.00,96.41
2306.00,96.42
2305.00,96.43
2304.00,96.42
2303.00,96.39
2302.00,96.35
2301.00,96.32
2300.00,96.30
2299.00,96.29
2298.00,96.26
2297.00,96.23
2296.00,96.18
2295.00,96.15
2294.00,96.13
2293.00,96.13
2292.00,96.13
2291.00,96.11
2290.00,96.07
2289.00,96.03
2288.00,95.99
2287.00,95.96
2286.00,95.93
2285.00,95.88
2284.00,95.82
2283.00,95.78
2282.00,95.75
2281.00,95.74
2280.00,95.76
2279.00,95.80
2278.00,95.83
2277.00,95.84
2276.00,95.83
2275.00,95.79
2274.00,95.75
2273.00,95.72
2272.00,95.70
2271.00,95.69
2270.00,95.69
2269.00,95.71
2268.00,95.73
2267.00,95.73
2266.00,95.72
2265.00,95.70
2264.00,95.69
2263.00,95.70
2262.00,95.73
2261.00,95.74
2260.00,95.73
2259.00,95.71
2258.00,95.71
2257.00,95.69
2256.00,95.64
2255.00,95.58
2254.00,95.52
2253.00,95.49
2252.00,95.50
2251.00,95.53
2250.00,95.54
2249.00,95.53
2248.00,95.50
2247.00,95.47
2246.00,95.46
2245.00,95.47
2244.00,95.46
2243.00,95.45
2242.00,95.43
2241.00,95.41
2240.00,95.39
2239.00,95.37
2238.00,95.36
2237.00,95.36
2236.00,95.37
2235.00,95.39
2234.00,95.40
2233.00,95.40
2232.00,95.40
2231.00,95.39
2230.00,95.39
2229.00,95.38
2228.00,95.35
2227.00,95.30
2226.00,95.25
2225.00,95.22
2224.00,95.23
2223.00,95.25
2222.00,95.29
2221.00,95.32
2220.00,95.31
2219.00,95.25
2218.00,95.17
2217.00,95.10
2216.00,95.07
2215.00,95.08
2214.00,95.09
2213.00,95.12
2212.00,95.15
2211.00,95.16
2210.00,95.15
2209.00,95.12
2208.00,95.09
2207.00,95.07
2206.00,95.06
2205.00,95.09
2204.00,95.14
2203.00,95.18
2202.00,95.18
2201.00,95.14
2200.00,95.07
2199.00,94.99
2198.00,94.94
2197.00,94.92
2196.00,94.94
2195.00,94.97
2194.00,94.98
2193.00,94.96
2192.00,94.94
2191.00,94.92
2190.00,94.89
2189.00,94.84
2188.00,94.79
2187.00,94.73
2186.00,94.67
2185.00,94.62
2184.00,94.59
2183.00,94.61
2182.00,94.67
2181.00,94.73
2180.00,94.74
2179.00,94.73
2178.00,94.73
2177.00,94.75
2176.00,94.79
2175.00,94.82
2174.00,94.82
2173.00,94.79
2172.00,94.71
2171.00,94.59
2170.00,94.45
2169.00,94.34
2168.00,94.28
2167.00,94.26
2166.00,94.23
2165.00,94.15
2164.00,94.02
2163.00,93.87
2162.00,93.79
2161.00,93.85
2160.00,94.05
2159.00,94.32
2158.00,94.57
2157.00,94.71
2156.00,94.79
2155.00,94.84
2154.00,94.90
2153.00,94.94
2152.00,94.93
2151.00,94.89
2150.00,94.85
2149.00,94.86
2148.00,94.90
2147.00,94.96
2146.00,95.01
2145.00,95.05
2144.00,95.08
2143.00,95.08
2142.00,95.07
2141.00,95.05
2140.00,95.05
2139.00,95.04
2138.00,95.04
2137.00,95.07
2136.00,95.15
2135.00,95.26
2134.00,95.36
2133.00,95.43
2132.00,95.47
2131.00,95.49
2130.00,95.49
2129.00,95.48
2128.00,95.48
2127.00,95.49
2126.00,95.51
2125.00,95.53
2124.00,95.53
2123.00,95.53
2122.00,95.54
2121.00,95.56
2120.00,95.56
2119.00,95.55
2118.00,95.53
2117.00,95.50
2116.00,95.46
2115.00,95.39
2114.00,95.33
2113.00,95.30
2112.00,95.29
2111.00,95.31
2110.00,95.34
2109.00,95.36
2108.00,95.38
2107.00,95.40
2106.00,95.41
2105.00,95.43
2104.00,95.43
2103.00,95.40
2102.00,95.38
2101.00,95.37
2100.00,95.38
2099.00,95.40
2098.00,95.43
2097.00,95.46
2096.00,95.51
2095.00,95.56
2094.00,95.61
2093.00,95.62
2092.00,95.59
2091.00,95.55
2090.00,95.53
2089.00,95.53
2088.00,95.55
2087.00,95.56
2086.00,95.57
2085.00,95.55
2084.00,95.54
2083.00,95.53
2082.00,95.54
2081.00,95.55
2080.00,95.53
2079.00,95.50
2078.00,95.47
2077.00,95.45
2076.00,95.44
2075.00,95.44
2074.00,95.46
2073.00,95.46
2072.00,95.45
2071.00,95.41
2070.00,95.39
2069.00,95.41
2068.00,95.46
2067.00,95.49
2066.00,95.49
2065.00,95.46
2064.00,95.44
2063.00,95.43
2062.00,95.41
2061.00,95.38
2060.00,95.36
2059.00,95.36
2058.00,95.38
2057.00,95.41
2056.00,95.43
2055.00,95.45
2054.00,95.43
2053.00,95.37
2052.00,95.27
2051.00,95.15
2050.00,95.07
2049.00,95.03
2048.00,95.01
2047.00,95.01
2046.00,95.02
2045.00,95.03
2044.00,95.02
2043.00,95.00
2042.00,94.99
2041.00,94.99
2040.00,94.99
2039.00,94.96
2038.00,94.88
2037.00,94.79
2036.00,94.74
2035.00,94.77
2034.00,94.85
2033.00,94.93
2032.00,94.96
2031.00,94.96
2030.00,94.97
2029.00,95.00
2028.00,95.00
2027.00,94.94
2026.00,94.87
2025.00,94.81
2024.00,94.81
2023.00,94.86
2022.00,94.92
2021.00,94.96
2020.00,94.96
2019.00,94.95
2018.00,94.95
2017.00,94.96
2016.00,94.94
2015.00,94.90
2014.00,94.89
2013.00,94.94
2012.00,95.01
2011.00,95.05
2010.00,95.05
2009.00,95.05
2008.00,95.08
2007.00,95.16
2006.00,95.25
2005.00,95.31
2004.00,95.34
2003.00,95.34
2002.00,95.36
2001.00,95.41
2000.00,95.46
1999.00,95.46
1998.00,95.42
1997.00,95.33
1996.00,95.23
1995.00,95.16
1994.00,95.14
1993.00,95.16
1992.00,95.19
1991.00,95.21
1990.00,95.23
1989.00,95.26
1988.00,95.28
1987.00,95.30
1986.00,95.32
1985.00,95.33
1984.00,95.30
1983.00,95.22
1982.00,95.09
1981.00,94.96
1980.00,94.87
1979.00,94.86
1978.00,94.92
1977.00,95.02
1976.00,95.12
1975.00,95.19
1974.00,95.23
1973.00,95.23
1972.00,95.21
1971.00,95.20
1970.00,95.22
1969.00,95.28
1968.00,95.34
1967.00,95.38
1966.00,95.40
1965.00,95.41
1964.00,95.39
1963.00,95.38
1962.00,95.40
1961.00,95.45
1960.00,95.52
1959.00,95.58
1958.00,95.62
1957.00,95.65
1956.00,95.66
1955.00,95.65
1954.00,95.65
1953.00,95.67
1952.00,95.69
1951.00,95.69
1950.00,95.70
1949.00,95.74
1948.00,95.81
1947.00,95.87
1946.00,95.90
1945.00,95.90
1944.00,95.88
1943.00,95.89
1942.00,95.93
1941.00,95.97
1940.00,95.99
1939.00,95.99
1938.00,95.99
1937.00,96.00
1936.00,96.01
1935.00,96.02
1934.00,96.02
1933.00,96.03
1932.00,96.04
1931.00,96.05
1930.00,96.06
1929.00,96.08
1928.00,96.10
1927.00,96.11
1926.00,96.13
1925.00,96.16
1924.00,96.21
1923.00,96.26
1922.00,96.29
1921.00,96.30
1920.00,96.30
1919.00,96.30
1918.00,96.30
1917.00,96.29
1916.00,96.28
1915.00,96.28
1914.00,96.29
1913.00,96.30
1912.00,96.31
1911.00,96.31
1910.00,96.32
1909.00,96.36
1908.00,96.39
1907.00,96.41
1906.00,96.40
1905.00,96.40
1904.00,96.42
1903.00,96.46
1902.00,96.49
1901.00,96.50
1900.00,96.48
1899.00,96.46
1898.00,96.45
1897.00,96.46
1896.00,96.49
1895.00,96.51
1894.00,96.54
1893.00,96.57
1892.00,96.58
1891.00,96.59
1890.00,96.60
1889.00,96.61
1888.00,96.64
1887.00,96.67
1886.00,96.70
1885.00,96.72
1884.00,96.72
1883.00,96.71
1882.00,96.70
1881.00,96.70
1880.00,96.71
1879.00,96.71
1878.00,96.72
1877.00,96.71
1876.00,96.69
1875.00,96.68
1874.00,96.69
1873.00,96.72
1872.00,96.76
1871.00,96.77
1870.00,96.77
1869.00,96.76
1868.00,96.77
1867.00,96.78
1866.00,96.78
1865.00,96.77
1864.00,96.74
1863.00,96.72
1862.00,96.71
1861.00,96.73
1860.00,96.76
1859.00,96.79
1858.00,96.81
1857.00,96.82
1856.00,96.81
1855.00,96.80
1854.00,96.80
1853.00,96.82
1852.00,96.84
1851.00,96.85
1850.00,96.85
1849.00,96.85
1848.00,96.86
1847.00,96.86
1846.00,96.87
1845.00,96.87
1844.00,96.86
1843.00,96.84
1842.00,96.84
1841.00,96.85
1840.00,96.88
1839.00,96.90
1838.00,96.90
1837.00,96.89
1836.00,96.88
1835.00,96.87
1834.00,96.88
1833.00,96.88
1832.00,96.87
1831.00,96.85
1830.00,96.83
1829.00,96.83
1828.00,96.82
1827.00,96.81
1826.00,96.82
1825.00,96.83
1824.00,96.83
1823.00,96.82
1822.00,96.79
1821.00,96.78
1820.00,96.78
1819.00,96.77
1818.00,96.78
1817.00,96.78
1816.00,96.77
1815.00,96.75
1814.00,96.71
1813.00,96.68
1812.00,96.66
1811.00,96.63
1810.00,96.61
1809.00,96.59
1808.00,96.58
1807.00,96.56
1806.00,96.55
1805.00,96.55
1804.00,96.55
1803.00,96.52
1802.00,96.49
1801.00,96.44
1800.00,96.40
1799.00,96.35
1798.00,96.32
1797.00,96.28
1796.00,96.24
1795.00,96.20
1794.00,96.15
1793.00,96.08
1792.00,96.00
1791.00,95.91
1790.00,95.85
1789.00,95.79
1788.00,95.73
1787.00,95.66
1786.00,95.57
1785.00,95.46
1784.00,95.33
1783.00,95.18
1782.00,95.02
1781.00,94.83
1780.00,94.63
1779.00,94.40
1778.00,94.15
1777.00,93.87
1776.00,93.58
1775.00,93.25
1774.00,92.86
1773.00,92.34
1772.00,91.71
1771.00,91.03
1770.00,90.32
1769.00,89.52
1768.00,88.57
1767.00,87.51
1766.00,86.42
1765.00,85.31
1764.00,84.11
1763.00,82.73
1762.00,81.21
1761.00,79.73
1760.00,78.40
1759.00,77.20
1758.00,76.01
1757.00,74.79
1756.00,73.64
1755.00,72.65
1754.00,71.81
1753.00,71.00
1752.00,70.16
1751.00,69.30
1750.00,68.48
1749.00,67.75
1748.00,67.08
1747.00,66.48
1746.00,65.91
1745.00,65.36
1744.00,64.84
1743.00,64.36
1742.00,63.93
1741.00,63.56
1740.00,63.26
1739.00,63.04
1738.00,62.90
1737.00,62.83
1736.00,62.80
1735.00,62.85
1734.00,63.02
1733.00,63.30
1732.00,63.65
1731.00,64.04
1730.00,64.49
1729.00,65.03
1728.00,65.65
1727.00,66.30
1726.00,66.98
1725.00,67.74
1724.00,68.58
1723.00,69.46
1722.00,70.32
1721.00,71.14
1720.00,71.99
1719.00,72.95
1718.00,74.06
1717.00,75.23
1716.00,76.33
1715.00,77.33
1714.00,78.26
1713.00,79.12
1712.00,79.94
1711.00,80.73
1710.00,81.49
1709.00,82.22
1708.00,82.93
1707.00,83.63
1706.00,84.33
1705.00,84.96
1704.00,85.48
1703.00,85.89
1702.00,86.30
1701.00,86.80
1700.00,87.36
1699.00,87.83
1698.00,88.17
1697.00,88.48
1696.00,88.84
1695.00,89.21
1694.00,89.50
1693.00,89.71
1692.00,89.90
1691.00,90.11
1690.00,90.32
1689.00,90.50
1688.00,90.64
1687.00,90.76
1686.00,90.88
1685.00,91.01
1684.00,91.16
1683.00,91.31
1682.00,91.42
1681.00,91.50
1680.00,91.57
1679.00,91.64
1678.00,91.69
1677.00,91.73
1676.00,91.77
1675.00,91.81
1674.00,91.84
1673.00,91.85
1672.00,91.87
1671.00,91.90
1670.00,91.93
1669.00,91.95
1668.00,91.97
1667.00,91.99
1666.00,92.01
1665.00,92.03
1664.00,92.04
1663.00,92.04
1662.00,92.05
1661.00,92.06
1660.00,92.06
1659.00,92.06
1658.00,92.08
1657.00,92.10
1656.00,92.12
1655.00,92.12
1654.00,92.11
1653.00,92.09
1652.00,92.07
1651.00,92.06
1650.00,92.07
1649.00,92.08
1648.00,92.10
1647.00,92.11
1646.00,92.12
1645.00,92.13
1644.00,92.15
1643.00,92.18
1642.00,92.21
1641.00,92.24
1640.00,92.26
1639.00,92.28
1638.00,92.31
1637.00,92.33
1636.00,92.35
1635.00,92.38
1634.00,92.40
1633.00,92.43
1632.00,92.46
1631.00,92.50
1630.00,92.54
1629.00,92.59
1628.00,92.65
1627.00,92.71
1626.00,92.77
1625.00,92.83
1624.00,92.89
1623.00,92.95
1622.00,93.02
1621.00,93.08
1620.00,93.15
1619.00,93.24
1618.00,93.33
1617.00,93.42
1616.00,93.49
1615.00,93.55
1614.00,93.60
1613.00,93.66
1612.00,93.73
1611.00,93.81
1610.00,93.88
1609.00,93.95
1608.00,94.01
1607.00,94.08
1606.00,94.14
1605.00,94.21
1604.00,94.28
1603.00,94.34
1602.00,94.41
1601.00,94.47
1600.00,94.52
1599.00,94.57
1598.00,94.62
1597.00,94.67
1596.00,94.71
1595.00,94.74
1594.00,94.78
1593.00,94.82
1592.00,94.86
1591.00,94.90
1590.00,94.94
1589.00,94.99
1588.00,95.04
1587.00,95.08
1586.00,95.11
1585.00,95.13
1584.00,95.15
1583.00,95.17
1582.00,95.19
1581.00,95.22
1580.00,95.24
1579.00,95.27
1578.00,95.29
1577.00,95.31
1576.00,95.33
1575.00,95.35
1574.00,95.37
1573.00,95.39
1572.00,95.41
1571.00,95.43
1570.00,95.46
1569.00,95.47
1568.00,95.48
1567.00,95.49
1566.00,95.50
1565.00,95.52
1564.00,95.53
1563.00,95.52
1562.00,95.51
1561.00,95.49
1560.00,95.47
1559.00,95.47
1558.00,95.50
1557.00,95.52
1556.00,95.53
1555.00,95.53
1554.00,95.54
1553.00,95.55
1552.00,95.56
1551.00,95.56
1550.00,95.57
1549.00,95.57
1548.00,95.57
1547.00,95.59
1546.00,95.59
1545.00,95.59
1544.00,95.59
1543.00,95.60
1542.00,95.62
1541.00,95.63
1540.00,95.64
1539.00,95.64
1538.00,95.63
1537.00,95.63
1536.00,95.63
1535.00,95.63
1534.00,95.64
1533.00,95.64
1532.00,95.65
1531.00,95.67
1530.00,95.69
1529.00,95.71
1528.00,95.72
1527.00,95.73
1526.00,95.74
1525.00,95.74
1524.00,95.75
1523.00,95.76
1522.00,95.78
1521.00,95.79
1520.00,95.79
1519.00,95.78
1518.00,95.77
1517.00,95.77
1516.00,95.79
1515.00,95.82
1514.00,95.84
1513.00,95.86
1512.00,95.86
1511.00,95.86
1510.00,95.86
1509.00,95.86
1508.00,95.86
1507.00,95.85
1506.00,95.86
1505.00,95.86
1504.00,95.87
1503.00,95.87
1502.00,95.88
1501.00,95.87
1500.00,95.86
1499.00,95.87
1498.00,95.88
1497.00,95.90
1496.00,95.90
1495.00,95.90
1494.00,95.89
1493.00,95.87
1492.00,95.84
1491.00,95.82
1490.00,95.79
1489.00,95.76
1488.00,95.75
1487.00,95.74
1486.00,95.73
1485.00,95.72
1484.00,95.71
1483.00,95.70
1482.00,95.67
1481.00,95.63
1480.00,95.57
1479.00,95.51
1478.00,95.45
1477.00,95.37
1476.00,95.27
1475.00,95.17
1474.00,95.06
1473.00,94.93
1472.00,94.78
1471.00,94.64
1470.00,94.51
1469.00,94.38
1468.00,94.26
1467.00,94.14
1466.00,94.00
1465.00,93.83
1464.00,93.65
1463.00,93.48
1462.00,93.34
1461.00,93.21
1460.00,93.09
1459.00,92.96
1458.00,92.82
1457.00,92.67
1456.00,92.54
1455.00,92.44
1454.00,92.36
1453.00,92.28
1452.00,92.19
1451.00,92.11
1450.00,92.00
1449.00,91.86
1448.00,91.71
1447.00,91.57
1446.00,91.43
1445.00,91.28
1444.00,91.12
1443.00,90.97
1442.00,90.81
1441.00,90.65
1440.00,90.48
1439.00,90.32
1438.00,90.16
1437.00,89.98
1436.00,89.83
1435.00,89.73
1434.00,89.67
1433.00,89.63
1432.00,89.61
1431.00,89.62
1430.00,89.65
1429.00,89.71
1428.00,89.80
1427.00,89.90
1426.00,90.02
1425.00,90.16
1424.00,90.30
1423.00,90.44
1422.00,90.56
1421.00,90.68
1420.00,90.82
1419.00,90.96
1418.00,91.10
1417.00,91.22
1416.00,91.33
1415.00,91.44
1414.00,91.55
1413.00,91.65
1412.00,91.75
1411.00,91.84
1410.00,91.91
1409.00,91.97
1408.00,92.02
1407.00,92.07
1406.00,92.12
1405.00,92.17
1404.00,92.20
1403.00,92.21
1402.00,92.20
1401.00,92.17
1400.00,92.11
1399.00,92.01
1398.00,91.87
1397.00,91.69
1396.00,91.46
1395.00,91.15
1394.00,90.78
1393.00,90.38
1392.00,89.95
1391.00,89.49
1390.00,88.97
1389.00,88.38
1388.00,87.69
1387.00,86.95
1386.00,86.20
1385.00,85.48
1384.00,84.76
1383.00,84.03
1382.00,83.30
1381.00,82.59
1380.00,81.89
1379.00,81.21
1378.00,80.57
1377.00,79.95
1376.00,79.33
1375.00,78.70
1374.00,78.06
1373.00,77.47
1372.00,76.94
1371.00,76.47
1370.00,76.06
1369.00,75.74
1368.00,75.54
1367.00,75.51
1366.00,75.66
1365.00,76.01
1364.00,76.58
1363.00,77.42
1362.00,78.49
1361.00,79.70
1360.00,80.98
1359.00,82.28
1358.00,83.58
1357.00,84.81
1356.00,85.96
1355.00,87.01
1354.00,87.91
1353.00,88.68
1352.00,89.32
1351.00,89.85
1350.00,90.29
1349.00,90.64
1348.00,90.92
1347.00,91.17
1346.00,91.37
1345.00,91.53
1344.00,91.65
1343.00,91.75
1342.00,91.82
1341.00,91.87
1340.00,91.91
1339.00,91.95
1338.00,91.99
1337.00,92.02
1336.00,92.05
1335.00,92.06
1334.00,92.05
1333.00,92.03
1332.00,92.01
1331.00,91.98
1330.00,91.94
1329.00,91.90
1328.00,91.86
1327.00,91.82
1326.00,91.79
1325.00,91.75
1324.00,91.72
1323.00,91.68
1322.00,91.67
1321.00,91.67
1320.00,91.68
1319.00,91.71
1318.00,91.73
1317.00,91.76
1316.00,91.79
1315.00,91.84
1314.00,91.91
1313.00,91.98
1312.00,92.06
1311.00,92.13
1310.00,92.20
1309.00,92.27
1308.00,92.32
1307.00,92.37
1306.00,92.40
1305.00,92.41
1304.00,92.40
1303.00,92.38
1302.00,92.34
1301.00,92.29
1300.00,92.23
1299.00,92.16
1298.00,92.07
1297.00,91.97
1296.00,91.85
1295.00,91.71
1294.00,91.56
1293.00,91.39
1292.00,91.23
1291.00,91.06
1290.00,90.89
1289.00,90.70
1288.00,90.50
1287.00,90.29
1286.00,90.07
1285.00,89.85
1284.00,89.60
1283.00,89.33
1282.00,89.02
1281.00,88.69
1280.00,88.33
1279.00,87.95
1278.00,87.56
1277.00,87.14
1276.00,86.70
1275.00,86.24
1274.00,85.75
1273.00,85.25
1272.00,84.73
1271.00,84.20
1270.00,83.66
1269.00,83.11
1268.00,82.53
1267.00,81.92
1266.00,81.30
1265.00,80.65
1264.00,79.99
1263.00,79.32
1262.00,78.63
1261.00,77.92
1260.00,77.18
1259.00,76.43
1258.00,75.68
1257.00,74.90
1256.00,74.10
1255.00,73.28
1254.00,72.46
1253.00,71.62
1252.00,70.79
1251.00,69.96
1250.00,69.13
1249.00,68.28
1248.00,67.41
1247.00,66.54
1246.00,65.68
1245.00,64.80
1244.00,63.91
1243.00,63.03
1242.00,62.16
1241.00,61.29
1240.00,60.43
1239.00,59.59
1238.00,58.78
1237.00,57.99
1236.00,57.21
1235.00,56.47
1234.00,55.79
1233.00,55.14
1232.00,54.53
1231.00,53.97
1230.00,53.48
1229.00,53.03
1228.00,52.61
1227.00,52.23
1226.00,51.91
1225.00,51.61
1224.00,51.34
1223.00,51.11
1222.00,50.92
1221.00,50.73
1220.00,50.54
1219.00,50.40
1218.00,50.32
1217.00,50.28
1216.00,50.29
1215.00,50.37
1214.00,50.57
1213.00,50.88
1212.00,51.32
1211.00,51.92
1210.00,52.68
1209.00,53.58
1208.00,54.62
1207.00,55.82
1206.00,57.17
1205.00,58.63
1204.00,60.17
1203.00,61.79
1202.00,63.47
1201.00,65.14
1200.00,66.78
1199.00,68.39
1198.00,69.94
1197.00,71.40
1196.00,72.77
1195.00,74.06
1194.00,75.25
1193.00,76.32
1192.00,77.28
1191.00,78.14
1190.00,78.91
1189.00,79.56
1188.00,80.08
1187.00,80.50
1186.00,80.81
1185.00,81.04
1184.00,81.18
1183.00,81.26
1182.00,81.28
1181.00,81.24
1180.00,81.15
1179.00,81.03
1178.00,80.89
1177.00,80.72
1176.00,80.51
1175.00,80.30
1174.00,80.08
1173.00,79.86
1172.00,79.63
1171.00,79.41
1170.00,79.20
1169.00,78.99
1168.00,78.78
1167.00,78.60
1166.00,78.44
1165.00,78.31
1164.00,78.20
1163.00,78.13
1162.00,78.09
1161.00,78.08
1160.00,78.11
1159.00,78.19
1158.00,78.31
1157.00,78.47
1156.00,78.66
1155.00,78.90
1154.00,79.18
1153.00,79.46
1152.00,79.76
1151.00,80.05
1150.00,80.34
1149.00,80.63
1148.00,80.90
1147.00,81.16
1146.00,81.40
1145.00,81.58
1144.00,81.70
1143.00,81.76
1142.00,81.78
1141.00,81.75
1140.00,81.69
1139.00,81.61
1138.00,81.50
1137.00,81.34
1136.00,81.12
1135.00,80.88
1134.00,80.63
1133.00,80.36
1132.00,80.07
1131.00,79.80
1130.00,79.54
1129.00,79.27
1128.00,79.02
1127.00,78.81
1126.00,78.64
1125.00,78.50
1124.00,78.35
1123.00,78.23
1122.00,78.16
1121.00,78.12
1120.00,78.10
1119.00,78.11
1118.00,78.15
1117.00,78.20
1116.00,78.26
1115.00,78.32
1114.00,78.37
1113.00,78.41
1112.00,78.45
1111.00,78.49
1110.00,78.53
1109.00,78.56
1108.00,78.57
1107.00,78.56
1106.00,78.53
1105.00,78.48
1104.00,78.38
1103.00,78.23
1102.00,78.06
1101.00,77.84
1100.00,77.58
1099.00,77.29
1098.00,76.97
1097.00,76.62
1096.00,76.23
1095.00,75.80
1094.00,75.33
1093.00,74.82
1092.00,74.30
1091.00,73.79
1090.00,73.29
1089.00,72.77
1088.00,72.23
1087.00,71.68
1086.00,71.12
1085.00,70.57
1084.00,70.00
1083.00,69.45
1082.00,68.90
1081.00,68.35
1080.00,67.80
1079.00,67.27
1078.00,66.74
1077.00,66.18
1076.00,65.61
1075.00,65.03
1074.00,64.46
1073.00,63.89
1072.00,63.34
1071.00,62.83
1070.00,62.35
1069.00,61.87
1068.00,61.39
1067.00,60.93
1066.00,60.50
1065.00,60.08
1064.00,59.66
1063.00,59.22
1062.00,58.77
1061.00,58.26
1060.00,57.70
1059.00,57.14
1058.00,56.57
1057.00,55.98
1056.00,55.36
1055.00,54.73
1054.00,54.10
1053.00,53.46
1052.00,52.82
1051.00,52.24
1050.00,51.70
1049.00,51.18
1048.00,50.66
1047.00,50.17
1046.00,49.72
1045.00,49.29
1044.00,48.85
1043.00,48.43
1042.00,48.04
1041.00,47.64
1040.00,47.24
1039.00,46.83
1038.00,46.43
1037.00,46.04
1036.00,45.66
1035.00,45.32
1034.00,45.05
1033.00,44.83
1032.00,44.68
1031.00,44.62
1030.00,44.65
1029.00,44.75
1028.00,44.93
1027.00,45.20
1026.00,45.58
1025.00,46.03
1024.00,46.53
1023.00,47.09
1022.00,47.71
1021.00,48.35
1020.00,49.02
1019.00,49.73
1018.00,50.48
1017.00,51.24
1016.00,52.02
1015.00,52.83
1014.00,53.64
1013.00,54.42
1012.00,55.18
1011.00,55.94
1010.00,56.70
1009.00,57.45
1008.00,58.18
1007.00,58.90
1006.00,59.62
1005.00,60.31
1004.00,60.97
1003.00,61.61
1002.00,62.23
1001.00,62.82
1000.00,63.36
999.00,63.87
998.00,64.37
997.00,64.84
996.00,65.27
995.00,65.66
994.00,66.02
993.00,66.35
992.00,66.65
991.00,66.95
990.00,67.26
989.00,67.55
988.00,67.83
987.00,68.10
986.00,68.38
985.00,68.66
984.00,68.97
983.00,69.31
982.00,69.67
981.00,70.05
980.00,70.42
979.00,70.81
978.00,71.22
977.00,71.65
976.00,72.10
975.00,72.58
974.00,73.08
973.00,73.59
972.00,74.08
971.00,74.58
970.00,75.07
969.00,75.55
968.00,76.01
967.00,76.46
966.00,76.87
965.00,77.22
964.00,77.53
963.00,77.81
962.00,78.06
961.00,78.28
960.00,78.48
959.00,78.66
958.00,78.82
957.00,78.96
956.00,79.09
955.00,79.23
954.00,79.38
953.00,79.54
952.00,79.70
951.00,79.86
950.00,80.04
949.00,80.21
948.00,80.38
947.00,80.57
946.00,80.76
945.00,80.96
944.00,81.14
943.00,81.31
942.00,81.47
941.00,81.62
940.00,81.76
939.00,81.88
938.00,81.99
937.00,82.06
936.00,82.11
935.00,82.15
934.00,82.17
933.00,82.17
932.00,82.16
931.00,82.11
930.00,82.05
929.00,81.96
928.00,81.87
927.00,81.76
926.00,81.64
925.00,81.50
924.00,81.33
923.00,81.16
922.00,80.98
921.00,80.80
920.00,80.63
919.00,80.48
918.00,80.34
917.00,80.19
916.00,80.02
915.00,79.83
914.00,79.62
913.00,79.38
912.00,79.11
911.00,78.82
910.00,78.52
909.00,78.19
908.00,77.85
907.00,77.52
906.00,77.21
905.00,76.93
904.00,76.68
903.00,76.50
902.00,76.39
901.00,76.34
900.00,76.36
899.00,76.45
898.00,76.62
897.00,76.85
896.00,77.14
895.00,77.48
894.00,77.86
893.00,78.26
892.00,78.67
891.00,79.08
890.00,79.48
889.00,79.82
888.00,80.12
887.00,80.38
886.00,80.62
885.00,80.83
884.00,81.02
883.00,81.19
882.00,81.37
881.00,81.54
880.00,81.70
879.00,81.84
878.00,81.99
877.00,82.15
876.00,82.35
875.00,82.60
874.00,82.90
873.00,83.22
872.00,83.55
871.00,83.90
870.00,84.27
869.00,84.66
868.00,85.06
867.00,85.44
866.00,85.79
865.00,86.10
864.00,86.38
863.00,86.63
862.00,86.87
861.00,87.06
860.00,87.21
859.00,87.33
858.00,87.46
857.00,87.59
856.00,87.71
855.00,87.82
854.00,87.90
853.00,87.96
852.00,87.98
851.00,87.96
850.00,87.92
849.00,87.84
848.00,87.76
847.00,87.67
846.00,87.58
845.00,87.50
844.00,87.42
843.00,87.36
842.00,87.31
841.00,87.28
840.00,87.26
839.00,87.25
838.00,87.26
837.00,87.31
836.00,87.41
835.00,87.54
834.00,87.69
833.00,87.85
832.00,88.01
831.00,88.20
830.00,88.41
829.00,88.63
828.00,88.85
827.00,89.03
826.00,89.18
825.00,89.33
824.00,89.49
823.00,89.65
822.00,89.79
821.00,89.90
820.00,89.98
819.00,90.06
818.00,90.13
817.00,90.20
816.00,90.27
815.00,90.33
814.00,90.37
813.00,90.40
812.00,90.45
811.00,90.53
810.00,90.64
809.00,90.73
808.00,90.81
807.00,90.87
806.00,90.93
805.00,90.99
804.00,91.05
803.00,91.09
802.00,91.11
801.00,91.14
800.00,91.20
799.00,91.27
798.00,91.31
797.00,91.32
796.00,91.33
795.00,91.35
794.00,91.38
793.00,91.41
792.00,91.42
791.00,91.43
790.00,91.45
789.00,91.49
788.00,91.54
787.00,91.58
786.00,91.61
785.00,91.62
784.00,91.63
783.00,91.64
782.00,91.64
781.00,91.64
780.00,91.65
779.00,91.68
778.00,91.72
777.00,91.74
776.00,91.72
775.00,91.69
774.00,91.68
773.00,91.69
772.00,91.72
771.00,91.76
770.00,91.79
769.00,91.78
768.00,91.75
767.00,91.72
766.00,91.72
765.00,91.74
764.00,91.77
763.00,91.79
762.00,91.79
761.00,91.78
760.00,91.76
759.00,91.75
758.00,91.74
757.00,91.72
756.00,91.71
755.00,91.72
754.00,91.75
753.00,91.77
752.00,91.76
751.00,91.75
750.00,91.74
749.00,91.75
748.00,91.76
747.00,91.78
746.00,91.80
745.00,91.83
744.00,91.85
743.00,91.86
742.00,91.84
741.00,91.80
740.00,91.74
739.00,91.68
738.00,91.62
737.00,91.56
736.00,91.52
735.00,91.48
734.00,91.42
733.00,91.31
732.00,91.15
731.00,90.96
730.00,90.79
729.00,90.66
728.00,90.57
727.00,90.49
726.00,90.42
725.00,90.32
724.00,90.21
723.00,90.09
722.00,89.98
721.00,89.86
720.00,89.76
719.00,89.68
718.00,89.65
717.00,89.64
716.00,89.62
715.00,89.58
714.00,89.52
713.00,89.46
712.00,89.41
711.00,89.38
710.00,89.36
709.00,89.33
708.00,89.30
707.00,89.27
706.00,89.24
705.00,89.17
704.00,89.08
703.00,88.98
702.00,88.91
701.00,88.83
700.00,88.71
699.00,88.57
698.00,88.44
697.00,88.32
696.00,88.21
695.00,88.11
694.00,88.00
693.00,87.89
692.00,87.79
691.00,87.71
690.00,87.65
689.00,87.59
688.00,87.54
687.00,87.53
686.00,87.55
685.00,87.60
684.00,87.64
683.00,87.68
682.00,87.69
681.00,87.68
680.00,87.65
679.00,87.63
678.00,87.63
677.00,87.64
676.00,87.63
675.00,87.62
674.00,87.61
673.00,87.62
672.00,87.67
671.00,87.77
670.00,87.89
669.00,87.96
668.00,87.86
667.00,87.64
666.00,87.48
665.00,87.41
664.00,87.35
663.00,87.29
662.00,87.29
661.00,87.31
660.00,87.27
659.00,87.14
658.00,86.96
657.00,86.77
656.00,86.59
655.00,86.45
654.00,86.34
653.00,86.21
652.00,86.01
651.00,85.76
650.00,85.47
649.00,85.17
648.00,84.88
647.00,84.65
646.00,84.54
645.00,84.49
644.00,84.43
643.00,84.35
642.00,84.29
641.00,84.22
640.00,84.14
639.00,84.10
638.00,84.09
637.00,84.08
636.00,84.01
635.00,83.89
634.00,83.71
633.00,83.41
632.00,83.03
631.00,82.74
630.00,82.68
629.00,82.76
628.00,82.81
627.00,82.72
626.00,82.45
625.00,82.04
624.00,81.65
623.00,81.54
622.00,81.75
621.00,82.03
620.00,82.09
619.00,81.89
618.00,81.49
617.00,80.91
616.00,80.20
615.00,79.53
614.00,79.02
613.00,78.60
612.00,78.22
611.00,77.92
610.00,77.59
609.00,76.96
608.00,75.98
607.00,74.92
606.00,73.99
605.00,73.19
604.00,72.72
603.00,73.14
602.00,74.55
601.00,76.11
600.00,76.69
599.00,76.04
598.00,74.93
597.00,74.27
596.00,74.27
595.00,74.67
594.00,75.18
593.00,75.64
592.00,76.05
591.00,76.44
590.00,76.78
589.00,77.00
588.00,77.17
587.00,77.47
586.00,78.01
585.00,78.64
584.00,79.11
583.00,79.37
582.00,79.52
581.00,79.69
580.00,79.94
579.00,80.32
578.00,80.70
577.00,80.88
576.00,80.79
575.00,80.70
574.00,80.82
573.00,80.97
572.00,80.81
571.00,80.38
570.00,80.12
569.00,80.32
568.00,80.80
567.00,81.08
566.00,80.80
565.00,80.00
564.00,79.10
563.00,78.51
562.00,78.30
561.00,78.17
560.00,77.99
559.00,77.91
558.00,78.01
557.00,78.04
556.00,77.78
555.00,77.43
554.00,77.43
553.00,77.97
552.00,78.97
551.00,80.17
550.00,81.23
