Created as New Dataset,Forensic,9
cm-1,%T
4000.00,99.33
3999.00,99.33
3998.00,99.32
3997.00,99.30
3996.00,99.29
3995.00,99.29
3994.00,99.30
3993.00,99.31
3992.00,99.32
3991.00,99.32
3990.00,99.33
3989.00,99.33
3988.00,99.33
3987.00,99.32
3986.00,99.31
3985.00,99.30
3984.00,99.29
3983.00,99.28
3982.00,99.28
3981.00,99.28
3980.00,99.30
3979.00,99.31
3978.00,99.33
3977.00,99.35
3976.00,99.35
3975.00,99.33
3974.00,99.32
3973.00,99.30
3972.00,99.29
3971.00,99.28
3970.00,99.27
3969.00,99.27
3968.00,99.28
3967.00,99.30
3966.00,99.33
3965.00,99.35
3964.00,99.35
3963.00,99.33
3962.00,99.30
3961.00,99.28
3960.00,99.29
3959.00,99.31
3958.00,99.33
3957.00,99.34
3956.00,99.34
3955.00,99.33
3954.00,99.33
3953.00,99.33
3952.00,99.33
3951.00,99.33
3950.00,99.33
3949.00,99.32
3948.00,99.31
3947.00,99.30
3946.00,99.30
3945.00,99.31
3944.00,99.32
3943.00,99.33
3942.00,99.33
3941.00,99.33
3940.00,99.33
3939.00,99.33
3938.00,99.32
3937.00,99.31
3936.00,99.29
3935.00,99.28
3934.00,99.28
3933.00,99.28
3932.00,99.27
3931.00,99.25
3930.00,99.25
3929.00,99.25
3928.00,99.26
3927.00,99.27
3926.00,99.28
3925.00,99.28
3924.00,99.27
3923.00,99.26
3922.00,99.25
3921.00,99.24
3920.00,99.23
3919.00,99.22
3918.00,99.21
3917.00,99.21
3916.00,99.22
3915.00,99.25
3914.00,99.27
3913.00,99.30
3912.00,99.32
3911.00,99.32
3910.00,99.31
3909.00,99.29
3908.00,99.28
3907.00,99.26
3906.00,99.25
3905.00,99.23
3904.00,99.21
3903.00,99.18
3902.00,99.16
3901.00,99.16
3900.00,99.18
3899.00,99.21
3898.00,99.23
3897.00,99.24
3896.00,99.25
3895.00,99.25
3894.00,99.25
3893.00,99.24
3892.00,99.24
3891.00,99.24
3890.00,99.23
3889.00,99.22
3888.00,99.20
3887.00,99.21
3886.00,99.23
3885.00,99.24
3884.00,99.23
3883.00,99.21
3882.00,99.21
3881.00,99.23
3880.00,99.25
3879.00,99.25
3878.00,99.24
3877.00,99.23
3876.00,99.22
3875.00,99.22
3874.00,99.21
3873.00,99.19
3872.00,99.17
3871.00,99.17
3870.00,99.18
3869.00,99.18
3868.00,99.17
3867.00,99.17
3866.00,99.19
3865.00,99.21
3864.00,99.21
3863.00,99.20
3862.00,99.20
3861.00,99.24
3860.00,99.29
3859.00,99.32
3858.00,99.33
3857.00,99.30
3856.00,99.27
3855.00,99.27
3854.00,99.27
3853.00,99.25
3852.00,99.21
3851.00,99.17
3850.00,99.14
3849.00,99.14
3848.00,99.15
3847.00,99.18
3846.00,99.22
3845.00,99.25
3844.00,99.27
3843.00,99.25
3842.00,99.21
3841.00,99.16
3840.00,99.13
3839.00,99.11
3838.00,99.10
3837.00,99.10
3836.00,99.08
3835.00,99.06
3834.00,99.06
3833.00,99.09
3832.00,99.14
3831.00,99.19
3830.00,99.21
3829.00,99.20
3828.00,99.18
3827.00,99.16
3826.00,99.13
3825.00,99.09
3824.00,99.05
3823.00,99.05
3822.00,99.08
3821.00,99.12
3820.00,99.13
3819.00,99.10
3818.00,99.07
3817.00,99.08
3816.00,99.09
3815.00,99.10
3814.00,99.10
3813.00,99.10
3812.00,99.10
3811.00,99.11
3810.00,99.11
3809.00,99.11
3808.00,99.11
3807.00,99.12
3806.00,99.11
3805.00,99.07
3804.00,99.04
3803.00,99.03
3802.00,99.05
3801.00,99.07
3800.00,99.06
3799.00,99.06
3798.00,99.06
3797.00,99.08
3796.00,99.11
3795.00,99.12
3794.00,99.13
3793.00,99.15
3792.00,99.17
3791.00,99.18
3790.00,99.19
3789.00,99.19
3788.00,99.18
3787.00,99.17
3786.00,99.16
3785.00,99.16
3784.00,99.16
3783.00,99.15
3782.00,99.13
3781.00,99.12
3780.00,99.11
3779.00,99.11
3778.00,99.09
3777.00,99.08
3776.00,99.08
3775.00,99.08
3774.00,99.08
3773.00,99.07
3772.00,99.05
3771.00,99.03
3770.00,99.02
3769.00,99.01
3768.00,99.01
3767.00,99.03
3766.00,99.06
3765.00,99.09
3764.00,99.09
3763.00,99.06
3762.00,99.03
3761.00,99.02
3760.00,99.01
3759.00,99.00
3758.00,98.99
3757.00,99.00
3756.00,99.01
3755.00,99.03
3754.00,99.05
3753.00,99.05
3752.00,99.02
3751.00,98.98
3750.00,98.94
3749.00,98.93
3748.00,98.92
3747.00,98.90
3746.00,98.91
3745.00,98.94
3744.00,98.95
3743.00,98.94
3742.00,98.92
3741.00,98.93
3740.00,98.95
3739.00,98.96
3738.00,98.96
3737.00,98.95
3736.00,98.95
3735.00,98.94
3734.00,98.94
3733.00,98.95
3732.00,98.96
3731.00,98.97
3730.00,98.96
3729.00,98.95
3728.00,98.95
3727.00,98.96
3726.00,98.98
3725.00,98.99
3724.00,98.99
3723.00,98.98
3722.00,98.96
3721.00,98.93
3720.00,98.91
3719.00,98.90
3718.00,98.90
3717.00,98.89
3716.00,98.87
3715.00,98.84
3714.00,98.82
3713.00,98.82
3712.00,98.82
3711.00,98.82
3710.00,98.83
3709.00,98.86
3708.00,98.90
3707.00,98.94
3706.00,98.94
3705.00,98.92
3704.00,98.90
3703.00,98.89
3702.00,98.89
3701.00,98.90
3700.00,98.91
3699.00,98.90
3698.00,98.91
3697.00,98.91
3696.00,98.92
3695.00,98.92
3694.00,98.91
3693.00,98.89
3692.00,98.87
3691.00,98.84
3690.00,98.83
3689.00,98.83
3688.00,98.84
3687.00,98.84
3686.00,98.85
3685.00,98.86
3684.00,98.87
3683.00,98.88
3682.00,98.88
3681.00,98.88
3680.00,98.86
3679.00,98.84
3678.00,98.80
3677.00,98.77
3676.00,98.75
3675.00,98.72
3674.00,98.68
3673.00,98.64
3672.00,98.64
3671.00,98.68
3670.00,98.73
3669.00,98.75
3668.00,98.75
3667.00,98.74
3666.00,98.75
3665.00,98.75
3664.00,98.75
3663.00,98.73
3662.00,98.71
3661.00,98.69
3660.00,98.68
3659.00,98.66
3658.00,98.64
3657.00,98.62
3656.00,98.61
3655.00,98.59
3654.00,98.56
3653.00,98.53
3652.00,98.52
3651.00,98.52
3650.00,98.50
3649.00,98.48
3648.00,98.46
3647.00,98.45
3646.00,98.46
3645.00,98.47
3644.00,98.48
3643.00,98.49
3642.00,98.49
3641.00,98.49
3640.00,98.49
3639.00,98.49
3638.00,98.50
3637.00,98.51
3636.00,98.50
3635.00,98.49
3634.00,98.47
3633.00,98.46
3632.00,98.45
3631.00,98.46
3630.00,98.48
3629.00,98.47
3628.00,98.44
3627.00,98.41
3626.00,98.41
3625.00,98.42
3624.00,98.44
3623.00,98.43
3622.00,98.39
3621.00,98.36
3620.00,98.34
3619.00,98.35
3618.00,98.36
3617.00,98.38
3616.00,98.38
3615.00,98.39
3614.00,98.41
3613.00,98.43
3612.00,98.46
3611.00,98.48
3610.00,98.48
3609.00,98.47
3608.00,98.45
3607.00,98.43
3606.00,98.41
3605.00,98.41
3604.00,98.44
3603.00,98.48
3602.00,98.50
3601.00,98.51
3600.00,98.49
3599.00,98.46
3598.00,98.45
3597.00,98.44
3596.00,98.43
3595.00,98.42
3594.00,98.40
3593.00,98.39
3592.00,98.39
3591.00,98.39
3590.00,98.39
3589.00,98.41
3588.00,98.45
3587.00,98.49
3586.00,98.50
3585.00,98.50
3584.00,98.50
3583.00,98.50
3582.00,98.51
3581.00,98.50
3580.00,98.49
3579.00,98.49
3578.00,98.50
3577.00,98.52
3576.00,98.55
3575.00,98.56
3574.00,98.55
3573.00,98.53
3572.00,98.51
3571.00,98.48
3570.00,98.46
3569.00,98.44
3568.00,98.44
3567.00,98.45
3566.00,98.46
3565.00,98.48
3564.00,98.48
3563.00,98.48
3562.00,98.48
3561.00,98.49
3560.00,98.50
3559.00,98.50
3558.00,98.51
3557.00,98.49
3556.00,98.47
3555.00,98.45
3554.00,98.44
3553.00,98.44
3552.00,98.44
3551.00,98.42
3550.00,98.41
3549.00,98.40
3548.00,98.41
3547.00,98.42
3546.00,98.42
3545.00,98.42
3544.00,98.43
3543.00,98.44
3542.00,98.46
3541.00,98.47
3540.00,98.48
3539.00,98.49
3538.00,98.50
3537.00,98.49
3536.00,98.47
3535.00,98.44
3534.00,98.40
3533.00,98.38
3532.00,98.38
3531.00,98.40
3530.00,98.41
3529.00,98.43
3528.00,98.44
3527.00,98.45
3526.00,98.46
3525.00,98.47
3524.00,98.47
3523.00,98.49
3522.00,98.51
3521.00,98.53
3520.00,98.55
3519.00,98.56
3518.00,98.54
3517.00,98.52
3516.00,98.49
3515.00,98.46
3514.00,98.45
3513.00,98.44
3512.00,98.44
3511.00,98.46
3510.00,98.49
3509.00,98.51
3508.00,98.53
3507.00,98.54
3506.00,98.55
3505.00,98.56
3504.00,98.57
3503.00,98.56
3502.00,98.54
3501.00,98.52
3500.00,98.49
3499.00,98.47
3498.00,98.45
3497.00,98.44
3496.00,98.43
3495.00,98.44
3494.00,98.46
3493.00,98.49
3492.00,98.51
3491.00,98.53
3490.00,98.53
3489.00,98.53
3488.00,98.53
3487.00,98.55
3486.00,98.57
3485.00,98.58
3484.00,98.59
3483.00,98.59
3482.00,98.58
3481.00,98.57
3480.00,98.55
3479.00,98.54
3478.00,98.52
3477.00,98.50
3476.00,98.50
3475.00,98.51
3474.00,98.53
3473.00,98.55
3472.00,98.56
3471.00,98.57
3470.00,98.58
3469.00,98.59
3468.00,98.59
3467.00,98.57
3466.00,98.56
3465.00,98.55
3464.00,98.54
3463.00,98.54
3462.00,98.54
3461.00,98.53
3460.00,98.53
3459.00,98.52
3458.00,98.52
3457.00,98.52
3456.00,98.52
3455.00,98.52
3454.00,98.51
3453.00,98.51
3452.00,98.51
3451.00,98.51
3450.00,98.50
3449.00,98.49
3448.00,98.49
3447.00,98.50
3446.00,98.51
3445.00,98.50
3444.00,98.49
3443.00,98.48
3442.00,98.47
3441.00,98.46
3440.00,98.45
3439.00,98.45
3438.00,98.46
3437.00,98.48
3436.00,98.50
3435.00,98.52
3434.00,98.52
3433.00,98.52
3432.00,98.51
3431.00,98.50
3430.00,98.50
3429.00,98.49
3428.00,98.51
3427.00,98.52
3426.00,98.54
3425.00,98.55
3424.00,98.55
3423.00,98.54
3422.00,98.53
3421.00,98.51
3420.00,98.51
3419.00,98.52
3418.00,98.53
3417.00,98.54
3416.00,98.54
3415.00,98.54
3414.00,98.53
3413.00,98.52
3412.00,98.52
3411.00,98.52
3410.00,98.52
3409.00,98.51
3408.00,98.50
3407.00,98.49
3406.00,98.49
3405.00,98.50
3404.00,98.52
3403.00,98.55
3402.00,98.57
3401.00,98.58
3400.00,98.57
3399.00,98.55
3398.00,98.52
3397.00,98.49
3396.00,98.47
3395.00,98.46
3394.00,98.46
3393.00,98.46
3392.00,98.48
3391.00,98.50
3390.00,98.52
3389.00,98.53
3388.00,98.53
3387.00,98.52
3386.00,98.50
3385.00,98.50
3384.00,98.50
3383.00,98.52
3382.00,98.53
3381.00,98.53
3380.00,98.53
3379.00,98.54
3378.00,98.55
3377.00,98.56
3376.00,98.57
3375.00,98.57
3374.00,98.57
3373.00,98.57
3372.00,98.57
3371.00,98.56
3370.00,98.55
3369.00,98.53
3368.00,98.52
3367.00,98.53
3366.00,98.53
3365.00,98.53
3364.00,98.53
3363.00,98.54
3362.00,98.54
3361.00,98.55
3360.00,98.55
3359.00,98.54
3358.00,98.53
3357.00,98.53
3356.00,98.52
3355.00,98.52
3354.00,98.53
3353.00,98.53
3352.00,98.54
3351.00,98.55
3350.00,98.53
3349.00,98.51
3348.00,98.49
3347.00,98.47
3346.00,98.47
3345.00,98.48
3344.00,98.49
3343.00,98.49
3342.00,98.48
3341.00,98.47
3340.00,98.47
3339.00,98.47
3338.00,98.48
3337.00,98.49
3336.00,98.49
3335.00,98.49
3334.00,98.50
3333.00,98.52
3332.00,98.53
3331.00,98.53
3330.00,98.54
3329.00,98.54
3328.00,98.54
3327.00,98.54
3326.00,98.55
3325.00,98.55
3324.00,98.55
3323.00,98.55
3322.00,98.55
3321.00,98.55
3320.00,98.55
3319.00,98.56
3318.00,98.57
3317.00,98.57
3316.00,98.57
3315.00,98.54
3314.00,98.51
3313.00,98.49
3312.00,98.48
3311.00,98.47
3310.00,98.47
3309.00,98.48
3308.00,98.48
3307.00,98.49
3306.00,98.48
3305.00,98.47
3304.00,98.45
3303.00,98.45
3302.00,98.46
3301.00,98.50
3300.00,98.53
3299.00,98.54
3298.00,98.55
3297.00,98.54
3296.00,98.53
3295.00,98.51
3294.00,98.49
3293.00,98.48
3292.00,98.48
3291.00,98.48
3290.00,98.48
3289.00,98.49
3288.00,98.51
3287.00,98.52
3286.00,98.52
3285.00,98.51
3284.00,98.50
3283.00,98.48
3282.00,98.47
3281.00,98.46
3280.00,98.45
3279.00,98.44
3278.00,98.44
3277.00,98.44
3276.00,98.45
3275.00,98.46
3274.00,98.48
3273.00,98.50
3272.00,98.51
3271.00,98.52
3270.00,98.51
3269.00,98.49
3268.00,98.47
3267.00,98.46
3266.00,98.45
3265.00,98.45
3264.00,98.46
3263.00,98.46
3262.00,98.46
3261.00,98.46
3260.00,98.44
3259.00,98.42
3258.00,98.40
3257.00,98.39
3256.00,98.39
3255.00,98.39
3254.00,98.40
3253.00,98.42
3252.00,98.43
3251.00,98.45
3250.00,98.46
3249.00,98.46
3248.00,98.45
3247.00,98.44
3246.00,98.44
3245.00,98.45
3244.00,98.47
3243.00,98.47
3242.00,98.47
3241.00,98.47
3240.00,98.48
3239.00,98.49
3238.00,98.49
3237.00,98.49
3236.00,98.48
3235.00,98.48
3234.00,98.47
3233.00,98.45
3232.00,98.41
3231.00,98.38
3230.00,98.36
3229.00,98.37
3228.00,98.40
3227.00,98.44
3226.00,98.47
3225.00,98.48
3224.00,98.48
3223.00,98.47
3222.00,98.47
3221.00,98.48
3220.00,98.50
3219.00,98.51
3218.00,98.50
3217.00,98.48
3216.00,98.46
3215.00,98.46
3214.00,98.45
3213.00,98.45
3212.00,98.44
3211.00,98.44
3210.00,98.43
3209.00,98.44
3208.00,98.46
3207.00,98.48
3206.00,98.49
3205.00,98.50
3204.00,98.49
3203.00,98.46
3202.00,98.42
3201.00,98.41
3200.00,98.42
3199.00,98.44
3198.00,98.47
3197.00,98.48
3196.00,98.48
3195.00,98.46
3194.00,98.45
3193.00,98.46
3192.00,98.49
3191.00,98.52
3190.00,98.56
3189.00,98.57
3188.00,98.55
3187.00,98.53
3186.00,98.50
3185.00,98.48
3184.00,98.48
3183.00,98.48
3182.00,98.48
3181.00,98.47
3180.00,98.48
3179.00,98.49
3178.00,98.51
3177.00,98.52
3176.00,98.53
3175.00,98.52
3174.00,98.50
3173.00,98.48
3172.00,98.47
3171.00,98.46
3170.00,98.45
3169.00,98.46
3168.00,98.47
3167.00,98.48
3166.00,98.49
3165.00,98.50
3164.00,98.50
3163.00,98.51
3162.00,98.52
3161.00,98.52
3160.00,98.52
3159.00,98.51
3158.00,98.51
3157.00,98.51
3156.00,98.52
3155.00,98.53
3154.00,98.54
3153.00,98.53
3152.00,98.52
3151.00,98.51
3150.00,98.52
3149.00,98.53
3148.00,98.55
3147.00,98.56
3146.00,98.57
3145.00,98.57
3144.00,98.57
3143.00,98.57
3142.00,98.57
3141.00,98.57
3140.00,98.57
3139.00,98.55
3138.00,98.53
3137.00,98.51
3136.00,98.51
3135.00,98.52
3134.00,98.53
3133.00,98.53
3132.00,98.53
3131.00,98.52
3130.00,98.53
3129.00,98.53
3128.00,98.53
3127.00,98.53
3126.00,98.52
3125.00,98.53
3124.00,98.53
3123.00,98.54
3122.00,98.54
3121.00,98.53
3120.00,98.51
3119.00,98.50
3118.00,98.50
3117.00,98.52
3116.00,98.54
3115.00,98.55
3114.00,98.55
3113.00,98.55
3112.00,98.55
3111.00,98.55
3110.00,98.55
3109.00,98.56
3108.00,98.57
3107.00,98.57
3106.00,98.57
3105.00,98.56
3104.00,98.54
3103.00,98.53
3102.00,98.53
3101.00,98.53
3100.00,98.52
3099.00,98.52
3098.00,98.52
3097.00,98.53
3096.00,98.54
3095.00,98.55
3094.00,98.55
3093.00,98.55
3092.00,98.54
3091.00,98.53
3090.00,98.52
3089.00,98.51
3088.00,98.51
3087.00,98.53
3086.00,98.53
3085.00,98.54
3084.00,98.53
3083.00,98.53
3082.00,98.54
3081.00,98.54
3080.00,98.55
3079.00,98.55
3078.00,98.55
3077.00,98.55
3076.00,98.54
3075.00,98.54
3074.00,98.54
3073.00,98.53
3072.00,98.53
3071.00,98.52
3070.00,98.51
3069.00,98.50
3068.00,98.50
3067.00,98.49
3066.00,98.49
3065.00,98.49
3064.00,98.50
3063.00,98.51
3062.00,98.53
3061.00,98.54
3060.00,98.55
3059.00,98.54
3058.00,98.53
3057.00,98.52
3056.00,98.50
3055.00,98.48
3054.00,98.47
3053.00,98.46
3052.00,98.47
3051.00,98.49
3050.00,98.51
3049.00,98.52
3048.00,98.53
3047.00,98.52
3046.00,98.50
3045.00,98.47
3044.00,98.45
3043.00,98.45
3042.00,98.46
3041.00,98.48
3040.00,98.50
3039.00,98.50
3038.00,98.50
3037.00,98.49
3036.00,98.49
3035.00,98.49
3034.00,98.49
3033.00,98.49
3032.00,98.49
3031.00,98.50
3030.00,98.51
3029.00,98.51
3028.00,98.50
3027.00,98.49
3026.00,98.48
3025.00,98.47
3024.00,98.45
3023.00,98.43
3022.00,98.41
3021.00,98.40
3020.00,98.40
3019.00,98.40
3018.00,98.41
3017.00,98.42
3016.00,98.44
3015.00,98.45
3014.00,98.47
3013.00,98.48
3012.00,98.47
3011.00,98.44
3010.00,98.41
3009.00,98.37
3008.00,98.35
3007.00,98.34
3006.00,98.34
3005.00,98.34
3004.00,98.34
3003.00,98.33
3002.00,98.32
3001.00,98.31
3000.00,98.31
2999.00,98.31
2998.00,98.30
2997.00,98.30
2996.00,98.29
2995.00,98.28
2994.00,98.26
2993.00,98.25
2992.00,98.24
2991.00,98.24
2990.00,98.24
2989.00,98.25
2988.00,98.24
2987.00,98.24
2986.00,98.23
2985.00,98.23
2984.00,98.23
2983.00,98.24
2982.00,98.24
2981.00,98.24
2980.00,98.24
2979.00,98.23
2978.00,98.22
2977.00,98.21
2976.00,98.21
2975.00,98.20
2974.00,98.19
2973.00,98.17
2972.00,98.15
2971.00,98.14
2970.00,98.12
2969.00,98.11
2968.00,98.10
2967.00,98.10
2966.00,98.10
2965.00,98.08
2964.00,98.05
2963.00,98.02
2962.00,98.00
2961.00,97.98
2960.00,97.96
2959.00,97.93
2958.00,97.91
2957.00,97.89
2956.00,97.86
2955.00,97.83
2954.00,97.78
2953.00,97.75
2952.00,97.74
2951.00,97.72
2950.00,97.69
2949.00,97.65
2948.00,97.61
2947.00,97.59
2946.00,97.57
2945.00,97.55
2944.00,97.53
2943.00,97.50
2942.00,97.47
2941.00,97.45
2940.00,97.44
2939.00,97.45
2938.00,97.45
2937.00,97.44
2936.00,97.43
2935.00,97.42
2934.00,97.42
2933.00,97.42
2932.00,97.44
2931.00,97.45
2930.00,97.45
2929.00,97.44
2928.00,97.42
2927.00,97.40
2926.00,97.39
2925.00,97.38
2924.00,97.37
2923.00,97.35
2922.00,97.33
2921.00,97.34
2920.00,97.36
2919.00,97.38
2918.00,97.41
2917.00,97.43
2916.00,97.45
2915.00,97.48
2914.00,97.51
2913.00,97.56
2912.00,97.62
2911.00,97.67
2910.00,97.72
2909.00,97.75
2908.00,97.78
2907.00,97.81
2906.00,97.85
2905.00,97.90
2904.00,97.94
2903.00,97.98
2902.00,98.00
2901.00,98.00
2900.00,98.00
2899.00,98.00
2898.00,98.02
2897.00,98.04
2896.00,98.05
2895.00,98.05
2894.00,98.05
2893.00,98.06
2892.00,98.07
2891.00,98.08
2890.00,98.09
2889.00,98.11
2888.00,98.13
2887.00,98.14
2886.00,98.16
2885.00,98.17
2884.00,98.17
2883.00,98.16
2882.00,98.15
2881.00,98.14
2880.00,98.14
2879.00,98.14
2878.00,98.13
2877.00,98.13
2876.00,98.12
2875.00,98.11
2874.00,98.11
2873.00,98.12
2872.00,98.13
2871.00,98.15
2870.00,98.15
2869.00,98.15
2868.00,98.15
2867.00,98.15
2866.00,98.16
2865.00,98.17
2864.00,98.19
2863.00,98.19
2862.00,98.19
2861.00,98.18
2860.00,98.18
2859.00,98.17
2858.00,98.17
2857.00,98.16
2856.00,98.16
2855.00,98.15
2854.00,98.14
2853.00,98.14
2852.00,98.15
2851.00,98.16
2850.00,98.17
2849.00,98.18
2848.00,98.20
2847.00,98.25
2846.00,98.30
2845.00,98.34
2844.00,98.37
2843.00,98.38
2842.00,98.40
2841.00,98.42
2840.00,98.45
2839.00,98.46
2838.00,98.45
2837.00,98.43
2836.00,98.42
2835.00,98.42
2834.00,98.43
2833.00,98.44
2832.00,98.45
2831.00,98.45
2830.00,98.46
2829.00,98.48
2828.00,98.49
2827.00,98.50
2826.00,98.50
2825.00,98.50
2824.00,98.49
2823.00,98.48
2822.00,98.47
2821.00,98.47
2820.00,98.46
2819.00,98.46
2818.00,98.47
2817.00,98.48
2816.00,98.49
2815.00,98.49
2814.00,98.50
2813.00,98.51
2812.00,98.50
2811.00,98.49
2810.00,98.48
2809.00,98.47
2808.00,98.48
2807.00,98.49
2806.00,98.50
2805.00,98.52
2804.00,98.52
2803.00,98.52
2802.00,98.51
2801.00,98.50
2800.00,98.50
2799.00,98.51
2798.00,98.51
2797.00,98.51
2796.00,98.50
2795.00,98.49
2794.00,98.49
2793.00,98.49
2792.00,98.50
2791.00,98.50
2790.00,98.51
2789.00,98.52
2788.00,98.53
2787.00,98.53
2786.00,98.54
2785.00,98.54
2784.00,98.54
2783.00,98.53
2782.00,98.53
2781.00,98.52
2780.00,98.52
2779.00,98.54
2778.00,98.56
2777.00,98.57
2776.00,98.56
2775.00,98.55
2774.00,98.54
2773.00,98.55
2772.00,98.57
2771.00,98.59
2770.00,98.61
2769.00,98.62
2768.00,98.61
2767.00,98.58
2766.00,98.56
2765.00,98.54
2764.00,98.54
2763.00,98.56
2762.00,98.58
2761.00,98.59
2760.00,98.59
2759.00,98.59
2758.00,98.58
2757.00,98.59
2756.00,98.59
2755.00,98.59
2754.00,98.57
2753.00,98.56
2752.00,98.54
2751.00,98.54
2750.00,98.55
2749.00,98.57
2748.00,98.57
2747.00,98.57
2746.00,98.55
2745.00,98.53
2744.00,98.53
2743.00,98.55
2742.00,98.56
2741.00,98.57
2740.00,98.57
2739.00,98.56
2738.00,98.55
2737.00,98.54
2736.00,98.53
2735.00,98.52
2734.00,98.51
2733.00,98.50
2732.00,98.49
2731.00,98.50
2730.00,98.50
2729.00,98.51
2728.00,98.52
2727.00,98.52
2726.00,98.52
2725.00,98.53
2724.00,98.54
2723.00,98.55
2722.00,98.54
2721.00,98.53
2720.00,98.52
2719.00,98.51
2718.00,98.50
2717.00,98.50
2716.00,98.51
2715.00,98.52
2714.00,98.54
2713.00,98.55
2712.00,98.55
2711.00,98.54
2710.00,98.55
2709.00,98.56
2708.00,98.57
2707.00,98.58
2706.00,98.57
2705.00,98.55
2704.00,98.53
2703.00,98.52
2702.00,98.52
2701.00,98.52
2700.00,98.52
2699.00,98.52
2698.00,98.52
2697.00,98.52
2696.00,98.52
2695.00,98.53
2694.00,98.52
2693.00,98.51
2692.00,98.50
2691.00,98.49
2690.00,98.50
2689.00,98.52
2688.00,98.53
2687.00,98.54
2686.00,98.54
2685.00,98.53
2684.00,98.52
2683.00,98.52
2682.00,98.51
2681.00,98.51
2680.00,98.50
2679.00,98.50
2678.00,98.49
2677.00,98.49
2676.00,98.49
2675.00,98.49
2674.00,98.49
2673.00,98.49
2672.00,98.50
2671.00,98.50
2670.00,98.50
2669.00,98.49
2668.00,98.49
2667.00,98.50
2666.00,98.51
2665.00,98.52
2664.00,98.52
2663.00,98.51
2662.00,98.49
2661.00,98.47
2660.00,98.45
2659.00,98.45
2658.00,98.45
2657.00,98.46
2656.00,98.46
2655.00,98.45
2654.00,98.43
2653.00,98.41
2652.00,98.38
2651.00,98.37
2650.00,98.36
2649.00,98.36
2648.00,98.36
2647.00,98.35
2646.00,98.35
2645.00,98.34
2644.00,98.33
2643.00,98.31
2642.00,98.28
2641.00,98.26
2640.00,98.26
2639.00,98.26
2638.00,98.26
2637.00,98.26
2636.00,98.26
2635.00,98.25
2634.00,98.24
2633.00,98.23
2632.00,98.22
2631.00,98.21
2630.00,98.21
2629.00,98.21
2628.00,98.20
2627.00,98.19
2626.00,98.18
2625.00,98.17
2624.00,98.18
2623.00,98.19
2622.00,98.19
2621.00,98.19
2620.00,98.17
2619.00,98.15
2618.00,98.12
2617.00,98.10
2616.00,98.09
2615.00,98.10
2614.00,98.11
2613.00,98.12
2612.00,98.11
2611.00,98.10
2610.00,98.09
2609.00,98.08
2608.00,98.07
2607.00,98.06
2606.00,98.05
2605.00,98.06
2604.00,98.07
2603.00,98.09
2602.00,98.09
2601.00,98.07
2600.00,98.05
2599.00,98.04
2598.00,98.03
2597.00,98.02
2596.00,98.01
2595.00,97.99
2594.00,97.99
2593.00,98.00
2592.00,98.01
2591.00,98.00
2590.00,97.97
2589.00,97.95
2588.00,97.94
2587.00,97.93
2586.00,97.93
2585.00,97.93
2584.00,97.93
2583.00,97.93
2582.00,97.94
2581.00,97.95
2580.00,97.96
2579.00,97.97
2578.00,97.97
2577.00,97.96
2576.00,97.95
2575.00,97.93
2574.00,97.91
2573.00,97.89
2572.00,97.89
2571.00,97.89
2570.00,97.89
2569.00,97.88
2568.00,97.87
2567.00,97.86
2566.00,97.87
2565.00,97.88
2564.00,97.88
2563.00,97.88
2562.00,97.89
2561.00,97.90
2560.00,97.91
2559.00,97.91
2558.00,97.91
2557.00,97.89
2556.00,97.88
2555.00,97.86
2554.00,97.86
2553.00,97.87
2552.00,97.86
2551.00,97.85
2550.00,97.85
2549.00,97.87
2548.00,97.90
2547.00,97.92
2546.00,97.92
2545.00,97.90
2544.00,97.87
2543.00,97.85
2542.00,97.84
2541.00,97.83
2540.00,97.83
2539.00,97.82
2538.00,97.80
2537.00,97.78
2536.00,97.77
2535.00,97.77
2534.00,97.78
2533.00,97.79
2532.00,97.81
2531.00,97.81
2530.00,97.80
2529.00,97.78
2528.00,97.77
2527.00,97.77
2526.00,97.78
2525.00,97.79
2524.00,97.79
2523.00,97.79
2522.00,97.78
2521.00,97.76
2520.00,97.76
2519.00,97.76
2518.00,97.77
2517.00,97.77
2516.00,97.77
2515.00,97.77
2514.00,97.77
2513.00,97.78
2512.00,97.80
2511.00,97.81
2510.00,97.83
2509.00,97.84
2508.00,97.84
2507.00,97.82
2506.00,97.80
2505.00,97.79
2504.00,97.79
2503.00,97.78
2502.00,97.76
2501.00,97.76
2500.00,97.78
2499.00,97.82
2498.00,97.86
2497.00,97.87
2496.00,97.87
2495.00,97.85
2494.00,97.85
2493.00,97.86
2492.00,97.87
2491.00,97.87
2490.00,97.85
2489.00,97.81
2488.00,97.79
2487.00,97.78
2486.00,97.80
2485.00,97.83
2484.00,97.84
2483.00,97.81
2482.00,97.78
2481.00,97.75
2480.00,97.74
2479.00,97.76
2478.00,97.79
2477.00,97.83
2476.00,97.85
2475.00,97.87
2474.00,97.86
2473.00,97.85
2472.00,97.84
2471.00,97.82
2470.00,97.81
2469.00,97.80
2468.00,97.80
2467.00,97.81
2466.00,97.83
2465.00,97.83
2464.00,97.83
2463.00,97.82
2462.00,97.81
2461.00,97.81
2460.00,97.80
2459.00,97.81
2458.00,97.82
2457.00,97.83
2456.00,97.84
2455.00,97.83
2454.00,97.84
2453.00,97.84
2452.00,97.85
2451.00,97.85
2450.00,97.84
2449.00,97.84
2448.00,97.84
2447.00,97.84
2446.00,97.84
2445.00,97.85
2444.00,97.84
2443.00,97.84
2442.00,97.83
2441.00,97.84
2440.00,97.85
2439.00,97.86
2438.00,97.86
2437.00,97.84
2436.00,97.83
2435.00,97.82
2434.00,97.82
2433.00,97.82
2432.00,97.82
2431.00,97.82
2430.00,97.83
2429.00,97.81
2428.00,97.79
2427.00,97.78
2426.00,97.80
2425.00,97.82
2424.00,97.85
2423.00,97.85
2422.00,97.86
2421.00,97.88
2420.00,97.90
2419.00,97.90
2418.00,97.89
2417.00,97.87
2416.00,97.86
2415.00,97.88
2414.00,97.92
2413.00,97.95
2412.00,97.97
2411.00,97.98
2410.00,97.97
2409.00,97.97
2408.00,97.97
2407.00,97.98
2406.00,97.99
2405.00,97.99
2404.00,97.98
2403.00,97.96
2402.00,97.94
2401.00,97.94
2400.00,97.96
2399.00,97.98
2398.00,97.99
2397.00,97.99
2396.00,98.00
2395.00,98.00
2394.00,98.01
2393.00,98.03
2392.00,98.03
2391.00,98.04
2390.00,98.04
2389.00,98.05
2388.00,98.06
2387.00,98.07
2386.00,98.08
2385.00,98.09
2384.00,98.10
2383.00,98.11
2382.00,98.12
2381.00,98.12
2380.00,98.13
2379.00,98.14
2378.00,98.14
2377.00,98.13
2376.00,98.11
2375.00,98.10
2374.00,98.10
2373.00,98.12
2372.00,98.14
2371.00,98.14
2370.00,98.14
2369.00,98.16
2368.00,98.19
2367.00,98.22
2366.00,98.21
2365.00,98.16
2364.00,98.10
2363.00,98.06
2362.00,98.03
2361.00,98.04
2360.00,98.05
2359.00,98.05
2358.00,98.05
2357.00,98.06
2356.00,98.07
2355.00,98.11
2354.00,98.14
2353.00,98.17
2352.00,98.18
2351.00,98.19
2350.00,98.21
2349.00,98.25
2348.00,98.30
2347.00,98.33
2346.00,98.32
2345.00,98.28
2344.00,98.24
2343.00,98.21
2342.00,98.19
2341.00,98.17
2340.00,98.16
2339.00,98.15
2338.00,98.15
2337.00,98.17
2336.00,98.19
2335.00,98.21
2334.00,98.22
2333.00,98.20
2332.00,98.17
2331.00,98.13
2330.00,98.11
2329.00,98.11
2328.00,98.11
2327.00,98.11
2326.00,98.10
2325.00,98.08
2324.00,98.04
2323.00,98.00
2322.00,97.96
2321.00,97.92
2320.00,97.90
2319.00,97.89
2318.00,97.89
2317.00,97.91
2316.00,97.95
2315.00,97.98
2314.00,98.00
2313.00,98.00
2312.00,97.99
2311.00,97.96
2310.00,97.93
2309.00,97.89
2308.00,97.86
2307.00,97.83
2306.00,97.81
2305.00,97.80
2304.00,97.81
2303.00,97.81
2302.00,97.81
2301.00,97.80
2300.00,97.80
2299.00,97.79
2298.00,97.77
2297.00,97.74
2296.00,97.72
2295.00,97.70
2294.00,97.70
2293.00,97.68
2292.00,97.65
2291.00,97.62
2290.00,97.59
2289.00,97.57
2288.00,97.55
2287.00,97.52
2286.00,97.49
2285.00,97.47
2284.00,97.46
2283.00,97.45
2282.00,97.44
2281.00,97.43
2280.00,97.41
2279.00,97.38
2278.00,97.36
2277.00,97.35
2276.00,97.34
2275.00,97.33
2274.00,97.31
2273.00,97.28
2272.00,97.24
2271.00,97.22
2270.00,97.21
2269.00,97.20
2268.00,97.18
2267.00,97.16
2266.00,97.14
2265.00,97.14
2264.00,97.14
2263.00,97.14
2262.00,97.11
2261.00,97.07
2260.00,97.00
2259.00,96.91
2258.00,96.80
2257.00,96.67
2256.00,96.54
2255.00,96.41
2254.00,96.27
2253.00,96.11
2252.00,95.93
2251.00,95.70
2250.00,95.44
2249.00,95.15
2248.00,94.86
2247.00,94.58
2246.00,94.33
2245.00,94.08
2244.00,93.85
2243.00,93.66
2242.00,93.55
2241.00,93.55
2240.00,93.68
2239.00,93.94
2238.00,94.28
2237.00,94.64
2236.00,94.98
2235.00,95.28
2234.00,95.52
2233.00,95.71
2232.00,95.85
2231.00,95.95
2230.00,96.04
2229.00,96.15
2228.00,96.25
2227.00,96.33
2226.00,96.37
2225.00,96.37
2224.00,96.37
2223.00,96.37
2222.00,96.38
2221.00,96.40
2220.00,96.43
2219.00,96.44
2218.00,96.42
2217.00,96.38
2216.00,96.35
2215.00,96.33
2214.00,96.31
2213.00,96.30
2212.00,96.30
2211.00,96.32
2210.00,96.34
2209.00,96.34
2208.00,96.33
2207.00,96.32
2206.00,96.30
2205.00,96.27
2204.00,96.25
2203.00,96.23
2202.00,96.22
2201.00,96.22
2200.00,96.23
2199.00,96.26
2198.00,96.28
2197.00,96.27
2196.00,96.24
2195.00,96.22
2194.00,96.22
2193.00,96.22
2192.00,96.21
2191.00,96.17
2190.00,96.10
2189.00,96.02
2188.00,95.95
2187.00,95.89
2186.00,95.82
2185.00,95.76
2184.00,95.75
2183.00,95.78
2182.00,95.84
2181.00,95.88
2180.00,95.90
2179.00,95.89
2178.00,95.87
2177.00,95.86
2176.00,95.86
2175.00,95.89
2174.00,95.94
2173.00,95.98
2172.00,95.97
2171.00,95.90
2170.00,95.77
2169.00,95.65
2168.00,95.56
2167.00,95.52
2166.00,95.50
2165.00,95.50
2164.00,95.48
2163.00,95.44
2162.00,95.41
2161.00,95.40
2160.00,95.45
2159.00,95.56
2158.00,95.71
2157.00,95.86
2156.00,96.00
2155.00,96.12
2154.00,96.21
2153.00,96.26
2152.00,96.29
2151.00,96.29
2150.00,96.29
2149.00,96.31
2148.00,96.34
2147.00,96.37
2146.00,96.40
2145.00,96.45
2144.00,96.51
2143.00,96.56
2142.00,96.60
2141.00,96.61
2140.00,96.63
2139.00,96.67
2138.00,96.71
2137.00,96.75
2136.00,96.76
2135.00,96.76
2134.00,96.77
2133.00,96.82
2132.00,96.89
2131.00,96.98
2130.00,97.06
2129.00,97.11
2128.00,97.14
2127.00,97.16
2126.00,97.17
2125.00,97.18
2124.00,97.19
2123.00,97.20
2122.00,97.20
2121.00,97.19
2120.00,97.17
2119.00,97.17
2118.00,97.17
2117.00,97.17
2116.00,97.17
2115.00,97.16
2114.00,97.13
2113.00,97.10
2112.00,97.07
2111.00,97.04
2110.00,97.04
2109.00,97.05
2108.00,97.07
2107.00,97.07
2106.00,97.08
2105.00,97.08
2104.00,97.09
2103.00,97.09
2102.00,97.08
2101.00,97.06
2100.00,97.05
2099.00,97.04
2098.00,97.04
2097.00,97.03
2096.00,97.03
2095.00,97.02
2094.00,97.03
2093.00,97.05
2092.00,97.09
2091.00,97.13
2090.00,97.16
2089.00,97.16
2088.00,97.14
2087.00,97.13
2086.00,97.12
2085.00,97.10
2084.00,97.07
2083.00,97.02
2082.00,97.00
2081.00,97.00
2080.00,97.02
2079.00,97.03
2078.00,97.03
2077.00,97.00
2076.00,96.97
2075.00,96.94
2074.00,96.91
2073.00,96.89
2072.00,96.87
2071.00,96.87
2070.00,96.87
2069.00,96.87
2068.00,96.87
2067.00,96.85
2066.00,96.82
2065.00,96.80
2064.00,96.79
2063.00,96.78
2062.00,96.78
2061.00,96.78
2060.00,96.79
2059.00,96.79
2058.00,96.79
2057.00,96.78
2056.00,96.77
2055.00,96.75
2054.00,96.71
2053.00,96.63
2052.00,96.54
2051.00,96.46
2050.00,96.42
2049.00,96.39
2048.00,96.34
2047.00,96.26
2046.00,96.17
2045.00,96.14
2044.00,96.14
2043.00,96.15
2042.00,96.13
2041.00,96.11
2040.00,96.09
2039.00,96.05
2038.00,96.00
2037.00,95.94
2036.00,95.92
2035.00,95.93
2034.00,95.95
2033.00,95.95
2032.00,95.92
2031.00,95.87
2030.00,95.85
2029.00,95.88
2028.00,95.94
2027.00,95.97
2026.00,95.96
2025.00,95.95
2024.00,95.98
2023.00,96.04
2022.00,96.08
2021.00,96.11
2020.00,96.12
2019.00,96.15
2018.00,96.18
2017.00,96.20
2016.00,96.17
2015.00,96.12
2014.00,96.08
2013.00,96.08
2012.00,96.09
2011.00,96.09
2010.00,96.07
2009.00,96.08
2008.00,96.14
2007.00,96.24
2006.00,96.31
2005.00,96.32
2004.00,96.29
2003.00,96.27
2002.00,96.27
2001.00,96.31
2000.00,96.35
1999.00,96.38
1998.00,96.38
1997.00,96.38
1996.00,96.40
1995.00,96.44
1994.00,96.46
1993.00,96.44
1992.00,96.38
1991.00,96.32
1990.00,96.27
1989.00,96.22
1988.00,96.17
1987.00,96.14
1986.00,96.11
1985.00,96.10
1984.00,96.11
1983.00,96.13
1982.00,96.13
1981.00,96.09
1980.00,96.04
1979.00,96.03
1978.00,96.06
1977.00,96.12
1976.00,96.17
1975.00,96.20
1974.00,96.21
1973.00,96.18
1972.00,96.15
1971.00,96.14
1970.00,96.18
1969.00,96.27
1968.00,96.36
1967.00,96.39
1966.00,96.38
1965.00,96.37
1964.00,96.37
1963.00,96.40
1962.00,96.44
1961.00,96.50
1960.00,96.56
1959.00,96.62
1958.00,96.66
1957.00,96.68
1956.00,96.68
1955.00,96.70
1954.00,96.73
1953.00,96.77
1952.00,96.80
1951.00,96.81
1950.00,96.83
1949.00,96.85
1948.00,96.90
1947.00,96.96
1946.00,97.01
1945.00,97.05
1944.00,97.06
1943.00,97.07
1942.00,97.06
1941.00,97.05
1940.00,97.02
1939.00,97.00
1938.00,97.01
1937.00,97.05
1936.00,97.11
1935.00,97.18
1934.00,97.24
1933.00,97.27
1932.00,97.29
1931.00,97.32
1930.00,97.34
1929.00,97.37
1928.00,97.39
1927.00,97.39
1926.00,97.39
1925.00,97.37
1924.00,97.35
1923.00,97.34
1922.00,97.35
1921.00,97.37
1920.00,97.38
1919.00,97.39
1918.00,97.43
1917.00,97.48
1916.00,97.52
1915.00,97.55
1914.00,97.56
1913.00,97.56
1912.00,97.56
1911.00,97.56
1910.00,97.56
1909.00,97.57
1908.00,97.58
1907.00,97.59
1906.00,97.59
1905.00,97.59
1904.00,97.60
1903.00,97.61
1902.00,97.63
1901.00,97.64
1900.00,97.64
1899.00,97.65
1898.00,97.67
1897.00,97.69
1896.00,97.69
1895.00,97.69
1894.00,97.70
1893.00,97.71
1892.00,97.72
1891.00,97.72
1890.00,97.73
1889.00,97.74
1888.00,97.75
1887.00,97.75
1886.00,97.76
1885.00,97.77
1884.00,97.77
1883.00,97.76
1882.00,97.74
1881.00,97.73
1880.00,97.74
1879.00,97.76
1878.00,97.78
1877.00,97.79
1876.00,97.80
1875.00,97.81
1874.00,97.81
1873.00,97.81
1872.00,97.82
1871.00,97.82
1870.00,97.82
1869.00,97.83
1868.00,97.84
1867.00,97.85
1866.00,97.87
1865.00,97.89
1864.00,97.91
1863.00,97.92
1862.00,97.93
1861.00,97.94
1860.00,97.96
1859.00,97.96
1858.00,97.96
1857.00,97.95
1856.00,97.96
1855.00,97.96
1854.00,97.96
1853.00,97.96
1852.00,97.96
1851.00,97.98
1850.00,97.99
1849.00,97.99
1848.00,98.00
1847.00,98.01
1846.00,98.03
1845.00,98.04
1844.00,98.04
1843.00,98.03
1842.00,98.02
1841.00,98.01
1840.00,98.01
1839.00,98.02
1838.00,98.03
1837.00,98.05
1836.00,98.06
1835.00,98.07
1834.00,98.07
1833.00,98.07
1832.00,98.07
1831.00,98.08
1830.00,98.09
1829.00,98.10
1828.00,98.10
1827.00,98.09
1826.00,98.07
1825.00,98.06
1824.00,98.06
1823.00,98.07
1822.00,98.10
1821.00,98.11
1820.00,98.13
1819.00,98.14
1818.00,98.16
1817.00,98.19
1816.00,98.20
1815.00,98.20
1814.00,98.20
1813.00,98.18
1812.00,98.17
1811.00,98.17
1810.00,98.18
1809.00,98.19
1808.00,98.20
1807.00,98.22
1806.00,98.24
1805.00,98.26
1804.00,98.27
1803.00,98.28
1802.00,98.28
1801.00,98.27
1800.00,98.25
1799.00,98.23
1798.00,98.22
1797.00,98.21
1796.00,98.22
1795.00,98.22
1794.00,98.24
1793.00,98.26
1792.00,98.28
1791.00,98.28
1790.00,98.28
1789.00,98.28
1788.00,98.28
1787.00,98.30
1786.00,98.32
1785.00,98.33
1784.00,98.32
1783.00,98.30
1782.00,98.28
1781.00,98.26
1780.00,98.25
1779.00,98.26
1778.00,98.29
1777.00,98.32
1776.00,98.35
1775.00,98.35
1774.00,98.35
1773.00,98.35
1772.00,98.34
1771.00,98.32
1770.00,98.31
1769.00,98.31
1768.00,98.30
1767.00,98.30
1766.00,98.30
1765.00,98.30
1764.00,98.30
1763.00,98.29
1762.00,98.28
1761.00,98.26
1760.00,98.24
1759.00,98.22
1758.00,98.20
1757.00,98.18
1756.00,98.15
1755.00,98.13
1754.00,98.10
1753.00,98.06
1752.00,98.00
1751.00,97.90
1750.00,97.76
1749.00,97.62
1748.00,97.47
1747.00,97.32
1746.00,97.17
1745.00,97.02
1744.00,96.85
1743.00,96.67
1742.00,96.49
1741.00,96.30
1740.00,96.09
1739.00,95.87
1738.00,95.68
1737.00,95.52
1736.00,95.40
1735.00,95.27
1734.00,95.14
1733.00,95.02
1732.00,94.96
1731.00,94.93
1730.00,94.92
1729.00,94.94
1728.00,94.97
1727.00,95.02
1726.00,95.10
1725.00,95.21
1724.00,95.34
1723.00,95.47
1722.00,95.61
1721.00,95.73
1720.00,95.86
1719.00,96.01
1718.00,96.17
1717.00,96.33
1716.00,96.48
1715.00,96.62
1714.00,96.74
1713.00,96.85
1712.00,96.96
1711.00,97.07
1710.00,97.18
1709.00,97.26
1708.00,97.32
1707.00,97.37
1706.00,97.42
1705.00,97.47
1704.00,97.51
1703.00,97.55
1702.00,97.59
1701.00,97.63
1700.00,97.63
1699.00,97.62
1698.00,97.62
1697.00,97.63
1696.00,97.67
1695.00,97.71
1694.00,97.75
1693.00,97.76
1692.00,97.77
1691.00,97.78
1690.00,97.79
1689.00,97.78
1688.00,97.77
1687.00,97.76
1686.00,97.76
1685.00,97.75
1684.00,97.72
1683.00,97.70
1682.00,97.70
1681.00,97.72
1680.00,97.74
1679.00,97.76
1678.00,97.77
1677.00,97.77
1676.00,97.75
1675.00,97.73
1674.00,97.70
1673.00,97.67
1672.00,97.64
1671.00,97.62
1670.00,97.62
1669.00,97.63
1668.00,97.64
1667.00,97.63
1666.00,97.61
1665.00,97.59
1664.00,97.59
1663.00,97.60
1662.00,97.63
1661.00,97.65
1660.00,97.65
1659.00,97.64
1658.00,97.63
1657.00,97.62
1656.00,97.62
1655.00,97.64
1654.00,97.66
1653.00,97.68
1652.00,97.68
1651.00,97.68
1650.00,97.68
1649.00,97.67
1648.00,97.67
1647.00,97.67
1646.00,97.68
1645.00,97.67
1644.00,97.67
1643.00,97.66
1642.00,97.65
1641.00,97.64
1640.00,97.62
1639.00,97.59
1638.00,97.56
1637.00,97.55
1636.00,97.58
1635.00,97.62
1634.00,97.64
1633.00,97.64
1632.00,97.64
1631.00,97.63
1630.00,97.63
1629.00,97.61
1628.00,97.60
1627.00,97.60
1626.00,97.61
1625.00,97.62
1624.00,97.62
1623.00,97.61
1622.00,97.60
1621.00,97.60
1620.00,97.60
1619.00,97.61
1618.00,97.62
1617.00,97.64
1616.00,97.65
1615.00,97.67
1614.00,97.68
1613.00,97.70
1612.00,97.72
1611.00,97.75
1610.00,97.78
1609.00,97.80
1608.00,97.83
1607.00,97.84
1606.00,97.86
1605.00,97.87
1604.00,97.89
1603.00,97.90
1602.00,97.91
1601.00,97.93
1600.00,97.94
1599.00,97.94
1598.00,97.95
1597.00,97.96
1596.00,97.98
1595.00,97.99
1594.00,98.01
1593.00,98.01
1592.00,98.01
1591.00,98.02
1590.00,98.04
1589.00,98.06
1588.00,98.08
1587.00,98.08
1586.00,98.08
1585.00,98.08
1584.00,98.08
1583.00,98.09
1582.00,98.11
1581.00,98.12
1580.00,98.12
1579.00,98.12
1578.00,98.12
1577.00,98.11
1576.00,98.11
1575.00,98.12
1574.00,98.12
1573.00,98.13
1572.00,98.13
1571.00,98.14
1570.00,98.15
1569.00,98.15
1568.00,98.15
1567.00,98.15
1566.00,98.16
1565.00,98.17
1564.00,98.18
1563.00,98.18
1562.00,98.17
1561.00,98.17
1560.00,98.15
1559.00,98.13
1558.00,98.13
1557.00,98.16
1556.00,98.20
1555.00,98.24
1554.00,98.26
1553.00,98.27
1552.00,98.27
1551.00,98.26
1550.00,98.26
1549.00,98.26
1548.00,98.26
1547.00,98.26
1546.00,98.26
1545.00,98.25
1544.00,98.25
1543.00,98.25
1542.00,98.25
1541.00,98.23
1540.00,98.19
1539.00,98.17
1538.00,98.19
1537.00,98.21
1536.00,98.23
1535.00,98.25
1534.00,98.27
1533.00,98.27
1532.00,98.28
1531.00,98.28
1530.00,98.28
1529.00,98.28
1528.00,98.28
1527.00,98.27
1526.00,98.27
1525.00,98.27
1524.00,98.27
1523.00,98.27
1522.00,98.27
1521.00,98.26
1520.00,98.25
1519.00,98.25
1518.00,98.25
1517.00,98.25
1516.00,98.25
1515.00,98.25
1514.00,98.25
1513.00,98.25
1512.00,98.24
1511.00,98.23
1510.00,98.23
1509.00,98.24
1508.00,98.24
1507.00,98.24
1506.00,98.23
1505.00,98.23
1504.00,98.23
1503.00,98.23
1502.00,98.23
1501.00,98.22
1500.00,98.21
1499.00,98.19
1498.00,98.16
1497.00,98.14
1496.00,98.14
1495.00,98.15
1494.00,98.15
1493.00,98.14
1492.00,98.11
1491.00,98.09
1490.00,98.07
1489.00,98.06
1488.00,98.05
1487.00,98.04
1486.00,98.04
1485.00,98.03
1484.00,98.03
1483.00,98.03
1482.00,98.02
1481.00,97.99
1480.00,97.97
1479.00,97.95
1478.00,97.93
1477.00,97.88
1476.00,97.83
1475.00,97.79
1474.00,97.77
1473.00,97.75
1472.00,97.72
1471.00,97.68
1470.00,97.64
1469.00,97.60
1468.00,97.54
1467.00,97.46
1466.00,97.33
1465.00,97.14
1464.00,96.91
1463.00,96.69
1462.00,96.47
1461.00,96.23
1460.00,95.97
1459.00,95.66
1458.00,95.26
1457.00,94.77
1456.00,94.37
1455.00,94.14
1454.00,94.00
1453.00,93.91
1452.00,93.86
1451.00,93.86
1450.00,93.91
1449.00,93.99
1448.00,94.10
1447.00,94.25
1446.00,94.40
1445.00,94.57
1444.00,94.74
1443.00,94.91
1442.00,95.07
1441.00,95.23
1440.00,95.37
1439.00,95.52
1438.00,95.68
1437.00,95.84
1436.00,96.01
1435.00,96.16
1434.00,96.30
1433.00,96.43
1432.00,96.56
1431.00,96.69
1430.00,96.82
1429.00,96.94
1428.00,97.05
1427.00,97.14
1426.00,97.23
1425.00,97.33
1424.00,97.42
1423.00,97.49
1422.00,97.53
1421.00,97.57
1420.00,97.61
1419.00,97.66
1418.00,97.69
1417.00,97.71
1416.00,97.73
1415.00,97.74
1414.00,97.75
1413.00,97.77
1412.00,97.78
1411.00,97.78
1410.00,97.79
1409.00,97.82
1408.00,97.85
1407.00,97.87
1406.00,97.86
1405.00,97.85
1404.00,97.82
1403.00,97.81
1402.00,97.81
1401.00,97.81
1400.00,97.80
1399.00,97.77
1398.00,97.73
1397.00,97.68
1396.00,97.64
1395.00,97.60
1394.00,97.57
1393.00,97.54
1392.00,97.51
1391.00,97.48
1390.00,97.44
1389.00,97.41
1388.00,97.39
1387.00,97.36
1386.00,97.34
1385.00,97.32
1384.00,97.29
1383.00,97.27
1382.00,97.23
1381.00,97.21
1380.00,97.18
1379.00,97.15
1378.00,97.11
1377.00,97.07
1376.00,97.03
1375.00,97.01
1374.00,96.99
1373.00,96.97
1372.00,96.93
1371.00,96.89
1370.00,96.85
1369.00,96.82
1368.00,96.79
1367.00,96.76
1366.00,96.73
1365.00,96.70
1364.00,96.68
1363.00,96.65
1362.00,96.64
1361.00,96.63
1360.00,96.62
1359.00,96.61
1358.00,96.59
1357.00,96.58
1356.00,96.58
1355.00,96.57
1354.00,96.57
1353.00,96.57
1352.00,96.58
1351.00,96.61
1350.00,96.64
1349.00,96.67
1348.00,96.69
1347.00,96.72
1346.00,96.75
1345.00,96.78
1344.00,96.81
1343.00,96.85
1342.00,96.89
1341.00,96.93
1340.00,96.98
1339.00,97.01
1338.00,97.04
1337.00,97.07
1336.00,97.08
1335.00,97.10
1334.00,97.12
1333.00,97.15
1332.00,97.19
1331.00,97.21
1330.00,97.23
1329.00,97.24
1328.00,97.25
1327.00,97.27
1326.00,97.29
1325.00,97.31
1324.00,97.31
1323.00,97.31
1322.00,97.31
1321.00,97.30
1320.00,97.30
1319.00,97.29
1318.00,97.27
1317.00,97.25
1316.00,97.24
1315.00,97.24
1314.00,97.25
1313.00,97.26
1312.00,97.26
1311.00,97.26
1310.00,97.25
1309.00,97.24
1308.00,97.24
1307.00,97.25
1306.00,97.26
1305.00,97.27
1304.00,97.28
1303.00,97.29
1302.00,97.31
1301.00,97.32
1300.00,97.33
1299.00,97.33
1298.00,97.32
1297.00,97.31
1296.00,97.30
1295.00,97.30
1294.00,97.29
1293.00,97.29
1292.00,97.27
1291.00,97.26
1290.00,97.25
1289.00,97.24
1288.00,97.23
1287.00,97.22
1286.00,97.20
1285.00,97.18
1284.00,97.15
1283.00,97.13
1282.00,97.10
1281.00,97.08
1280.00,97.06
1279.00,97.03
1278.00,97.01
1277.00,96.99
1276.00,96.97
1275.00,96.96
1274.00,96.94
1273.00,96.92
1272.00,96.90
1271.00,96.88
1270.00,96.87
1269.00,96.86
1268.00,96.85
1267.00,96.84
1266.00,96.82
1265.00,96.79
1264.00,96.76
1263.00,96.75
1262.00,96.73
1261.00,96.71
1260.00,96.67
1259.00,96.65
1258.00,96.63
1257.00,96.63
1256.00,96.62
1255.00,96.60
1254.00,96.57
1253.00,96.54
1252.00,96.49
1251.00,96.46
1250.00,96.43
1249.00,96.41
1248.00,96.40
1247.00,96.41
1246.00,96.42
1245.00,96.43
1244.00,96.45
1243.00,96.46
1242.00,96.47
1241.00,96.47
1240.00,96.47
1239.00,96.46
1238.00,96.46
1237.00,96.45
1236.00,96.42
1235.00,96.39
1234.00,96.35
1233.00,96.32
1232.00,96.30
1231.00,96.29
1230.00,96.28
1229.00,96.26
1228.00,96.24
1227.00,96.21
1226.00,96.19
1225.00,96.18
1224.00,96.17
1223.00,96.18
1222.00,96.18
1221.00,96.20
1220.00,96.23
1219.00,96.26
1218.00,96.28
1217.00,96.27
1216.00,96.24
1215.00,96.21
1214.00,96.21
1213.00,96.21
1212.00,96.22
1211.00,96.20
1210.00,96.15
1209.00,96.10
1208.00,96.05
1207.00,96.03
1206.00,96.03
1205.00,96.03
1204.00,96.02
1203.00,96.01
1202.00,96.00
1201.00,96.00
1200.00,96.00
1199.00,96.02
1198.00,96.05
1197.00,96.09
1196.00,96.14
1195.00,96.16
1194.00,96.18
1193.00,96.19
1192.00,96.20
1191.00,96.20
1190.00,96.21
1189.00,96.23
1188.00,96.24
1187.00,96.26
1186.00,96.27
1185.00,96.28
1184.00,96.28
1183.00,96.28
1182.00,96.26
1181.00,96.23
1180.00,96.19
1179.00,96.14
1178.00,96.09
1177.00,96.06
1176.00,96.03
1175.00,95.99
1174.00,95.94
1173.00,95.88
1172.00,95.82
1171.00,95.77
1170.00,95.74
1169.00,95.71
1168.00,95.68
1167.00,95.68
1166.00,95.71
1165.00,95.77
1164.00,95.84
1163.00,95.91
1162.00,95.98
1161.00,96.05
1160.00,96.12
1159.00,96.19
1158.00,96.26
1157.00,96.32
1156.00,96.39
1155.00,96.45
1154.00,96.49
1153.00,96.52
1152.00,96.54
1151.00,96.56
1150.00,96.59
1149.00,96.63
1148.00,96.67
1147.00,96.70
1146.00,96.71
1145.00,96.70
1144.00,96.68
1143.00,96.69
1142.00,96.70
1141.00,96.72
1140.00,96.73
1139.00,96.73
1138.00,96.71
1137.00,96.67
1136.00,96.63
1135.00,96.58
1134.00,96.55
1133.00,96.51
1132.00,96.47
1131.00,96.42
1130.00,96.37
1129.00,96.32
1128.00,96.29
1127.00,96.25
1126.00,96.22
1125.00,96.19
1124.00,96.17
1123.00,96.17
1122.00,96.19
1121.00,96.19
1120.00,96.18
1119.00,96.16
1118.00,96.16
1117.00,96.18
1116.00,96.19
1115.00,96.18
1114.00,96.18
1113.00,96.18
1112.00,96.20
1111.00,96.19
1110.00,96.17
1109.00,96.14
1108.00,96.12
1107.00,96.10
1106.00,96.09
1105.00,96.07
1104.00,96.03
1103.00,95.98
1102.00,95.93
1101.00,95.91
1100.00,95.91
1099.00,95.91
1098.00,95.91
1097.00,95.90
1096.00,95.89
1095.00,95.88
1094.00,95.87
1093.00,95.86
1092.00,95.85
1091.00,95.83
1090.00,95.81
1089.00,95.78
1088.00,95.73
1087.00,95.69
1086.00,95.66
1085.00,95.63
1084.00,95.59
1083.00,95.54
1082.00,95.49
1081.00,95.44
1080.00,95.40
1079.00,95.36
1078.00,95.34
1077.00,95.33
1076.00,95.32
1075.00,95.31
1074.00,95.29
1073.00,95.26
1072.00,95.21
1071.00,95.18
1070.00,95.16
1069.00,95.16
1068.00,95.16
1067.00,95.15
1066.00,95.15
1065.00,95.16
1064.00,95.18
1063.00,95.22
1062.00,95.25
1061.00,95.27
1060.00,95.31
1059.00,95.37
1058.00,95.45
1057.00,95.54
1056.00,95.60
1055.00,95.63
1054.00,95.65
1053.00,95.67
1052.00,95.70
1051.00,95.73
1050.00,95.76
1049.00,95.79
1048.00,95.82
1047.00,95.86
1046.00,95.91
1045.00,95.95
1044.00,95.97
1043.00,95.96
1042.00,95.94
1041.00,95.94
1040.00,95.96
1039.00,95.98
1038.00,96.01
1037.00,96.03
1036.00,96.05
1035.00,96.07
1034.00,96.10
1033.00,96.12
1032.00,96.15
1031.00,96.18
1030.00,96.19
1029.00,96.19
1028.00,96.18
1027.00,96.17
1026.00,96.17
1025.00,96.18
1024.00,96.20
1023.00,96.22
1022.00,96.24
1021.00,96.27
1020.00,96.29
1019.00,96.32
1018.00,96.35
1017.00,96.38
1016.00,96.40
1015.00,96.40
1014.00,96.41
1013.00,96.44
1012.00,96.47
1011.00,96.49
1010.00,96.50
1009.00,96.50
1008.00,96.54
1007.00,96.60
1006.00,96.64
1005.00,96.65
1004.00,96.64
1003.00,96.63
1002.00,96.63
1001.00,96.65
1000.00,96.68
999.00,96.71
998.00,96.73
997.00,96.74
996.00,96.73
995.00,96.71
994.00,96.70
993.00,96.70
992.00,96.69
991.00,96.69
990.00,96.70
989.00,96.71
988.00,96.72
987.00,96.75
986.00,96.78
985.00,96.82
984.00,96.87
983.00,96.91
982.00,96.94
981.00,96.97
980.00,97.00
979.00,97.04
978.00,97.06
977.00,97.06
976.00,97.07
975.00,97.08
974.00,97.11
973.00,97.15
972.00,97.17
971.00,97.16
970.00,97.14
969.00,97.12
968.00,97.11
967.00,97.11
966.00,97.12
965.00,97.11
964.00,97.10
963.00,97.07
962.00,97.05
961.00,97.04
960.00,97.03
959.00,97.02
958.00,97.01
957.00,97.01
956.00,97.03
955.00,97.05
954.00,97.06
953.00,97.07
952.00,97.09
951.00,97.11
950.00,97.13
949.00,97.15
948.00,97.16
947.00,97.18
946.00,97.21
945.00,97.23
944.00,97.24
943.00,97.22
942.00,97.20
941.00,97.20
940.00,97.20
939.00,97.21
938.00,97.21
937.00,97.22
936.00,97.23
935.00,97.25
934.00,97.26
933.00,97.25
932.00,97.25
931.00,97.25
930.00,97.27
929.00,97.29
928.00,97.30
927.00,97.31
926.00,97.33
925.00,97.36
924.00,97.39
923.00,97.41
922.00,97.42
921.00,97.42
920.00,97.43
919.00,97.44
918.00,97.46
917.00,97.46
916.00,97.45
915.00,97.44
914.00,97.43
913.00,97.45
912.00,97.47
911.00,97.48
910.00,97.50
909.00,97.52
908.00,97.55
907.00,97.59
906.00,97.62
905.00,97.62
904.00,97.62
903.00,97.61
902.00,97.61
901.00,97.61
900.00,97.61
899.00,97.62
898.00,97.63
897.00,97.63
896.00,97.63
895.00,97.62
894.00,97.63
893.00,97.66
892.00,97.70
891.00,97.72
890.00,97.71
889.00,97.69
888.00,97.67
887.00,97.67
886.00,97.69
885.00,97.69
884.00,97.68
883.00,97.69
882.00,97.72
881.00,97.75
880.00,97.78
879.00,97.77
878.00,97.75
877.00,97.72
876.00,97.68
875.00,97.65
874.00,97.64
873.00,97.64
872.00,97.66
871.00,97.67
870.00,97.67
869.00,97.67
868.00,97.67
867.00,97.67
866.00,97.68
865.00,97.69
864.00,97.70
863.00,97.69
862.00,97.67
861.00,97.65
860.00,97.64
859.00,97.63
858.00,97.63
857.00,97.64
856.00,97.67
855.00,97.69
854.00,97.69
853.00,97.68
852.00,97.66
851.00,97.64
850.00,97.64
849.00,97.65
848.00,97.64
847.00,97.62
846.00,97.60
845.00,97.60
844.00,97.61
843.00,97.63
842.00,97.64
841.00,97.64
840.00,97.64
839.00,97.63
838.00,97.60
837.00,97.57
836.00,97.58
835.00,97.62
834.00,97.68
833.00,97.72
832.00,97.73
831.00,97.69
830.00,97.64
829.00,97.60
828.00,97.59
827.00,97.60
826.00,97.63
825.00,97.67
824.00,97.71
823.00,97.74
822.00,97.75
821.00,97.74
820.00,97.72
819.00,97.70
818.00,97.70
817.00,97.73
816.00,97.77
815.00,97.80
814.00,97.81
813.00,97.80
812.00,97.78
811.00,97.76
810.00,97.73
809.00,97.71
808.00,97.70
807.00,97.70
806.00,97.73
805.00,97.75
804.00,97.78
803.00,97.78
802.00,97.75
801.00,97.72
800.00,97.70
799.00,97.71
798.00,97.72
797.00,97.73
796.00,97.73
795.00,97.72
794.00,97.71
793.00,97.68
792.00,97.67
791.00,97.67
790.00,97.71
789.00,97.73
788.00,97.73
787.00,97.69
786.00,97.65
785.00,97.63
784.00,97.64
783.00,97.67
782.00,97.68
781.00,97.69
780.00,97.67
779.00,97.64
778.00,97.62
777.00,97.61
776.00,97.61
775.00,97.62
774.00,97.64
773.00,97.67
772.00,97.70
771.00,97.70
770.00,97.68
769.00,97.65
768.00,97.62
767.00,97.60
766.00,97.57
765.00,97.54
764.00,97.51
763.00,97.49
762.00,97.48
761.00,97.48
760.00,97.49
759.00,97.50
758.00,97.52
757.00,97.55
756.00,97.58
755.00,97.60
754.00,97.59
753.00,97.58
752.00,97.57
751.00,97.57
750.00,97.60
749.00,97.64
748.00,97.71
747.00,97.76
746.00,97.80
745.00,97.83
744.00,97.86
743.00,97.89
742.00,97.91
741.00,97.92
740.00,97.92
739.00,97.93
738.00,97.95
737.00,97.97
736.00,97.99
735.00,98.02
734.00,98.07
733.00,98.12
732.00,98.15
731.00,98.12
730.00,98.06
729.00,98.01
728.00,98.00
727.00,98.03
726.00,98.07
725.00,98.11
724.00,98.14
723.00,98.16
722.00,98.18
721.00,98.20
720.00,98.20
719.00,98.18
718.00,98.14
717.00,98.11
716.00,98.10
715.00,98.12
714.00,98.16
713.00,98.19
712.00,98.19
711.00,98.16
710.00,98.13
709.00,98.11
708.00,98.13
707.00,98.15
706.00,98.16
705.00,98.14
704.00,98.12
703.00,98.11
702.00,98.12
701.00,98.15
700.00,98.16
699.00,98.15
698.00,98.12
697.00,98.09
696.00,98.07
695.00,98.03
694.00,97.98
693.00,97.94
692.00,97.95
691.00,97.96
690.00,97.95
689.00,97.91
688.00,97.89
687.00,97.92
686.00,97.97
685.00,98.00
684.00,98.00
683.00,97.97
682.00,97.96
681.00,97.96
680.00,97.98
679.00,97.98
678.00,97.98
677.00,97.99
676.00,98.03
675.00,98.07
674.00,98.07
673.00,98.04
672.00,98.04
671.00,98.07
670.00,98.12
669.00,98.13
668.00,98.04
667.00,97.95
666.00,97.96
665.00,98.00
664.00,98.04
663.00,98.08
662.00,98.15
661.00,98.21
660.00,98.21
659.00,98.15
658.00,98.10
657.00,98.07
656.00,98.07
655.00,98.07
654.00,98.07
653.00,98.05
652.00,98.00
651.00,97.92
650.00,97.84
649.00,97.82
648.00,97.89
647.00,97.99
646.00,98.06
645.00,98.06
644.00,98.05
643.00,98.07
642.00,98.13
641.00,98.18
640.00,98.15
639.00,98.05
638.00,97.92
637.00,97.80
636.00,97.69
635.00,97.64
634.00,97.64
633.00,97.69
632.00,97.68
631.00,97.57
630.00,97.39
629.00,97.23
628.00,97.18
627.00,97.20
626.00,97.22
625.00,97.17
624.00,97.07
623.00,97.01
622.00,97.06
621.00,97.22
620.00,97.44
619.00,97.68
618.00,97.91
617.00,98.05
616.00,98.01
615.00,97.79
614.00,97.49
613.00,97.27
612.00,97.16
611.00,97.09
610.00,96.98
609.00,96.84
608.00,96.74
607.00,96.75
606.00,96.86
605.00,97.07
604.00,97.43
603.00,97.92
602.00,98.41
601.00,98.68
600.00,98.59
599.00,98.20
598.00,97.82
597.00,97.70
596.00,97.84
595.00,97.99
594.00,97.98
593.00,97.81
592.00,97.62
591.00,97.44
590.00,97.30
589.00,97.26
588.00,97.38
587.00,97.54
586.00,97.49
585.00,97.13
584.00,96.61
583.00,96.12
582.00,95.77
581.00,95.55
580.00,95.39
579.00,95.28
578.00,95.27
577.00,95.43
576.00,95.71
575.00,95.83
574.00,95.62
573.00,95.34
572.00,95.49
571.00,96.23
570.00,97.10
569.00,97.55
568.00,97.50
567.00,97.18
566.00,96.84
565.00,96.54
564.00,96.32
563.00,96.31
562.00,96.66
561.00,97.36
560.00,98.04
559.00,98.22
558.00,97.81
557.00,97.37
556.00,97.50
555.00,98.09
554.00,98.44
553.00,98.22
552.00,97.79
551.00,97.55
550.00,97.44
