Created as New Dataset,Forensic,5
cm-1,%T
4000.00,100.33
3999.00,100.32
3998.00,100.32
3997.00,100.31
3996.00,100.31
3995.00,100.31
3994.00,100.31
3993.00,100.31
3992.00,100.30
3991.00,100.28
3990.00,100.25
3989.00,100.23
3988.00,100.22
3987.00,100.22
3986.00,100.24
3985.00,100.26
3984.00,100.27
3983.00,100.27
3982.00,100.27
3981.00,100.27
3980.00,100.27
3979.00,100.28
3978.00,100.29
3977.00,100.29
3976.00,100.30
3975.00,100.30
3974.00,100.30
3973.00,100.28
3972.00,100.28
3971.00,100.28
3970.00,100.30
3969.00,100.31
3968.00,100.31
3967.00,100.30
3966.00,100.29
3965.00,100.29
3964.00,100.29
3963.00,100.30
3962.00,100.31
3961.00,100.31
3960.00,100.31
3959.00,100.31
3958.00,100.32
3957.00,100.33
3956.00,100.34
3955.00,100.34
3954.00,100.34
3953.00,100.33
3952.00,100.31
3951.00,100.30
3950.00,100.29
3949.00,100.28
3948.00,100.28
3947.00,100.29
3946.00,100.30
3945.00,100.31
3944.00,100.30
3943.00,100.28
3942.00,100.26
3941.00,100.24
3940.00,100.23
3939.00,100.22
3938.00,100.22
3937.00,100.22
3936.00,100.23
3935.00,100.25
3934.00,100.27
3933.00,100.27
3932.00,100.26
3931.00,100.24
3930.00,100.23
3929.00,100.23
3928.00,100.24
3927.00,100.25
3926.00,100.26
3925.00,100.25
3924.00,100.24
3923.00,100.23
3922.00,100.24
3921.00,100.25
3920.00,100.26
3919.00,100.27
3918.00,100.27
3917.00,100.28
3916.00,100.29
3915.00,100.31
3914.00,100.32
3913.00,100.33
3912.00,100.33
3911.00,100.31
3910.00,100.29
3909.00,100.28
3908.00,100.29
3907.00,100.31
3906.00,100.34
3905.00,100.35
3904.00,100.36
3903.00,100.35
3902.00,100.34
3901.00,100.32
3900.00,100.30
3899.00,100.29
3898.00,100.30
3897.00,100.31
3896.00,100.31
3895.00,100.30
3894.00,100.29
3893.00,100.28
3892.00,100.27
3891.00,100.26
3890.00,100.26
3889.00,100.26
3888.00,100.26
3887.00,100.27
3886.00,100.27
3885.00,100.29
3884.00,100.30
3883.00,100.30
3882.00,100.29
3881.00,100.28
3880.00,100.28
3879.00,100.29
3878.00,100.31
3877.00,100.32
3876.00,100.32
3875.00,100.31
3874.00,100.31
3873.00,100.33
3872.00,100.34
3871.00,100.34
3870.00,100.33
3869.00,100.32
3868.00,100.33
3867.00,100.33
3866.00,100.32
3865.00,100.31
3864.00,100.30
3863.00,100.29
3862.00,100.28
3861.00,100.26
3860.00,100.25
3859.00,100.24
3858.00,100.25
3857.00,100.28
3856.00,100.34
3855.00,100.40
3854.00,100.43
3853.00,100.41
3852.00,100.39
3851.00,100.37
3850.00,100.33
3849.00,100.28
3848.00,100.25
3847.00,100.23
3846.00,100.23
3845.00,100.23
3844.00,100.24
3843.00,100.24
3842.00,100.25
3841.00,100.27
3840.00,100.29
3839.00,100.31
3838.00,100.32
3837.00,100.32
3836.00,100.32
3835.00,100.31
3834.00,100.30
3833.00,100.30
3832.00,100.29
3831.00,100.28
3830.00,100.28
3829.00,100.28
3828.00,100.28
3827.00,100.28
3826.00,100.28
3825.00,100.27
3824.00,100.27
3823.00,100.27
3822.00,100.26
3821.00,100.25
3820.00,100.26
3819.00,100.28
3818.00,100.30
3817.00,100.32
3816.00,100.31
3815.00,100.28
3814.00,100.24
3813.00,100.20
3812.00,100.17
3811.00,100.16
3810.00,100.17
3809.00,100.18
3808.00,100.18
3807.00,100.19
3806.00,100.20
3805.00,100.21
3804.00,100.23
3803.00,100.24
3802.00,100.25
3801.00,100.25
3800.00,100.25
3799.00,100.25
3798.00,100.24
3797.00,100.22
3796.00,100.20
3795.00,100.18
3794.00,100.17
3793.00,100.15
3792.00,100.12
3791.00,100.10
3790.00,100.09
3789.00,100.08
3788.00,100.09
3787.00,100.09
3786.00,100.09
3785.00,100.10
3784.00,100.10
3783.00,100.11
3782.00,100.12
3781.00,100.12
3780.00,100.13
3779.00,100.13
3778.00,100.13
3777.00,100.12
3776.00,100.10
3775.00,100.08
3774.00,100.06
3773.00,100.07
3772.00,100.08
3771.00,100.08
3770.00,100.08
3769.00,100.07
3768.00,100.08
3767.00,100.08
3766.00,100.08
3765.00,100.07
3764.00,100.06
3763.00,100.06
3762.00,100.07
3761.00,100.08
3760.00,100.10
3759.00,100.12
3758.00,100.14
3757.00,100.15
3756.00,100.15
3755.00,100.15
3754.00,100.16
3753.00,100.16
3752.00,100.13
3751.00,100.07
3750.00,100.04
3749.00,100.05
3748.00,100.08
3747.00,100.11
3746.00,100.12
3745.00,100.10
3744.00,100.10
3743.00,100.11
3742.00,100.15
3741.00,100.16
3740.00,100.15
3739.00,100.14
3738.00,100.14
3737.00,100.14
3736.00,100.15
3735.00,100.16
3734.00,100.16
3733.00,100.14
3732.00,100.12
3731.00,100.09
3730.00,100.07
3729.00,100.04
3728.00,100.01
3727.00,99.99
3726.00,99.96
3725.00,99.94
3724.00,99.93
3723.00,99.94
3722.00,99.94
3721.00,99.95
3720.00,99.95
3719.00,99.95
3718.00,99.94
3717.00,99.94
3716.00,99.94
3715.00,99.95
3714.00,99.94
3713.00,99.94
3712.00,99.93
3711.00,99.93
3710.00,99.94
3709.00,99.95
3708.00,99.96
3707.00,99.97
3706.00,99.98
3705.00,99.98
3704.00,99.98
3703.00,99.97
3702.00,99.96
3701.00,99.96
3700.00,99.96
3699.00,99.96
3698.00,99.95
3697.00,99.95
3696.00,99.96
3695.00,99.98
3694.00,99.99
3693.00,99.99
3692.00,99.99
3691.00,99.98
3690.00,99.98
3689.00,99.97
3688.00,99.96
3687.00,99.95
3686.00,99.94
3685.00,99.92
3684.00,99.91
3683.00,99.90
3682.00,99.89
3681.00,99.89
3680.00,99.89
3679.00,99.90
3678.00,99.91
3677.00,99.94
3676.00,99.96
3675.00,99.98
3674.00,100.01
3673.00,100.04
3672.00,100.03
3671.00,99.98
3670.00,99.90
3669.00,99.83
3668.00,99.79
3667.00,99.77
3666.00,99.74
3665.00,99.71
3664.00,99.70
3663.00,99.71
3662.00,99.73
3661.00,99.74
3660.00,99.72
3659.00,99.69
3658.00,99.65
3657.00,99.62
3656.00,99.60
3655.00,99.59
3654.00,99.59
3653.00,99.59
3652.00,99.59
3651.00,99.60
3650.00,99.62
3649.00,99.64
3648.00,99.65
3647.00,99.64
3646.00,99.61
3645.00,99.57
3644.00,99.54
3643.00,99.52
3642.00,99.50
3641.00,99.50
3640.00,99.51
3639.00,99.52
3638.00,99.52
3637.00,99.50
3636.00,99.47
3635.00,99.45
3634.00,99.44
3633.00,99.46
3632.00,99.51
3631.00,99.55
3630.00,99.59
3629.00,99.59
3628.00,99.58
3627.00,99.56
3626.00,99.52
3625.00,99.46
3624.00,99.41
3623.00,99.38
3622.00,99.38
3621.00,99.40
3620.00,99.40
3619.00,99.40
3618.00,99.41
3617.00,99.44
3616.00,99.47
3615.00,99.48
3614.00,99.46
3613.00,99.43
3612.00,99.40
3611.00,99.39
3610.00,99.40
3609.00,99.42
3608.00,99.44
3607.00,99.45
3606.00,99.45
3605.00,99.43
3604.00,99.42
3603.00,99.42
3602.00,99.41
3601.00,99.41
3600.00,99.40
3599.00,99.40
3598.00,99.41
3597.00,99.43
3596.00,99.45
3595.00,99.48
3594.00,99.48
3593.00,99.45
3592.00,99.41
3591.00,99.37
3590.00,99.36
3589.00,99.38
3588.00,99.43
3587.00,99.48
3586.00,99.51
3585.00,99.53
3584.00,99.52
3583.00,99.51
3582.00,99.50
3581.00,99.50
3580.00,99.51
3579.00,99.52
3578.00,99.51
3577.00,99.48
3576.00,99.45
3575.00,99.43
3574.00,99.43
3573.00,99.45
3572.00,99.46
3571.00,99.47
3570.00,99.46
3569.00,99.45
3568.00,99.44
3567.00,99.43
3566.00,99.41
3565.00,99.40
3564.00,99.39
3563.00,99.40
3562.00,99.42
3561.00,99.42
3560.00,99.41
3559.00,99.38
3558.00,99.36
3557.00,99.35
3556.00,99.35
3555.00,99.37
3554.00,99.39
3553.00,99.40
3552.00,99.40
3551.00,99.39
3550.00,99.38
3549.00,99.37
3548.00,99.37
3547.00,99.36
3546.00,99.36
3545.00,99.37
3544.00,99.38
3543.00,99.40
3542.00,99.40
3541.00,99.39
3540.00,99.37
3539.00,99.36
3538.00,99.34
3537.00,99.34
3536.00,99.33
3535.00,99.33
3534.00,99.33
3533.00,99.32
3532.00,99.33
3531.00,99.33
3530.00,99.34
3529.00,99.34
3528.00,99.33
3527.00,99.33
3526.00,99.33
3525.00,99.33
3524.00,99.34
3523.00,99.35
3522.00,99.37
3521.00,99.39
3520.00,99.40
3519.00,99.40
3518.00,99.40
3517.00,99.39
3516.00,99.39
3515.00,99.40
3514.00,99.42
3513.00,99.44
3512.00,99.43
3511.00,99.41
3510.00,99.39
3509.00,99.41
3508.00,99.44
3507.00,99.48
3506.00,99.50
3505.00,99.50
3504.00,99.49
3503.00,99.46
3502.00,99.43
3501.00,99.41
3500.00,99.39
3499.00,99.39
3498.00,99.40
3497.00,99.41
3496.00,99.44
3495.00,99.47
3494.00,99.50
3493.00,99.51
3492.00,99.50
3491.00,99.47
3490.00,99.44
3489.00,99.42
3488.00,99.43
3487.00,99.44
3486.00,99.46
3485.00,99.47
3484.00,99.47
3483.00,99.45
3482.00,99.43
3481.00,99.43
3480.00,99.44
3479.00,99.45
3478.00,99.46
3477.00,99.45
3476.00,99.45
3475.00,99.45
3474.00,99.45
3473.00,99.46
3472.00,99.48
3471.00,99.50
3470.00,99.51
3469.00,99.51
3468.00,99.48
3467.00,99.46
3466.00,99.45
3465.00,99.44
3464.00,99.44
3463.00,99.43
3462.00,99.43
3461.00,99.44
3460.00,99.46
3459.00,99.48
3458.00,99.50
3457.00,99.49
3456.00,99.48
3455.00,99.45
3454.00,99.42
3453.00,99.40
3452.00,99.41
3451.00,99.44
3450.00,99.46
3449.00,99.48
3448.00,99.48
3447.00,99.47
3446.00,99.46
3445.00,99.45
3444.00,99.43
3443.00,99.42
3442.00,99.42
3441.00,99.44
3440.00,99.46
3439.00,99.48
3438.00,99.49
3437.00,99.49
3436.00,99.49
3435.00,99.49
3434.00,99.50
3433.00,99.51
3432.00,99.50
3431.00,99.47
3430.00,99.45
3429.00,99.45
3428.00,99.46
3427.00,99.47
3426.00,99.48
3425.00,99.47
3424.00,99.45
3423.00,99.44
3422.00,99.45
3421.00,99.46
3420.00,99.47
3419.00,99.48
3418.00,99.48
3417.00,99.47
3416.00,99.45
3415.00,99.44
3414.00,99.43
3413.00,99.44
3412.00,99.45
3411.00,99.46
3410.00,99.47
3409.00,99.49
3408.00,99.50
3407.00,99.50
3406.00,99.50
3405.00,99.50
3404.00,99.50
3403.00,99.51
3402.00,99.50
3401.00,99.50
3400.00,99.49
3399.00,99.49
3398.00,99.50
3397.00,99.50
3396.00,99.51
3395.00,99.51
3394.00,99.50
3393.00,99.48
3392.00,99.48
3391.00,99.50
3390.00,99.53
3389.00,99.54
3388.00,99.54
3387.00,99.51
3386.00,99.48
3385.00,99.46
3384.00,99.46
3383.00,99.48
3382.00,99.50
3381.00,99.51
3380.00,99.51
3379.00,99.50
3378.00,99.50
3377.00,99.50
3376.00,99.51
3375.00,99.52
3374.00,99.55
3373.00,99.57
3372.00,99.58
3371.00,99.58
3370.00,99.55
3369.00,99.53
3368.00,99.51
3367.00,99.49
3366.00,99.48
3365.00,99.47
3364.00,99.47
3363.00,99.47
3362.00,99.48
3361.00,99.49
3360.00,99.50
3359.00,99.50
3358.00,99.49
3357.00,99.48
3356.00,99.48
3355.00,99.50
3354.00,99.53
3353.00,99.56
3352.00,99.58
3351.00,99.58
3350.00,99.57
3349.00,99.56
3348.00,99.54
3347.00,99.53
3346.00,99.51
3345.00,99.50
3344.00,99.48
3343.00,99.47
3342.00,99.47
3341.00,99.46
3340.00,99.46
3339.00,99.45
3338.00,99.46
3337.00,99.48
3336.00,99.50
3335.00,99.51
3334.00,99.52
3333.00,99.52
3332.00,99.54
3331.00,99.55
3330.00,99.55
3329.00,99.53
3328.00,99.51
3327.00,99.50
3326.00,99.51
3325.00,99.53
3324.00,99.54
3323.00,99.54
3322.00,99.51
3321.00,99.48
3320.00,99.46
3319.00,99.46
3318.00,99.48
3317.00,99.50
3316.00,99.51
3315.00,99.52
3314.00,99.51
3313.00,99.50
3312.00,99.49
3311.00,99.49
3310.00,99.50
3309.00,99.51
3308.00,99.50
3307.00,99.48
3306.00,99.46
3305.00,99.46
3304.00,99.47
3303.00,99.49
3302.00,99.51
3301.00,99.51
3300.00,99.51
3299.00,99.50
3298.00,99.49
3297.00,99.46
3296.00,99.44
3295.00,99.41
3294.00,99.40
3293.00,99.41
3292.00,99.42
3291.00,99.43
3290.00,99.44
3289.00,99.44
3288.00,99.43
3287.00,99.41
3286.00,99.40
3285.00,99.41
3284.00,99.42
3283.00,99.44
3282.00,99.45
3281.00,99.45
3280.00,99.44
3279.00,99.43
3278.00,99.43
3277.00,99.43
3276.00,99.45
3275.00,99.47
3274.00,99.48
3273.00,99.47
3272.00,99.46
3271.00,99.43
3270.00,99.41
3269.00,99.39
3268.00,99.37
3267.00,99.36
3266.00,99.36
3265.00,99.37
3264.00,99.38
3263.00,99.40
3262.00,99.41
3261.00,99.41
3260.00,99.41
3259.00,99.42
3258.00,99.42
3257.00,99.42
3256.00,99.41
3255.00,99.40
3254.00,99.38
3253.00,99.38
3252.00,99.37
3251.00,99.38
3250.00,99.38
3249.00,99.38
3248.00,99.38
3247.00,99.39
3246.00,99.40
3245.00,99.42
3244.00,99.43
3243.00,99.44
3242.00,99.45
3241.00,99.44
3240.00,99.42
3239.00,99.39
3238.00,99.37
3237.00,99.37
3236.00,99.39
3235.00,99.41
3234.00,99.42
3233.00,99.42
3232.00,99.41
3231.00,99.39
3230.00,99.38
3229.00,99.38
3228.00,99.39
3227.00,99.39
3226.00,99.39
3225.00,99.39
3224.00,99.39
3223.00,99.39
3222.00,99.39
3221.00,99.40
3220.00,99.40
3219.00,99.41
3218.00,99.41
3217.00,99.41
3216.00,99.41
3215.00,99.40
3214.00,99.40
3213.00,99.42
3212.00,99.44
3211.00,99.46
3210.00,99.47
3209.00,99.46
3208.00,99.44
3207.00,99.43
3206.00,99.42
3205.00,99.43
3204.00,99.45
3203.00,99.46
3202.00,99.46
3201.00,99.44
3200.00,99.42
3199.00,99.42
3198.00,99.43
3197.00,99.45
3196.00,99.45
3195.00,99.44
3194.00,99.43
3193.00,99.42
3192.00,99.42
3191.00,99.44
3190.00,99.46
3189.00,99.47
3188.00,99.47
3187.00,99.47
3186.00,99.47
3185.00,99.47
3184.00,99.47
3183.00,99.45
3182.00,99.44
3181.00,99.43
3180.00,99.43
3179.00,99.43
3178.00,99.43
3177.00,99.42
3176.00,99.41
3175.00,99.40
3174.00,99.41
3173.00,99.43
3172.00,99.45
3171.00,99.47
3170.00,99.47
3169.00,99.46
3168.00,99.44
3167.00,99.43
3166.00,99.43
3165.00,99.43
3164.00,99.43
3163.00,99.43
3162.00,99.43
3161.00,99.44
3160.00,99.44
3159.00,99.45
3158.00,99.45
3157.00,99.46
3156.00,99.47
3155.00,99.48
3154.00,99.49
3153.00,99.49
3152.00,99.48
3151.00,99.46
3150.00,99.43
3149.00,99.41
3148.00,99.40
3147.00,99.42
3146.00,99.43
3145.00,99.44
3144.00,99.43
3143.00,99.42
3142.00,99.41
3141.00,99.41
3140.00,99.42
3139.00,99.43
3138.00,99.44
3137.00,99.46
3136.00,99.47
3135.00,99.47
3134.00,99.46
3133.00,99.46
3132.00,99.46
3131.00,99.47
3130.00,99.47
3129.00,99.47
3128.00,99.48
3127.00,99.48
3126.00,99.49
3125.00,99.49
3124.00,99.48
3123.00,99.48
3122.00,99.48
3121.00,99.49
3120.00,99.49
3119.00,99.49
3118.00,99.47
3117.00,99.45
3116.00,99.42
3115.00,99.41
3114.00,99.41
3113.00,99.43
3112.00,99.46
3111.00,99.47
3110.00,99.46
3109.00,99.45
3108.00,99.44
3107.00,99.44
3106.00,99.44
3105.00,99.44
3104.00,99.43
3103.00,99.42
3102.00,99.42
3101.00,99.42
3100.00,99.42
3099.00,99.43
3098.00,99.44
3097.00,99.45
3096.00,99.46
3095.00,99.47
3094.00,99.46
3093.00,99.45
3092.00,99.44
3091.00,99.42
3090.00,99.41
3089.00,99.40
3088.00,99.39
3087.00,99.39
3086.00,99.38
3085.00,99.38
3084.00,99.38
3083.00,99.39
3082.00,99.39
3081.00,99.40
3080.00,99.40
3079.00,99.39
3078.00,99.40
3077.00,99.41
3076.00,99.42
3075.00,99.41
3074.00,99.40
3073.00,99.39
3072.00,99.38
3071.00,99.38
3070.00,99.39
3069.00,99.39
3068.00,99.39
3067.00,99.39
3066.00,99.39
3065.00,99.39
3064.00,99.39
3063.00,99.38
3062.00,99.38
3061.00,99.38
3060.00,99.38
3059.00,99.37
3058.00,99.36
3057.00,99.34
3056.00,99.33
3055.00,99.32
3054.00,99.31
3053.00,99.31
3052.00,99.32
3051.00,99.32
3050.00,99.31
3049.00,99.29
3048.00,99.27
3047.00,99.26
3046.00,99.27
3045.00,99.28
3044.00,99.29
3043.00,99.30
3042.00,99.30
3041.00,99.30
3040.00,99.29
3039.00,99.28
3038.00,99.26
3037.00,99.26
3036.00,99.27
3035.00,99.27
3034.00,99.27
3033.00,99.26
3032.00,99.25
3031.00,99.25
3030.00,99.26
3029.00,99.27
3028.00,99.28
3027.00,99.28
3026.00,99.27
3025.00,99.25
3024.00,99.23
3023.00,99.23
3022.00,99.22
3021.00,99.22
3020.00,99.21
3019.00,99.19
3018.00,99.18
3017.00,99.16
3016.00,99.15
3015.00,99.15
3014.00,99.14
3013.00,99.13
3012.00,99.14
3011.00,99.15
3010.00,99.17
3009.00,99.17
3008.00,99.17
3007.00,99.15
3006.00,99.14
3005.00,99.12
3004.00,99.10
3003.00,99.08
3002.00,99.07
3001.00,99.05
3000.00,99.04
2999.00,99.03
2998.00,99.02
2997.00,98.99
2996.00,98.98
2995.00,98.98
2994.00,99.00
2993.00,99.02
2992.00,99.03
2991.00,99.02
2990.00,98.99
2989.00,98.97
2988.00,98.95
2987.00,98.93
2986.00,98.93
2985.00,98.92
2984.00,98.92
2983.00,98.92
2982.00,98.91
2981.00,98.90
2980.00,98.89
2979.00,98.88
2978.00,98.86
2977.00,98.85
2976.00,98.83
2975.00,98.81
2974.00,98.80
2973.00,98.79
2972.00,98.78
2971.00,98.77
2970.00,98.77
2969.00,98.75
2968.00,98.73
2967.00,98.70
2966.00,98.66
2965.00,98.61
2964.00,98.56
2963.00,98.53
2962.00,98.51
2961.00,98.47
2960.00,98.43
2959.00,98.38
2958.00,98.34
2957.00,98.29
2956.00,98.25
2955.00,98.19
2954.00,98.14
2953.00,98.10
2952.00,98.06
2951.00,98.04
2950.00,98.00
2949.00,97.96
2948.00,97.93
2947.00,97.89
2946.00,97.85
2945.00,97.80
2944.00,97.76
2943.00,97.72
2942.00,97.70
2941.00,97.67
2940.00,97.65
2939.00,97.62
2938.00,97.60
2937.00,97.59
2936.00,97.59
2935.00,97.61
2934.00,97.63
2933.00,97.64
2932.00,97.65
2931.00,97.66
2930.00,97.65
2929.00,97.63
2928.00,97.60
2927.00,97.58
2926.00,97.58
2925.00,97.59
2924.00,97.61
2923.00,97.62
2922.00,97.62
2921.00,97.63
2920.00,97.65
2919.00,97.69
2918.00,97.75
2917.00,97.81
2916.00,97.87
2915.00,97.94
2914.00,98.02
2913.00,98.10
2912.00,98.17
2911.00,98.23
2910.00,98.27
2909.00,98.31
2908.00,98.34
2907.00,98.37
2906.00,98.39
2905.00,98.43
2904.00,98.47
2903.00,98.51
2902.00,98.55
2901.00,98.59
2900.00,98.62
2899.00,98.64
2898.00,98.65
2897.00,98.66
2896.00,98.68
2895.00,98.69
2894.00,98.71
2893.00,98.73
2892.00,98.76
2891.00,98.78
2890.00,98.79
2889.00,98.80
2888.00,98.80
2887.00,98.81
2886.00,98.82
2885.00,98.84
2884.00,98.85
2883.00,98.85
2882.00,98.85
2881.00,98.85
2880.00,98.85
2879.00,98.85
2878.00,98.86
2877.00,98.86
2876.00,98.86
2875.00,98.84
2874.00,98.81
2873.00,98.79
2872.00,98.78
2871.00,98.78
2870.00,98.79
2869.00,98.81
2868.00,98.82
2867.00,98.83
2866.00,98.84
2865.00,98.83
2864.00,98.82
2863.00,98.82
2862.00,98.81
2861.00,98.81
2860.00,98.81
2859.00,98.82
2858.00,98.83
2857.00,98.85
2856.00,98.88
2855.00,98.90
2854.00,98.90
2853.00,98.88
2852.00,98.86
2851.00,98.85
2850.00,98.86
2849.00,98.89
2848.00,98.93
2847.00,98.97
2846.00,99.02
2845.00,99.05
2844.00,99.09
2843.00,99.12
2842.00,99.14
2841.00,99.16
2840.00,99.18
2839.00,99.19
2838.00,99.20
2837.00,99.21
2836.00,99.20
2835.00,99.20
2834.00,99.21
2833.00,99.22
2832.00,99.22
2831.00,99.21
2830.00,99.20
2829.00,99.21
2828.00,99.23
2827.00,99.24
2826.00,99.26
2825.00,99.26
2824.00,99.26
2823.00,99.25
2822.00,99.25
2821.00,99.25
2820.00,99.26
2819.00,99.26
2818.00,99.27
2817.00,99.27
2816.00,99.28
2815.00,99.28
2814.00,99.28
2813.00,99.27
2812.00,99.26
2811.00,99.25
2810.00,99.25
2809.00,99.26
2808.00,99.27
2807.00,99.28
2806.00,99.28
2805.00,99.27
2804.00,99.27
2803.00,99.28
2802.00,99.29
2801.00,99.30
2800.00,99.30
2799.00,99.29
2798.00,99.28
2797.00,99.28
2796.00,99.27
2795.00,99.27
2794.00,99.26
2793.00,99.25
2792.00,99.25
2791.00,99.27
2790.00,99.29
2789.00,99.30
2788.00,99.30
2787.00,99.31
2786.00,99.31
2785.00,99.32
2784.00,99.33
2783.00,99.33
2782.00,99.33
2781.00,99.33
2780.00,99.33
2779.00,99.33
2778.00,99.33
2777.00,99.34
2776.00,99.35
2775.00,99.36
2774.00,99.36
2773.00,99.35
2772.00,99.35
2771.00,99.35
2770.00,99.36
2769.00,99.37
2768.00,99.37
2767.00,99.36
2766.00,99.35
2765.00,99.34
2764.00,99.34
2763.00,99.34
2762.00,99.34
2761.00,99.35
2760.00,99.36
2759.00,99.35
2758.00,99.35
2757.00,99.35
2756.00,99.35
2755.00,99.35
2754.00,99.34
2753.00,99.33
2752.00,99.32
2751.00,99.31
2750.00,99.31
2749.00,99.32
2748.00,99.33
2747.00,99.33
2746.00,99.33
2745.00,99.33
2744.00,99.33
2743.00,99.34
2742.00,99.33
2741.00,99.32
2740.00,99.31
2739.00,99.30
2738.00,99.30
2737.00,99.29
2736.00,99.29
2735.00,99.29
2734.00,99.29
2733.00,99.29
2732.00,99.29
2731.00,99.29
2730.00,99.30
2729.00,99.32
2728.00,99.34
2727.00,99.35
2726.00,99.36
2725.00,99.36
2724.00,99.35
2723.00,99.33
2722.00,99.33
2721.00,99.32
2720.00,99.32
2719.00,99.32
2718.00,99.32
2717.00,99.32
2716.00,99.32
2715.00,99.33
2714.00,99.34
2713.00,99.34
2712.00,99.33
2711.00,99.32
2710.00,99.30
2709.00,99.29
2708.00,99.30
2707.00,99.31
2706.00,99.32
2705.00,99.33
2704.00,99.33
2703.00,99.32
2702.00,99.32
2701.00,99.33
2700.00,99.35
2699.00,99.35
2698.00,99.33
2697.00,99.31
2696.00,99.30
2695.00,99.29
2694.00,99.30
2693.00,99.31
2692.00,99.31
2691.00,99.30
2690.00,99.29
2689.00,99.29
2688.00,99.29
2687.00,99.29
2686.00,99.29
2685.00,99.29
2684.00,99.29
2683.00,99.29
2682.00,99.29
2681.00,99.29
2680.00,99.29
2679.00,99.29
2678.00,99.29
2677.00,99.28
2676.00,99.27
2675.00,99.26
2674.00,99.26
2673.00,99.27
2672.00,99.28
2671.00,99.29
2670.00,99.29
2669.00,99.29
2668.00,99.30
2667.00,99.30
2666.00,99.30
2665.00,99.29
2664.00,99.27
2663.00,99.25
2662.00,99.24
2661.00,99.22
2660.00,99.22
2659.00,99.21
2658.00,99.21
2657.00,99.22
2656.00,99.22
2655.00,99.21
2654.00,99.19
2653.00,99.17
2652.00,99.15
2651.00,99.15
2650.00,99.15
2649.00,99.16
2648.00,99.15
2647.00,99.15
2646.00,99.14
2645.00,99.14
2644.00,99.14
2643.00,99.13
2642.00,99.12
2641.00,99.11
2640.00,99.09
2639.00,99.07
2638.00,99.05
2637.00,99.04
2636.00,99.04
2635.00,99.04
2634.00,99.03
2633.00,99.04
2632.00,99.04
2631.00,99.05
2630.00,99.06
2629.00,99.06
2628.00,99.06
2627.00,99.05
2626.00,99.04
2625.00,99.03
2624.00,99.02
2623.00,99.02
2622.00,99.02
2621.00,99.02
2620.00,99.01
2619.00,99.00
2618.00,98.99
2617.00,99.00
2616.00,99.01
2615.00,99.02
2614.00,99.01
2613.00,98.99
2612.00,98.98
2611.00,98.99
2610.00,98.99
2609.00,99.00
2608.00,98.99
2607.00,98.97
2606.00,98.94
2605.00,98.93
2604.00,98.93
2603.00,98.94
2602.00,98.95
2601.00,98.95
2600.00,98.94
2599.00,98.93
2598.00,98.92
2597.00,98.91
2596.00,98.90
2595.00,98.91
2594.00,98.92
2593.00,98.93
2592.00,98.94
2591.00,98.94
2590.00,98.95
2589.00,98.94
2588.00,98.92
2587.00,98.90
2586.00,98.87
2585.00,98.86
2584.00,98.85
2583.00,98.84
2582.00,98.84
2581.00,98.85
2580.00,98.88
2579.00,98.91
2578.00,98.92
2577.00,98.90
2576.00,98.86
2575.00,98.83
2574.00,98.81
2573.00,98.81
2572.00,98.83
2571.00,98.84
2570.00,98.85
2569.00,98.86
2568.00,98.86
2567.00,98.86
2566.00,98.85
2565.00,98.84
2564.00,98.84
2563.00,98.85
2562.00,98.85
2561.00,98.85
2560.00,98.85
2559.00,98.83
2558.00,98.81
2557.00,98.79
2556.00,98.77
2555.00,98.76
2554.00,98.78
2553.00,98.80
2552.00,98.83
2551.00,98.84
2550.00,98.83
2549.00,98.81
2548.00,98.79
2547.00,98.78
2546.00,98.79
2545.00,98.80
2544.00,98.82
2543.00,98.83
2542.00,98.82
2541.00,98.81
2540.00,98.80
2539.00,98.80
2538.00,98.82
2537.00,98.83
2536.00,98.83
2535.00,98.82
2534.00,98.80
2533.00,98.79
2532.00,98.78
2531.00,98.77
2530.00,98.77
2529.00,98.77
2528.00,98.77
2527.00,98.77
2526.00,98.77
2525.00,98.78
2524.00,98.79
2523.00,98.81
2522.00,98.82
2521.00,98.82
2520.00,98.80
2519.00,98.79
2518.00,98.78
2517.00,98.79
2516.00,98.80
2515.00,98.81
2514.00,98.79
2513.00,98.77
2512.00,98.74
2511.00,98.73
2510.00,98.75
2509.00,98.78
2508.00,98.82
2507.00,98.85
2506.00,98.85
2505.00,98.83
2504.00,98.80
2503.00,98.79
2502.00,98.79
2501.00,98.79
2500.00,98.80
2499.00,98.81
2498.00,98.81
2497.00,98.80
2496.00,98.78
2495.00,98.77
2494.00,98.76
2493.00,98.76
2492.00,98.77
2491.00,98.79
2490.00,98.81
2489.00,98.82
2488.00,98.83
2487.00,98.83
2486.00,98.82
2485.00,98.81
2484.00,98.79
2483.00,98.78
2482.00,98.78
2481.00,98.77
2480.00,98.77
2479.00,98.77
2478.00,98.77
2477.00,98.78
2476.00,98.78
2475.00,98.78
2474.00,98.77
2473.00,98.76
2472.00,98.76
2471.00,98.77
2470.00,98.77
2469.00,98.77
2468.00,98.77
2467.00,98.78
2466.00,98.78
2465.00,98.79
2464.00,98.79
2463.00,98.80
2462.00,98.80
2461.00,98.81
2460.00,98.80
2459.00,98.79
2458.00,98.77
2457.00,98.75
2456.00,98.74
2455.00,98.75
2454.00,98.77
2453.00,98.78
2452.00,98.78
2451.00,98.77
2450.00,98.75
2449.00,98.75
2448.00,98.75
2447.00,98.76
2446.00,98.76
2445.00,98.77
2444.00,98.79
2443.00,98.81
2442.00,98.83
2441.00,98.83
2440.00,98.82
2439.00,98.80
2438.00,98.78
2437.00,98.77
2436.00,98.77
2435.00,98.76
2434.00,98.76
2433.00,98.76
2432.00,98.78
2431.00,98.81
2430.00,98.83
2429.00,98.85
2428.00,98.86
2427.00,98.85
2426.00,98.85
2425.00,98.83
2424.00,98.82
2423.00,98.80
2422.00,98.80
2421.00,98.80
2420.00,98.81
2419.00,98.82
2418.00,98.83
2417.00,98.84
2416.00,98.85
2415.00,98.85
2414.00,98.85
2413.00,98.85
2412.00,98.84
2411.00,98.84
2410.00,98.83
2409.00,98.83
2408.00,98.85
2407.00,98.86
2406.00,98.87
2405.00,98.87
2404.00,98.86
2403.00,98.85
2402.00,98.86
2401.00,98.87
2400.00,98.89
2399.00,98.90
2398.00,98.91
2397.00,98.92
2396.00,98.93
2395.00,98.92
2394.00,98.91
2393.00,98.91
2392.00,98.92
2391.00,98.93
2390.00,98.95
2389.00,98.95
2388.00,98.95
2387.00,98.94
2386.00,98.95
2385.00,98.96
2384.00,98.97
2383.00,98.99
2382.00,99.00
2381.00,99.01
2380.00,99.03
2379.00,99.06
2378.00,99.10
2377.00,99.13
2376.00,99.14
2375.00,99.12
2374.00,99.09
2373.00,99.06
2372.00,99.05
2371.00,99.07
2370.00,99.11
2369.00,99.15
2368.00,99.18
2367.00,99.17
2366.00,99.12
2365.00,99.05
2364.00,99.00
2363.00,99.00
2362.00,99.04
2361.00,99.09
2360.00,99.11
2359.00,99.09
2358.00,99.08
2357.00,99.09
2356.00,99.13
2355.00,99.14
2354.00,99.12
2353.00,99.08
2352.00,99.05
2351.00,99.04
2350.00,99.06
2349.00,99.09
2348.00,99.11
2347.00,99.12
2346.00,99.10
2345.00,99.09
2344.00,99.07
2343.00,99.06
2342.00,99.05
2341.00,99.05
2340.00,99.05
2339.00,99.05
2338.00,99.05
2337.00,99.04
2336.00,99.03
2335.00,99.01
2334.00,99.01
2333.00,99.01
2332.00,99.00
2331.00,99.00
2330.00,98.99
2329.00,99.00
2328.00,99.00
2327.00,99.00
2326.00,98.97
2325.00,98.93
2324.00,98.88
2323.00,98.84
2322.00,98.84
2321.00,98.85
2320.00,98.87
2319.00,98.87
2318.00,98.86
2317.00,98.84
2316.00,98.83
2315.00,98.83
2314.00,98.83
2313.00,98.83
2312.00,98.83
2311.00,98.82
2310.00,98.81
2309.00,98.79
2308.00,98.77
2307.00,98.75
2306.00,98.76
2305.00,98.78
2304.00,98.79
2303.00,98.78
2302.00,98.76
2301.00,98.74
2300.00,98.72
2299.00,98.69
2298.00,98.67
2297.00,98.64
2296.00,98.61
2295.00,98.60
2294.00,98.60
2293.00,98.60
2292.00,98.58
2291.00,98.54
2290.00,98.50
2289.00,98.48
2288.00,98.45
2287.00,98.43
2286.00,98.42
2285.00,98.41
2284.00,98.41
2283.00,98.38
2282.00,98.35
2281.00,98.33
2280.00,98.32
2279.00,98.33
2278.00,98.34
2277.00,98.35
2276.00,98.36
2275.00,98.37
2274.00,98.36
2273.00,98.34
2272.00,98.31
2271.00,98.28
2270.00,98.27
2269.00,98.26
2268.00,98.23
2267.00,98.18
2266.00,98.15
2265.00,98.13
2264.00,98.13
2263.00,98.12
2262.00,98.08
2261.00,98.02
2260.00,97.94
2259.00,97.86
2258.00,97.76
2257.00,97.62
2256.00,97.43
2255.00,97.20
2254.00,96.93
2253.00,96.63
2252.00,96.30
2251.00,95.94
2250.00,95.55
2249.00,95.12
2248.00,94.66
2247.00,94.19
2246.00,93.75
2245.00,93.37
2244.00,93.08
2243.00,92.90
2242.00,92.87
2241.00,93.00
2240.00,93.28
2239.00,93.69
2238.00,94.16
2237.00,94.68
2236.00,95.20
2235.00,95.68
2234.00,96.12
2233.00,96.49
2232.00,96.80
2231.00,97.05
2230.00,97.24
2229.00,97.37
2228.00,97.46
2227.00,97.50
2226.00,97.50
2225.00,97.48
2224.00,97.48
2223.00,97.50
2222.00,97.54
2221.00,97.58
2220.00,97.59
2219.00,97.57
2218.00,97.56
2217.00,97.57
2216.00,97.62
2215.00,97.68
2214.00,97.71
2213.00,97.71
2212.00,97.70
2211.00,97.71
2210.00,97.74
2209.00,97.79
2208.00,97.84
2207.00,97.84
2206.00,97.81
2205.00,97.73
2204.00,97.65
2203.00,97.59
2202.00,97.57
2201.00,97.54
2200.00,97.50
2199.00,97.46
2198.00,97.47
2197.00,97.55
2196.00,97.65
2195.00,97.71
2194.00,97.70
2193.00,97.63
2192.00,97.55
2191.00,97.47
2190.00,97.39
2189.00,97.32
2188.00,97.27
2187.00,97.26
2186.00,97.29
2185.00,97.32
2184.00,97.33
2183.00,97.34
2182.00,97.36
2181.00,97.41
2180.00,97.47
2179.00,97.50
2178.00,97.49
2177.00,97.46
2176.00,97.40
2175.00,97.34
2174.00,97.28
2173.00,97.26
2172.00,97.27
2171.00,97.30
2170.00,97.30
2169.00,97.25
2168.00,97.17
2167.00,97.09
2166.00,97.05
2165.00,97.07
2164.00,97.09
2163.00,97.08
2162.00,97.06
2161.00,97.08
2160.00,97.16
2159.00,97.30
2158.00,97.44
2157.00,97.57
2156.00,97.65
2155.00,97.68
2154.00,97.68
2153.00,97.69
2152.00,97.71
2151.00,97.75
2150.00,97.80
2149.00,97.83
2148.00,97.84
2147.00,97.83
2146.00,97.82
2145.00,97.82
2144.00,97.83
2143.00,97.84
2142.00,97.84
2141.00,97.84
2140.00,97.86
2139.00,97.93
2138.00,98.01
2137.00,98.07
2136.00,98.10
2135.00,98.11
2134.00,98.12
2133.00,98.13
2132.00,98.14
2131.00,98.14
2130.00,98.16
2129.00,98.20
2128.00,98.24
2127.00,98.26
2126.00,98.25
2125.00,98.23
2124.00,98.22
2123.00,98.22
2122.00,98.22
2121.00,98.23
2120.00,98.23
2119.00,98.22
2118.00,98.20
2117.00,98.17
2116.00,98.15
2115.00,98.13
2114.00,98.10
2113.00,98.10
2112.00,98.11
2111.00,98.13
2110.00,98.15
2109.00,98.17
2108.00,98.16
2107.00,98.14
2106.00,98.11
2105.00,98.10
2104.00,98.11
2103.00,98.14
2102.00,98.15
2101.00,98.14
2100.00,98.11
2099.00,98.09
2098.00,98.11
2097.00,98.14
2096.00,98.16
2095.00,98.15
2094.00,98.14
2093.00,98.13
2092.00,98.12
2091.00,98.11
2090.00,98.09
2089.00,98.08
2088.00,98.09
2087.00,98.12
2086.00,98.14
2085.00,98.13
2084.00,98.11
2083.00,98.07
2082.00,98.06
2081.00,98.07
2080.00,98.08
2079.00,98.08
2078.00,98.05
2077.00,98.02
2076.00,98.00
2075.00,98.02
2074.00,98.06
2073.00,98.09
2072.00,98.08
2071.00,98.05
2070.00,98.01
2069.00,97.98
2068.00,97.98
2067.00,97.98
2066.00,97.99
2065.00,97.97
2064.00,97.94
2063.00,97.91
2062.00,97.88
2061.00,97.87
2060.00,97.87
2059.00,97.88
2058.00,97.90
2057.00,97.91
2056.00,97.91
2055.00,97.89
2054.00,97.83
2053.00,97.76
2052.00,97.68
2051.00,97.63
2050.00,97.60
2049.00,97.62
2048.00,97.64
2047.00,97.64
2046.00,97.60
2045.00,97.54
2044.00,97.48
2043.00,97.43
2042.00,97.39
2041.00,97.36
2040.00,97.34
2039.00,97.33
2038.00,97.34
2037.00,97.34
2036.00,97.32
2035.00,97.29
2034.00,97.27
2033.00,97.29
2032.00,97.34
2031.00,97.38
2030.00,97.37
2029.00,97.35
2028.00,97.32
2027.00,97.31
2026.00,97.31
2025.00,97.33
2024.00,97.35
2023.00,97.35
2022.00,97.34
2021.00,97.34
2020.00,97.34
2019.00,97.35
2018.00,97.35
2017.00,97.35
2016.00,97.35
2015.00,97.35
2014.00,97.35
2013.00,97.35
2012.00,97.37
2011.00,97.39
2010.00,97.42
2009.00,97.43
2008.00,97.44
2007.00,97.44
2006.00,97.45
2005.00,97.50
2004.00,97.56
2003.00,97.61
2002.00,97.64
2001.00,97.65
2000.00,97.65
1999.00,97.66
1998.00,97.63
1997.00,97.58
1996.00,97.54
1995.00,97.56
1994.00,97.62
1993.00,97.67
1992.00,97.67
1991.00,97.61
1990.00,97.53
1989.00,97.49
1988.00,97.48
1987.00,97.50
1986.00,97.53
1985.00,97.55
1984.00,97.55
1983.00,97.49
1982.00,97.40
1981.00,97.33
1980.00,97.32
1979.00,97.37
1978.00,97.46
1977.00,97.53
1976.00,97.56
1975.00,97.56
1974.00,97.56
1973.00,97.57
1972.00,97.59
1971.00,97.59
1970.00,97.57
1969.00,97.54
1968.00,97.52
1967.00,97.53
1966.00,97.56
1965.00,97.61
1964.00,97.67
1963.00,97.70
1962.00,97.69
1961.00,97.68
1960.00,97.68
1959.00,97.73
1958.00,97.81
1957.00,97.88
1956.00,97.93
1955.00,97.95
1954.00,97.94
1953.00,97.92
1952.00,97.91
1951.00,97.92
1950.00,97.92
1949.00,97.93
1948.00,97.93
1947.00,97.94
1946.00,97.97
1945.00,98.00
1944.00,98.01
1943.00,97.99
1942.00,97.97
1941.00,97.97
1940.00,97.99
1939.00,98.03
1938.00,98.06
1937.00,98.09
1936.00,98.12
1935.00,98.15
1934.00,98.18
1933.00,98.20
1932.00,98.21
1931.00,98.20
1930.00,98.18
1929.00,98.17
1928.00,98.18
1927.00,98.20
1926.00,98.22
1925.00,98.22
1924.00,98.21
1923.00,98.20
1922.00,98.20
1921.00,98.20
1920.00,98.21
1919.00,98.24
1918.00,98.27
1917.00,98.31
1916.00,98.33
1915.00,98.33
1914.00,98.33
1913.00,98.34
1912.00,98.36
1911.00,98.37
1910.00,98.37
1909.00,98.36
1908.00,98.36
1907.00,98.37
1906.00,98.38
1905.00,98.40
1904.00,98.41
1903.00,98.41
1902.00,98.40
1901.00,98.41
1900.00,98.43
1899.00,98.45
1898.00,98.48
1897.00,98.49
1896.00,98.48
1895.00,98.47
1894.00,98.45
1893.00,98.44
1892.00,98.43
1891.00,98.43
1890.00,98.43
1889.00,98.45
1888.00,98.48
1887.00,98.51
1886.00,98.53
1885.00,98.54
1884.00,98.54
1883.00,98.53
1882.00,98.52
1881.00,98.50
1880.00,98.48
1879.00,98.46
1878.00,98.45
1877.00,98.45
1876.00,98.47
1875.00,98.48
1874.00,98.49
1873.00,98.49
1872.00,98.49
1871.00,98.49
1870.00,98.49
1869.00,98.51
1868.00,98.53
1867.00,98.56
1866.00,98.58
1865.00,98.59
1864.00,98.57
1863.00,98.54
1862.00,98.51
1861.00,98.50
1860.00,98.51
1859.00,98.53
1858.00,98.54
1857.00,98.53
1856.00,98.51
1855.00,98.50
1854.00,98.52
1853.00,98.56
1852.00,98.61
1851.00,98.65
1850.00,98.67
1849.00,98.68
1848.00,98.67
1847.00,98.66
1846.00,98.65
1845.00,98.64
1844.00,98.64
1843.00,98.65
1842.00,98.66
1841.00,98.69
1840.00,98.71
1839.00,98.72
1838.00,98.71
1837.00,98.70
1836.00,98.68
1835.00,98.67
1834.00,98.66
1833.00,98.65
1832.00,98.65
1831.00,98.65
1830.00,98.66
1829.00,98.68
1828.00,98.70
1827.00,98.71
1826.00,98.71
1825.00,98.69
1824.00,98.68
1823.00,98.68
1822.00,98.69
1821.00,98.69
1820.00,98.70
1819.00,98.71
1818.00,98.73
1817.00,98.75
1816.00,98.77
1815.00,98.80
1814.00,98.81
1813.00,98.81
1812.00,98.80
1811.00,98.79
1810.00,98.78
1809.00,98.77
1808.00,98.78
1807.00,98.78
1806.00,98.77
1805.00,98.77
1804.00,98.77
1803.00,98.78
1802.00,98.77
1801.00,98.77
1800.00,98.77
1799.00,98.77
1798.00,98.78
1797.00,98.79
1796.00,98.81
1795.00,98.82
1794.00,98.82
1793.00,98.81
1792.00,98.79
1791.00,98.78
1790.00,98.78
1789.00,98.79
1788.00,98.79
1787.00,98.78
1786.00,98.78
1785.00,98.78
1784.00,98.78
1783.00,98.79
1782.00,98.80
1781.00,98.81
1780.00,98.81
1779.00,98.81
1778.00,98.80
1777.00,98.80
1776.00,98.80
1775.00,98.80
1774.00,98.79
1773.00,98.78
1772.00,98.76
1771.00,98.75
1770.00,98.75
1769.00,98.76
1768.00,98.77
1767.00,98.77
1766.00,98.76
1765.00,98.75
1764.00,98.74
1763.00,98.73
1762.00,98.72
1761.00,98.70
1760.00,98.67
1759.00,98.63
1758.00,98.59
1757.00,98.53
1756.00,98.47
1755.00,98.40
1754.00,98.32
1753.00,98.21
1752.00,98.07
1751.00,97.90
1750.00,97.71
1749.00,97.49
1748.00,97.25
1747.00,96.98
1746.00,96.69
1745.00,96.39
1744.00,96.06
1743.00,95.71
1742.00,95.36
1741.00,94.98
1740.00,94.59
1739.00,94.21
1738.00,93.89
1737.00,93.62
1736.00,93.35
1735.00,93.06
1734.00,92.79
1733.00,92.62
1732.00,92.53
1731.00,92.48
1730.00,92.47
1729.00,92.50
1728.00,92.58
1727.00,92.70
1726.00,92.85
1725.00,93.06
1724.00,93.32
1723.00,93.60
1722.00,93.88
1721.00,94.13
1720.00,94.39
1719.00,94.71
1718.00,95.11
1717.00,95.52
1716.00,95.86
1715.00,96.13
1714.00,96.35
1713.00,96.54
1712.00,96.70
1711.00,96.84
1710.00,96.97
1709.00,97.08
1708.00,97.17
1707.00,97.27
1706.00,97.39
1705.00,97.49
1704.00,97.56
1703.00,97.60
1702.00,97.64
1701.00,97.68
1700.00,97.73
1699.00,97.77
1698.00,97.80
1697.00,97.84
1696.00,97.89
1695.00,97.93
1694.00,97.95
1693.00,97.96
1692.00,97.97
1691.00,97.98
1690.00,98.00
1689.00,98.02
1688.00,98.04
1687.00,98.06
1686.00,98.08
1685.00,98.07
1684.00,98.07
1683.00,98.09
1682.00,98.10
1681.00,98.11
1680.00,98.11
1679.00,98.12
1678.00,98.12
1677.00,98.12
1676.00,98.13
1675.00,98.13
1674.00,98.14
1673.00,98.14
1672.00,98.13
1671.00,98.12
1670.00,98.12
1669.00,98.13
1668.00,98.15
1667.00,98.17
1666.00,98.18
1665.00,98.19
1664.00,98.19
1663.00,98.20
1662.00,98.21
1661.00,98.20
1660.00,98.18
1659.00,98.16
1658.00,98.14
1657.00,98.14
1656.00,98.14
1655.00,98.14
1654.00,98.15
1653.00,98.13
1652.00,98.10
1651.00,98.07
1650.00,98.06
1649.00,98.05
1648.00,98.04
1647.00,98.03
1646.00,98.02
1645.00,97.99
1644.00,97.96
1643.00,97.93
1642.00,97.92
1641.00,97.91
1640.00,97.89
1639.00,97.87
1638.00,97.85
1637.00,97.84
1636.00,97.83
1635.00,97.81
1634.00,97.80
1633.00,97.78
1632.00,97.77
1631.00,97.77
1630.00,97.76
1629.00,97.75
1628.00,97.74
1627.00,97.74
1626.00,97.76
1625.00,97.77
1624.00,97.77
1623.00,97.76
1622.00,97.76
1621.00,97.75
1620.00,97.75
1619.00,97.76
1618.00,97.79
1617.00,97.82
1616.00,97.85
1615.00,97.88
1614.00,97.91
1613.00,97.92
1612.00,97.94
1611.00,97.96
1610.00,97.99
1609.00,98.02
1608.00,98.04
1607.00,98.07
1606.00,98.09
1605.00,98.11
1604.00,98.12
1603.00,98.13
1602.00,98.16
1601.00,98.19
1600.00,98.22
1599.00,98.24
1598.00,98.25
1597.00,98.26
1596.00,98.27
1595.00,98.28
1594.00,98.29
1593.00,98.31
1592.00,98.32
1591.00,98.34
1590.00,98.35
1589.00,98.35
1588.00,98.35
1587.00,98.34
1586.00,98.35
1585.00,98.36
1584.00,98.37
1583.00,98.37
1582.00,98.37
1581.00,98.36
1580.00,98.35
1579.00,98.36
1578.00,98.37
1577.00,98.39
1576.00,98.40
1575.00,98.40
1574.00,98.40
1573.00,98.40
1572.00,98.41
1571.00,98.43
1570.00,98.44
1569.00,98.46
1568.00,98.46
1567.00,98.46
1566.00,98.46
1565.00,98.46
1564.00,98.46
1563.00,98.47
1562.00,98.49
1561.00,98.50
1560.00,98.51
1559.00,98.51
1558.00,98.52
1557.00,98.50
1556.00,98.48
1555.00,98.47
1554.00,98.47
1553.00,98.47
1552.00,98.47
1551.00,98.47
1550.00,98.47
1549.00,98.47
1548.00,98.46
1547.00,98.46
1546.00,98.46
1545.00,98.46
1544.00,98.46
1543.00,98.46
1542.00,98.45
1541.00,98.43
1540.00,98.44
1539.00,98.46
1538.00,98.47
1537.00,98.48
1536.00,98.49
1535.00,98.51
1534.00,98.52
1533.00,98.52
1532.00,98.53
1531.00,98.54
1530.00,98.55
1529.00,98.55
1528.00,98.55
1527.00,98.56
1526.00,98.56
1525.00,98.56
1524.00,98.56
1523.00,98.58
1522.00,98.60
1521.00,98.61
1520.00,98.60
1519.00,98.59
1518.00,98.59
1517.00,98.60
1516.00,98.61
1515.00,98.62
1514.00,98.62
1513.00,98.61
1512.00,98.60
1511.00,98.60
1510.00,98.63
1509.00,98.66
1508.00,98.70
1507.00,98.72
1506.00,98.69
1505.00,98.63
1504.00,98.57
1503.00,98.56
1502.00,98.58
1501.00,98.59
1500.00,98.60
1499.00,98.60
1498.00,98.60
1497.00,98.62
1496.00,98.63
1495.00,98.64
1494.00,98.65
1493.00,98.65
1492.00,98.65
1491.00,98.65
1490.00,98.65
1489.00,98.66
1488.00,98.66
1487.00,98.65
1486.00,98.63
1485.00,98.59
1484.00,98.55
1483.00,98.53
1482.00,98.53
1481.00,98.54
1480.00,98.54
1479.00,98.52
1478.00,98.48
1477.00,98.44
1476.00,98.41
1475.00,98.39
1474.00,98.36
1473.00,98.29
1472.00,98.21
1471.00,98.13
1470.00,98.05
1469.00,97.95
1468.00,97.81
1467.00,97.63
1466.00,97.37
1465.00,97.00
1464.00,96.57
1463.00,96.15
1462.00,95.75
1461.00,95.32
1460.00,94.85
1459.00,94.29
1458.00,93.62
1457.00,92.89
1456.00,92.33
1455.00,92.00
1454.00,91.79
1453.00,91.65
1452.00,91.56
1451.00,91.56
1450.00,91.62
1449.00,91.74
1448.00,91.93
1447.00,92.17
1446.00,92.40
1445.00,92.62
1444.00,92.85
1443.00,93.10
1442.00,93.35
1441.00,93.59
1440.00,93.80
1439.00,94.00
1438.00,94.22
1437.00,94.49
1436.00,94.79
1435.00,95.06
1434.00,95.27
1433.00,95.47
1432.00,95.69
1431.00,95.94
1430.00,96.20
1429.00,96.45
1428.00,96.66
1427.00,96.82
1426.00,96.96
1425.00,97.09
1424.00,97.23
1423.00,97.34
1422.00,97.42
1421.00,97.48
1420.00,97.55
1419.00,97.62
1418.00,97.69
1417.00,97.75
1416.00,97.80
1415.00,97.84
1414.00,97.86
1413.00,97.88
1412.00,97.89
1411.00,97.89
1410.00,97.91
1409.00,97.93
1408.00,97.95
1407.00,97.97
1406.00,97.99
1405.00,98.01
1404.00,98.02
1403.00,98.01
1402.00,97.98
1401.00,97.96
1400.00,97.95
1399.00,97.93
1398.00,97.91
1397.00,97.89
1396.00,97.86
1395.00,97.81
1394.00,97.74
1393.00,97.67
1392.00,97.59
1391.00,97.51
1390.00,97.44
1389.00,97.38
1388.00,97.33
1387.00,97.29
1386.00,97.24
1385.00,97.18
1384.00,97.12
1383.00,97.05
1382.00,97.00
1381.00,96.95
1380.00,96.91
1379.00,96.87
1378.00,96.82
1377.00,96.77
1376.00,96.73
1375.00,96.69
1374.00,96.66
1373.00,96.61
1372.00,96.55
1371.00,96.48
1370.00,96.42
1369.00,96.37
1368.00,96.33
1367.00,96.29
1366.00,96.25
1365.00,96.22
1364.00,96.19
1363.00,96.17
1362.00,96.16
1361.00,96.14
1360.00,96.12
1359.00,96.10
1358.00,96.10
1357.00,96.11
1356.00,96.12
1355.00,96.12
1354.00,96.11
1353.00,96.11
1352.00,96.13
1351.00,96.15
1350.00,96.19
1349.00,96.23
1348.00,96.27
1347.00,96.31
1346.00,96.36
1345.00,96.41
1344.00,96.46
1343.00,96.50
1342.00,96.54
1341.00,96.58
1340.00,96.63
1339.00,96.68
1338.00,96.72
1337.00,96.76
1336.00,96.79
1335.00,96.82
1334.00,96.85
1333.00,96.88
1332.00,96.91
1331.00,96.94
1330.00,96.95
1329.00,96.96
1328.00,96.96
1327.00,96.97
1326.00,96.97
1325.00,96.98
1324.00,96.99
1323.00,97.00
1322.00,97.00
1321.00,97.00
1320.00,96.99
1319.00,96.98
1318.00,96.98
1317.00,96.98
1316.00,96.98
1315.00,96.99
1314.00,97.01
1313.00,97.02
1312.00,97.03
1311.00,97.03
1310.00,97.03
1309.00,97.04
1308.00,97.06
1307.00,97.08
1306.00,97.08
1305.00,97.08
1304.00,97.07
1303.00,97.06
1302.00,97.05
1301.00,97.04
1300.00,97.03
1299.00,97.03
1298.00,97.04
1297.00,97.05
1296.00,97.06
1295.00,97.06
1294.00,97.05
1293.00,97.03
1292.00,97.01
1291.00,96.99
1290.00,96.98
1289.00,96.96
1288.00,96.94
1287.00,96.90
1286.00,96.85
1285.00,96.79
1284.00,96.73
1283.00,96.68
1282.00,96.63
1281.00,96.59
1280.00,96.54
1279.00,96.48
1278.00,96.42
1277.00,96.35
1276.00,96.29
1275.00,96.24
1274.00,96.20
1273.00,96.17
1272.00,96.15
1271.00,96.12
1270.00,96.09
1269.00,96.07
1268.00,96.06
1267.00,96.06
1266.00,96.06
1265.00,96.05
1264.00,96.04
1263.00,96.03
1262.00,96.01
1261.00,96.00
1260.00,95.97
1259.00,95.93
1258.00,95.89
1257.00,95.86
1256.00,95.82
1255.00,95.77
1254.00,95.73
1253.00,95.69
1252.00,95.67
1251.00,95.64
1250.00,95.60
1249.00,95.57
1248.00,95.55
1247.00,95.54
1246.00,95.55
1245.00,95.54
1244.00,95.53
1243.00,95.52
1242.00,95.51
1241.00,95.53
1240.00,95.54
1239.00,95.54
1238.00,95.54
1237.00,95.51
1236.00,95.47
1235.00,95.42
1234.00,95.36
1233.00,95.30
1232.00,95.26
1231.00,95.23
1230.00,95.21
1229.00,95.19
1228.00,95.17
1227.00,95.15
1226.00,95.11
1225.00,95.09
1224.00,95.07
1223.00,95.08
1222.00,95.09
1221.00,95.11
1220.00,95.11
1219.00,95.11
1218.00,95.11
1217.00,95.11
1216.00,95.11
1215.00,95.10
1214.00,95.09
1213.00,95.08
1212.00,95.07
1211.00,95.05
1210.00,95.02
1209.00,94.98
1208.00,94.95
1207.00,94.93
1206.00,94.92
1205.00,94.89
1204.00,94.85
1203.00,94.79
1202.00,94.75
1201.00,94.73
1200.00,94.73
1199.00,94.74
1198.00,94.78
1197.00,94.83
1196.00,94.89
1195.00,94.93
1194.00,94.97
1193.00,95.02
1192.00,95.07
1191.00,95.12
1190.00,95.17
1189.00,95.19
1188.00,95.19
1187.00,95.17
1186.00,95.15
1185.00,95.14
1184.00,95.13
1183.00,95.10
1182.00,95.05
1181.00,94.97
1180.00,94.86
1179.00,94.74
1178.00,94.63
1177.00,94.52
1176.00,94.42
1175.00,94.31
1174.00,94.20
1173.00,94.09
1172.00,93.99
1171.00,93.91
1170.00,93.86
1169.00,93.86
1168.00,93.88
1167.00,93.92
1166.00,93.97
1165.00,94.04
1164.00,94.16
1163.00,94.33
1162.00,94.54
1161.00,94.76
1160.00,94.99
1159.00,95.22
1158.00,95.44
1157.00,95.64
1156.00,95.82
1155.00,95.96
1154.00,96.10
1153.00,96.24
1152.00,96.41
1151.00,96.57
1150.00,96.70
1149.00,96.80
1148.00,96.87
1147.00,96.92
1146.00,96.98
1145.00,97.05
1144.00,97.13
1143.00,97.21
1142.00,97.27
1141.00,97.30
1140.00,97.33
1139.00,97.36
1138.00,97.40
1137.00,97.44
1136.00,97.48
1135.00,97.49
1134.00,97.48
1133.00,97.47
1132.00,97.47
1131.00,97.48
1130.00,97.48
1129.00,97.46
1128.00,97.43
1127.00,97.39
1126.00,97.36
1125.00,97.34
1124.00,97.31
1123.00,97.27
1122.00,97.20
1121.00,97.13
1120.00,97.08
1119.00,97.04
1118.00,97.00
1117.00,96.95
1116.00,96.91
1115.00,96.86
1114.00,96.81
1113.00,96.77
1112.00,96.74
1111.00,96.72
1110.00,96.68
1109.00,96.64
1108.00,96.61
1107.00,96.60
1106.00,96.59
1105.00,96.59
1104.00,96.59
1103.00,96.60
1102.00,96.60
1101.00,96.58
1100.00,96.54
1099.00,96.49
1098.00,96.44
1097.00,96.40
1096.00,96.38
1095.00,96.38
1094.00,96.36
1093.00,96.33
1092.00,96.27
1091.00,96.19
1090.00,96.11
1089.00,96.06
1088.00,96.01
1087.00,95.97
1086.00,95.90
1085.00,95.82
1084.00,95.74
1083.00,95.65
1082.00,95.57
1081.00,95.49
1080.00,95.41
1079.00,95.32
1078.00,95.23
1077.00,95.14
1076.00,95.06
1075.00,95.01
1074.00,94.95
1073.00,94.89
1072.00,94.83
1071.00,94.80
1070.00,94.82
1069.00,94.85
1068.00,94.88
1067.00,94.92
1066.00,94.96
1065.00,95.00
1064.00,95.04
1063.00,95.09
1062.00,95.17
1061.00,95.27
1060.00,95.36
1059.00,95.44
1058.00,95.52
1057.00,95.61
1056.00,95.71
1055.00,95.80
1054.00,95.87
1053.00,95.91
1052.00,95.92
1051.00,95.94
1050.00,95.97
1049.00,96.00
1048.00,96.03
1047.00,96.04
1046.00,96.03
1045.00,96.01
1044.00,95.99
1043.00,95.94
1042.00,95.90
1041.00,95.88
1040.00,95.89
1039.00,95.93
1038.00,95.99
1037.00,96.06
1036.00,96.14
1035.00,96.24
1034.00,96.36
1033.00,96.47
1032.00,96.57
1031.00,96.68
1030.00,96.77
1029.00,96.84
1028.00,96.88
1027.00,96.90
1026.00,96.91
1025.00,96.94
1024.00,96.98
1023.00,97.04
1022.00,97.09
1021.00,97.13
1020.00,97.16
1019.00,97.17
1018.00,97.17
1017.00,97.16
1016.00,97.17
1015.00,97.21
1014.00,97.26
1013.00,97.32
1012.00,97.36
1011.00,97.38
1010.00,97.37
1009.00,97.37
1008.00,97.38
1007.00,97.42
1006.00,97.46
1005.00,97.49
1004.00,97.49
1003.00,97.49
1002.00,97.49
1001.00,97.50
1000.00,97.51
999.00,97.53
998.00,97.56
997.00,97.58
996.00,97.59
995.00,97.58
994.00,97.56
993.00,97.55
992.00,97.56
991.00,97.58
990.00,97.59
989.00,97.60
988.00,97.61
987.00,97.61
986.00,97.62
985.00,97.66
984.00,97.70
983.00,97.73
982.00,97.74
981.00,97.72
980.00,97.70
979.00,97.68
978.00,97.68
977.00,97.69
976.00,97.71
975.00,97.72
974.00,97.71
973.00,97.70
972.00,97.69
971.00,97.68
970.00,97.69
969.00,97.70
968.00,97.70
967.00,97.69
966.00,97.67
965.00,97.65
964.00,97.65
963.00,97.65
962.00,97.63
961.00,97.59
960.00,97.57
959.00,97.58
958.00,97.60
957.00,97.61
956.00,97.62
955.00,97.63
954.00,97.65
953.00,97.66
952.00,97.67
951.00,97.69
950.00,97.72
949.00,97.74
948.00,97.76
947.00,97.78
946.00,97.81
945.00,97.83
944.00,97.83
943.00,97.80
942.00,97.78
941.00,97.78
940.00,97.81
939.00,97.86
938.00,97.91
937.00,97.93
936.00,97.94
935.00,97.94
934.00,97.95
933.00,97.95
932.00,97.95
931.00,97.94
930.00,97.94
929.00,97.94
928.00,97.94
927.00,97.96
926.00,97.99
925.00,98.03
924.00,98.06
923.00,98.05
922.00,98.04
921.00,98.03
920.00,98.04
919.00,98.05
918.00,98.05
917.00,98.07
916.00,98.07
915.00,98.07
914.00,98.06
913.00,98.06
912.00,98.07
911.00,98.09
910.00,98.10
909.00,98.10
908.00,98.10
907.00,98.10
906.00,98.12
905.00,98.14
904.00,98.16
903.00,98.17
902.00,98.17
901.00,98.17
900.00,98.16
899.00,98.15
898.00,98.14
897.00,98.13
896.00,98.15
895.00,98.17
894.00,98.18
893.00,98.16
892.00,98.13
891.00,98.12
890.00,98.14
889.00,98.18
888.00,98.21
887.00,98.22
886.00,98.22
885.00,98.22
884.00,98.21
883.00,98.21
882.00,98.20
881.00,98.20
880.00,98.19
879.00,98.18
878.00,98.18
877.00,98.19
876.00,98.19
875.00,98.20
874.00,98.20
873.00,98.20
872.00,98.19
871.00,98.19
870.00,98.21
869.00,98.26
868.00,98.28
867.00,98.28
866.00,98.24
865.00,98.21
864.00,98.21
863.00,98.23
862.00,98.26
861.00,98.29
860.00,98.30
859.00,98.31
858.00,98.31
857.00,98.31
856.00,98.30
855.00,98.28
854.00,98.27
853.00,98.26
852.00,98.23
851.00,98.19
850.00,98.16
849.00,98.14
848.00,98.11
847.00,98.06
846.00,97.99
845.00,97.94
844.00,97.93
843.00,97.95
842.00,97.97
841.00,98.00
840.00,98.01
839.00,98.00
838.00,97.98
837.00,97.95
836.00,97.95
835.00,97.95
834.00,97.96
833.00,97.95
832.00,97.92
831.00,97.88
830.00,97.86
829.00,97.88
828.00,97.93
827.00,97.99
826.00,98.03
825.00,98.05
824.00,98.06
823.00,98.06
822.00,98.07
821.00,98.10
820.00,98.14
819.00,98.18
818.00,98.18
817.00,98.15
816.00,98.11
815.00,98.09
814.00,98.11
813.00,98.14
812.00,98.14
811.00,98.11
810.00,98.07
809.00,98.04
808.00,98.05
807.00,98.07
806.00,98.11
805.00,98.14
804.00,98.16
803.00,98.15
802.00,98.12
801.00,98.11
800.00,98.12
799.00,98.14
798.00,98.12
797.00,98.08
796.00,98.05
795.00,98.05
794.00,98.08
793.00,98.11
792.00,98.12
791.00,98.11
790.00,98.08
789.00,98.07
788.00,98.08
787.00,98.08
786.00,98.07
785.00,98.04
784.00,98.02
783.00,98.00
782.00,97.99
781.00,98.01
780.00,98.03
779.00,98.05
778.00,98.03
777.00,98.00
776.00,97.96
775.00,97.94
774.00,97.93
773.00,97.94
772.00,97.97
771.00,98.01
770.00,98.03
769.00,98.02
768.00,98.00
767.00,97.97
766.00,97.95
765.00,97.96
764.00,97.98
763.00,98.01
762.00,98.03
761.00,98.02
760.00,98.01
759.00,98.00
758.00,98.01
757.00,98.02
756.00,98.03
755.00,98.05
754.00,98.08
753.00,98.11
752.00,98.10
751.00,98.09
750.00,98.10
749.00,98.14
748.00,98.19
747.00,98.24
746.00,98.28
745.00,98.32
744.00,98.37
743.00,98.41
742.00,98.45
741.00,98.49
740.00,98.52
739.00,98.57
738.00,98.62
737.00,98.66
736.00,98.65
735.00,98.64
734.00,98.68
733.00,98.82
732.00,98.98
731.00,99.06
730.00,99.01
729.00,98.88
728.00,98.78
727.00,98.75
726.00,98.78
725.00,98.81
724.00,98.81
723.00,98.79
722.00,98.79
721.00,98.83
720.00,98.91
719.00,98.98
718.00,99.02
717.00,99.04
716.00,99.03
715.00,99.01
714.00,98.96
713.00,98.90
712.00,98.87
711.00,98.88
710.00,98.92
709.00,98.98
708.00,99.04
707.00,99.07
706.00,99.05
705.00,99.01
704.00,98.97
703.00,98.96
702.00,98.97
701.00,98.97
700.00,98.97
699.00,98.95
698.00,98.94
697.00,98.93
696.00,98.92
695.00,98.91
694.00,98.88
693.00,98.85
692.00,98.84
691.00,98.85
690.00,98.86
689.00,98.85
688.00,98.84
687.00,98.82
686.00,98.83
685.00,98.84
684.00,98.84
683.00,98.81
682.00,98.77
681.00,98.75
680.00,98.75
679.00,98.76
678.00,98.77
677.00,98.79
676.00,98.84
675.00,98.89
674.00,98.92
673.00,98.90
672.00,98.86
671.00,98.83
670.00,98.83
669.00,98.85
668.00,98.85
667.00,98.83
666.00,98.84
665.00,98.88
664.00,98.89
663.00,98.83
662.00,98.74
661.00,98.71
660.00,98.72
659.00,98.71
658.00,98.67
657.00,98.63
656.00,98.67
655.00,98.77
654.00,98.88
653.00,98.96
652.00,98.99
651.00,98.93
650.00,98.79
649.00,98.65
648.00,98.60
647.00,98.65
646.00,98.69
645.00,98.65
644.00,98.54
643.00,98.45
642.00,98.45
641.00,98.57
640.00,98.75
639.00,98.92
638.00,99.01
637.00,99.02
636.00,98.99
635.00,98.94
634.00,98.84
633.00,98.69
632.00,98.51
631.00,98.36
630.00,98.26
629.00,98.25
628.00,98.38
627.00,98.61
626.00,98.79
625.00,98.81
624.00,98.74
623.00,98.78
622.00,99.04
621.00,99.38
620.00,99.52
619.00,99.33
618.00,98.91
617.00,98.46
616.00,98.14
615.00,98.09
614.00,98.39
613.00,98.92
612.00,99.34
611.00,99.35
610.00,99.01
609.00,98.63
608.00,98.42
607.00,98.35
606.00,98.31
605.00,98.32
604.00,98.33
603.00,98.16
602.00,97.66
601.00,97.08
600.00,96.86
599.00,97.22
598.00,97.86
597.00,98.34
596.00,98.54
595.00,98.64
594.00,98.82
593.00,99.04
592.00,99.18
591.00,99.19
590.00,99.14
589.00,99.09
588.00,99.08
587.00,99.11
586.00,99.12
585.00,99.11
584.00,99.06
583.00,98.95
582.00,98.65
581.00,98.11
580.00,97.44
579.00,97.05
578.00,97.18
577.00,97.64
576.00,97.95
575.00,97.90
574.00,97.86
573.00,98.22
572.00,98.86
571.00,99.10
570.00,98.51
569.00,97.57
568.00,97.08
567.00,97.29
566.00,97.69
565.00,97.69
564.00,97.21
563.00,96.53
562.00,95.82
561.00,95.23
560.00,95.06
559.00,95.66
558.00,96.88
557.00,98.00
556.00,98.40
555.00,97.98
554.00,97.27
553.00,96.80
552.00,96.78
551.00,96.90
550.00,96.81
