Created as New Dataset,Natural, 7.3.
cm-1,%T
4000.00,98.43
3999.00,98.43
3998.00,98.43
3997.00,98.43
3996.00,98.42
3995.00,98.41
3994.00,98.38
3993.00,98.36
3992.00,98.36
3991.00,98.38
3990.00,98.40
3989.00,98.42
3988.00,98.42
3987.00,98.41
3986.00,98.39
3985.00,98.39
3984.00,98.38
3983.00,98.37
3982.00,98.36
3981.00,98.35
3980.00,98.33
3979.00,98.32
3978.00,98.32
3977.00,98.32
3976.00,98.33
3975.00,98.35
3974.00,98.38
3973.00,98.41
3972.00,98.42
3971.00,98.42
3970.00,98.39
3969.00,98.36
3968.00,98.33
3967.00,98.31
3966.00,98.30
3965.00,98.30
3964.00,98.32
3963.00,98.35
3962.00,98.39
3961.00,98.41
3960.00,98.42
3959.00,98.41
3958.00,98.40
3957.00,98.40
3956.00,98.40
3955.00,98.40
3954.00,98.42
3953.00,98.42
3952.00,98.41
3951.00,98.40
3950.00,98.39
3949.00,98.39
3948.00,98.40
3947.00,98.40
3946.00,98.39
3945.00,98.37
3944.00,98.35
3943.00,98.34
3942.00,98.35
3941.00,98.37
3940.00,98.39
3939.00,98.41
3938.00,98.42
3937.00,98.42
3936.00,98.41
3935.00,98.39
3934.00,98.37
3933.00,98.36
3932.00,98.36
3931.00,98.37
3930.00,98.38
3929.00,98.37
3928.00,98.35
3927.00,98.34
3926.00,98.34
3925.00,98.35
3924.00,98.36
3923.00,98.37
3922.00,98.36
3921.00,98.35
3920.00,98.33
3919.00,98.32
3918.00,98.31
3917.00,98.33
3916.00,98.36
3915.00,98.39
3914.00,98.40
3913.00,98.40
3912.00,98.38
3911.00,98.37
3910.00,98.35
3909.00,98.34
3908.00,98.33
3907.00,98.32
3906.00,98.32
3905.00,98.35
3904.00,98.38
3903.00,98.41
3902.00,98.42
3901.00,98.42
3900.00,98.41
3899.00,98.41
3898.00,98.42
3897.00,98.43
3896.00,98.43
3895.00,98.41
3894.00,98.39
3893.00,98.38
3892.00,98.38
3891.00,98.38
3890.00,98.40
3889.00,98.40
3888.00,98.39
3887.00,98.37
3886.00,98.36
3885.00,98.36
3884.00,98.36
3883.00,98.37
3882.00,98.36
3881.00,98.36
3880.00,98.37
3879.00,98.39
3878.00,98.40
3877.00,98.39
3876.00,98.37
3875.00,98.35
3874.00,98.36
3873.00,98.37
3872.00,98.37
3871.00,98.36
3870.00,98.36
3869.00,98.37
3868.00,98.38
3867.00,98.38
3866.00,98.36
3865.00,98.35
3864.00,98.35
3863.00,98.37
3862.00,98.39
3861.00,98.40
3860.00,98.39
3859.00,98.38
3858.00,98.38
3857.00,98.38
3856.00,98.40
3855.00,98.42
3854.00,98.42
3853.00,98.43
3852.00,98.44
3851.00,98.43
3850.00,98.39
3849.00,98.35
3848.00,98.33
3847.00,98.33
3846.00,98.34
3845.00,98.35
3844.00,98.36
3843.00,98.37
3842.00,98.39
3841.00,98.40
3840.00,98.40
3839.00,98.38
3838.00,98.34
3837.00,98.31
3836.00,98.28
3835.00,98.27
3834.00,98.27
3833.00,98.28
3832.00,98.29
3831.00,98.30
3830.00,98.31
3829.00,98.31
3828.00,98.30
3827.00,98.30
3826.00,98.31
3825.00,98.32
3824.00,98.33
3823.00,98.33
3822.00,98.33
3821.00,98.33
3820.00,98.34
3819.00,98.35
3818.00,98.33
3817.00,98.31
3816.00,98.29
3815.00,98.30
3814.00,98.32
3813.00,98.32
3812.00,98.31
3811.00,98.30
3810.00,98.30
3809.00,98.31
3808.00,98.32
3807.00,98.33
3806.00,98.33
3805.00,98.33
3804.00,98.30
3803.00,98.26
3802.00,98.22
3801.00,98.20
3800.00,98.21
3799.00,98.22
3798.00,98.22
3797.00,98.21
3796.00,98.21
3795.00,98.23
3794.00,98.26
3793.00,98.28
3792.00,98.29
3791.00,98.30
3790.00,98.30
3789.00,98.29
3788.00,98.27
3787.00,98.25
3786.00,98.23
3785.00,98.22
3784.00,98.23
3783.00,98.24
3782.00,98.26
3781.00,98.27
3780.00,98.27
3779.00,98.26
3778.00,98.25
3777.00,98.24
3776.00,98.23
3775.00,98.22
3774.00,98.22
3773.00,98.23
3772.00,98.25
3771.00,98.26
3770.00,98.28
3769.00,98.27
3768.00,98.26
3767.00,98.24
3766.00,98.22
3765.00,98.21
3764.00,98.21
3763.00,98.20
3762.00,98.19
3761.00,98.17
3760.00,98.17
3759.00,98.18
3758.00,98.19
3757.00,98.19
3756.00,98.20
3755.00,98.20
3754.00,98.20
3753.00,98.19
3752.00,98.17
3751.00,98.17
3750.00,98.17
3749.00,98.19
3748.00,98.21
3747.00,98.23
3746.00,98.23
3745.00,98.22
3744.00,98.22
3743.00,98.24
3742.00,98.25
3741.00,98.22
3740.00,98.19
3739.00,98.18
3738.00,98.19
3737.00,98.18
3736.00,98.16
3735.00,98.14
3734.00,98.13
3733.00,98.12
3732.00,98.12
3731.00,98.12
3730.00,98.11
3729.00,98.10
3728.00,98.09
3727.00,98.09
3726.00,98.10
3725.00,98.11
3724.00,98.11
3723.00,98.10
3722.00,98.08
3721.00,98.07
3720.00,98.09
3719.00,98.10
3718.00,98.10
3717.00,98.09
3716.00,98.07
3715.00,98.06
3714.00,98.05
3713.00,98.03
3712.00,98.01
3711.00,97.99
3710.00,97.96
3709.00,97.93
3708.00,97.92
3707.00,97.93
3706.00,97.94
3705.00,97.94
3704.00,97.94
3703.00,97.94
3702.00,97.95
3701.00,97.98
3700.00,98.02
3699.00,98.04
3698.00,98.03
3697.00,98.02
3696.00,98.00
3695.00,97.98
3694.00,97.98
3693.00,97.98
3692.00,98.00
3691.00,98.00
3690.00,97.98
3689.00,97.93
3688.00,97.89
3687.00,97.88
3686.00,97.87
3685.00,97.86
3684.00,97.84
3683.00,97.82
3682.00,97.81
3681.00,97.81
3680.00,97.82
3679.00,97.84
3678.00,97.86
3677.00,97.85
3676.00,97.82
3675.00,97.78
3674.00,97.76
3673.00,97.75
3672.00,97.74
3671.00,97.73
3670.00,97.71
3669.00,97.71
3668.00,97.71
3667.00,97.71
3666.00,97.70
3665.00,97.69
3664.00,97.67
3663.00,97.65
3662.00,97.62
3661.00,97.60
3660.00,97.59
3659.00,97.57
3658.00,97.54
3657.00,97.50
3656.00,97.47
3655.00,97.45
3654.00,97.43
3653.00,97.42
3652.00,97.39
3651.00,97.37
3650.00,97.35
3649.00,97.33
3648.00,97.31
3647.00,97.28
3646.00,97.26
3645.00,97.24
3644.00,97.21
3643.00,97.18
3642.00,97.14
3641.00,97.11
3640.00,97.09
3639.00,97.07
3638.00,97.03
3637.00,96.99
3636.00,96.95
3635.00,96.90
3634.00,96.87
3633.00,96.87
3632.00,96.87
3631.00,96.87
3630.00,96.83
3629.00,96.79
3628.00,96.78
3627.00,96.78
3626.00,96.75
3625.00,96.70
3624.00,96.64
3623.00,96.59
3622.00,96.57
3621.00,96.57
3620.00,96.58
3619.00,96.59
3618.00,96.58
3617.00,96.55
3616.00,96.50
3615.00,96.44
3614.00,96.39
3613.00,96.36
3612.00,96.34
3611.00,96.33
3610.00,96.32
3609.00,96.32
3608.00,96.31
3607.00,96.29
3606.00,96.24
3605.00,96.19
3604.00,96.13
3603.00,96.10
3602.00,96.08
3601.00,96.06
3600.00,96.03
3599.00,95.99
3598.00,95.95
3597.00,95.91
3596.00,95.88
3595.00,95.86
3594.00,95.85
3593.00,95.84
3592.00,95.82
3591.00,95.80
3590.00,95.79
3589.00,95.77
3588.00,95.73
3587.00,95.69
3586.00,95.65
3585.00,95.61
3584.00,95.59
3583.00,95.56
3582.00,95.52
3581.00,95.48
3580.00,95.44
3579.00,95.40
3578.00,95.36
3577.00,95.32
3576.00,95.29
3575.00,95.25
3574.00,95.22
3573.00,95.20
3572.00,95.19
3571.00,95.18
3570.00,95.15
3569.00,95.11
3568.00,95.06
3567.00,95.00
3566.00,94.95
3565.00,94.91
3564.00,94.87
3563.00,94.84
3562.00,94.81
3561.00,94.77
3560.00,94.72
3559.00,94.69
3558.00,94.66
3557.00,94.64
3556.00,94.61
3555.00,94.59
3554.00,94.57
3553.00,94.54
3552.00,94.51
3551.00,94.46
3550.00,94.41
3549.00,94.37
3548.00,94.35
3547.00,94.33
3546.00,94.32
3545.00,94.32
3544.00,94.30
3543.00,94.27
3542.00,94.22
3541.00,94.16
3540.00,94.10
3539.00,94.06
3538.00,94.02
3537.00,93.99
3536.00,93.96
3535.00,93.94
3534.00,93.91
3533.00,93.89
3532.00,93.87
3531.00,93.86
3530.00,93.85
3529.00,93.83
3528.00,93.80
3527.00,93.76
3526.00,93.73
3525.00,93.71
3524.00,93.71
3523.00,93.71
3522.00,93.69
3521.00,93.64
3520.00,93.59
3519.00,93.55
3518.00,93.54
3517.00,93.54
3516.00,93.53
3515.00,93.51
3514.00,93.47
3513.00,93.43
3512.00,93.39
3511.00,93.36
3510.00,93.33
3509.00,93.30
3508.00,93.26
3507.00,93.22
3506.00,93.18
3505.00,93.15
3504.00,93.13
3503.00,93.09
3502.00,93.06
3501.00,93.03
3500.00,93.00
3499.00,92.98
3498.00,92.96
3497.00,92.92
3496.00,92.88
3495.00,92.84
3494.00,92.80
3493.00,92.76
3492.00,92.72
3491.00,92.69
3490.00,92.68
3489.00,92.66
3488.00,92.65
3487.00,92.63
3486.00,92.60
3485.00,92.56
3484.00,92.53
3483.00,92.50
3482.00,92.49
3481.00,92.48
3480.00,92.46
3479.00,92.42
3478.00,92.38
3477.00,92.34
3476.00,92.31
3475.00,92.30
3474.00,92.29
3473.00,92.28
3472.00,92.25
3471.00,92.22
3470.00,92.20
3469.00,92.18
3468.00,92.16
3467.00,92.14
3466.00,92.11
3465.00,92.07
3464.00,92.05
3463.00,92.02
3462.00,91.99
3461.00,91.96
3460.00,91.93
3459.00,91.90
3458.00,91.88
3457.00,91.85
3456.00,91.83
3455.00,91.81
3454.00,91.80
3453.00,91.80
3452.00,91.79
3451.00,91.77
3450.00,91.75
3449.00,91.72
3448.00,91.68
3447.00,91.65
3446.00,91.62
3445.00,91.60
3444.00,91.58
3443.00,91.55
3442.00,91.53
3441.00,91.51
3440.00,91.49
3439.00,91.46
3438.00,91.44
3437.00,91.41
3436.00,91.38
3435.00,91.34
3434.00,91.31
3433.00,91.27
3432.00,91.23
3431.00,91.20
3430.00,91.18
3429.00,91.15
3428.00,91.12
3427.00,91.09
3426.00,91.05
3425.00,91.02
3424.00,90.98
3423.00,90.94
3422.00,90.91
3421.00,90.89
3420.00,90.88
3419.00,90.87
3418.00,90.86
3417.00,90.85
3416.00,90.83
3415.00,90.81
3414.00,90.78
3413.00,90.74
3412.00,90.70
3411.00,90.66
3410.00,90.61
3409.00,90.56
3408.00,90.50
3407.00,90.46
3406.00,90.43
3405.00,90.40
3404.00,90.38
3403.00,90.36
3402.00,90.33
3401.00,90.30
3400.00,90.27
3399.00,90.25
3398.00,90.23
3397.00,90.22
3396.00,90.20
3395.00,90.17
3394.00,90.15
3393.00,90.14
3392.00,90.12
3391.00,90.10
3390.00,90.07
3389.00,90.04
3388.00,90.01
3387.00,89.99
3386.00,89.97
3385.00,89.94
3384.00,89.91
3383.00,89.87
3382.00,89.83
3381.00,89.78
3380.00,89.74
3379.00,89.71
3378.00,89.68
3377.00,89.66
3376.00,89.63
3375.00,89.60
3374.00,89.58
3373.00,89.56
3372.00,89.55
3371.00,89.53
3370.00,89.49
3369.00,89.45
3368.00,89.41
3367.00,89.37
3366.00,89.34
3365.00,89.32
3364.00,89.29
3363.00,89.25
3362.00,89.20
3361.00,89.15
3360.00,89.10
3359.00,89.06
3358.00,89.04
3357.00,89.02
3356.00,89.00
3355.00,88.96
3354.00,88.93
3353.00,88.91
3352.00,88.90
3351.00,88.89
3350.00,88.86
3349.00,88.80
3348.00,88.73
3347.00,88.65
3346.00,88.60
3345.00,88.56
3344.00,88.53
3343.00,88.51
3342.00,88.49
3341.00,88.46
3340.00,88.43
3339.00,88.39
3338.00,88.35
3337.00,88.30
3336.00,88.25
3335.00,88.20
3334.00,88.17
3333.00,88.16
3332.00,88.16
3331.00,88.15
3330.00,88.12
3329.00,88.07
3328.00,88.01
3327.00,87.95
3326.00,87.90
3325.00,87.85
3324.00,87.80
3323.00,87.75
3322.00,87.70
3321.00,87.65
3320.00,87.61
3319.00,87.57
3318.00,87.53
3317.00,87.50
3316.00,87.49
3315.00,87.47
3314.00,87.44
3313.00,87.39
3312.00,87.34
3311.00,87.29
3310.00,87.25
3309.00,87.20
3308.00,87.16
3307.00,87.10
3306.00,87.06
3305.00,87.02
3304.00,86.99
3303.00,86.95
3302.00,86.90
3301.00,86.85
3300.00,86.81
3299.00,86.77
3298.00,86.74
3297.00,86.70
3296.00,86.67
3295.00,86.64
3294.00,86.62
3293.00,86.59
3292.00,86.57
3291.00,86.54
3290.00,86.51
3289.00,86.47
3288.00,86.44
3287.00,86.41
3286.00,86.38
3285.00,86.35
3284.00,86.33
3283.00,86.31
3282.00,86.29
3281.00,86.27
3280.00,86.26
3279.00,86.24
3278.00,86.23
3277.00,86.22
3276.00,86.22
3275.00,86.23
3274.00,86.25
3273.00,86.28
3272.00,86.31
3271.00,86.33
3270.00,86.34
3269.00,86.33
3268.00,86.34
3267.00,86.35
3266.00,86.38
3265.00,86.42
3264.00,86.45
3263.00,86.49
3262.00,86.54
3261.00,86.59
3260.00,86.64
3259.00,86.69
3258.00,86.73
3257.00,86.75
3256.00,86.76
3255.00,86.78
3254.00,86.80
3253.00,86.85
3252.00,86.89
3251.00,86.94
3250.00,86.98
3249.00,87.03
3248.00,87.09
3247.00,87.14
3246.00,87.19
3245.00,87.22
3244.00,87.24
3243.00,87.27
3242.00,87.30
3241.00,87.33
3240.00,87.38
3239.00,87.43
3238.00,87.48
3237.00,87.53
3236.00,87.57
3235.00,87.60
3234.00,87.62
3233.00,87.63
3232.00,87.64
3231.00,87.65
3230.00,87.68
3229.00,87.72
3228.00,87.75
3227.00,87.78
3226.00,87.80
3225.00,87.83
3224.00,87.87
3223.00,87.90
3222.00,87.92
3221.00,87.94
3220.00,87.95
3219.00,87.98
3218.00,88.02
3217.00,88.08
3216.00,88.12
3215.00,88.16
3214.00,88.18
3213.00,88.20
3212.00,88.22
3211.00,88.23
3210.00,88.25
3209.00,88.27
3208.00,88.30
3207.00,88.34
3206.00,88.39
3205.00,88.44
3204.00,88.46
3203.00,88.48
3202.00,88.50
3201.00,88.52
3200.00,88.55
3199.00,88.60
3198.00,88.65
3197.00,88.70
3196.00,88.73
3195.00,88.75
3194.00,88.77
3193.00,88.81
3192.00,88.84
3191.00,88.87
3190.00,88.91
3189.00,88.94
3188.00,88.98
3187.00,89.02
3186.00,89.07
3185.00,89.13
3184.00,89.19
3183.00,89.26
3182.00,89.33
3181.00,89.37
3180.00,89.41
3179.00,89.43
3178.00,89.45
3177.00,89.47
3176.00,89.51
3175.00,89.55
3174.00,89.60
3173.00,89.66
3172.00,89.72
3171.00,89.77
3170.00,89.82
3169.00,89.86
3168.00,89.89
3167.00,89.93
3166.00,89.97
3165.00,90.01
3164.00,90.06
3163.00,90.12
3162.00,90.19
3161.00,90.25
3160.00,90.30
3159.00,90.34
3158.00,90.38
3157.00,90.42
3156.00,90.48
3155.00,90.53
3154.00,90.57
3153.00,90.60
3152.00,90.62
3151.00,90.65
3150.00,90.69
3149.00,90.74
3148.00,90.79
3147.00,90.85
3146.00,90.89
3145.00,90.92
3144.00,90.95
3143.00,90.98
3142.00,91.01
3141.00,91.04
3140.00,91.07
3139.00,91.09
3138.00,91.12
3137.00,91.15
3136.00,91.19
3135.00,91.24
3134.00,91.28
3133.00,91.32
3132.00,91.34
3131.00,91.36
3130.00,91.37
3129.00,91.38
3128.00,91.40
3127.00,91.44
3126.00,91.47
3125.00,91.50
3124.00,91.52
3123.00,91.54
3122.00,91.55
3121.00,91.57
3120.00,91.57
3119.00,91.58
3118.00,91.59
3117.00,91.62
3116.00,91.65
3115.00,91.68
3114.00,91.69
3113.00,91.69
3112.00,91.67
3111.00,91.65
3110.00,91.63
3109.00,91.64
3108.00,91.67
3107.00,91.70
3106.00,91.71
3105.00,91.71
3104.00,91.69
3103.00,91.67
3102.00,91.67
3101.00,91.68
3100.00,91.69
3099.00,91.69
3098.00,91.70
3097.00,91.70
3096.00,91.69
3095.00,91.67
3094.00,91.65
3093.00,91.62
3092.00,91.60
3091.00,91.59
3090.00,91.59
3089.00,91.60
3088.00,91.61
3087.00,91.62
3086.00,91.61
3085.00,91.60
3084.00,91.59
3083.00,91.58
3082.00,91.57
3081.00,91.55
3080.00,91.53
3079.00,91.50
3078.00,91.49
3077.00,91.48
3076.00,91.48
3075.00,91.47
3074.00,91.46
3073.00,91.45
3072.00,91.45
3071.00,91.45
3070.00,91.45
3069.00,91.45
3068.00,91.46
3067.00,91.48
3066.00,91.49
3065.00,91.49
3064.00,91.48
3063.00,91.48
3062.00,91.49
3061.00,91.51
3060.00,91.54
3059.00,91.58
3058.00,91.61
3057.00,91.62
3056.00,91.64
3055.00,91.65
3054.00,91.67
3053.00,91.70
3052.00,91.73
3051.00,91.76
3050.00,91.81
3049.00,91.85
3048.00,91.89
3047.00,91.91
3046.00,91.93
3045.00,91.94
3044.00,91.96
3043.00,91.99
3042.00,92.01
3041.00,92.03
3040.00,92.05
3039.00,92.08
3038.00,92.12
3037.00,92.16
3036.00,92.20
3035.00,92.24
3034.00,92.26
3033.00,92.28
3032.00,92.31
3031.00,92.33
3030.00,92.36
3029.00,92.39
3028.00,92.44
3027.00,92.48
3026.00,92.52
3025.00,92.54
3024.00,92.55
3023.00,92.56
3022.00,92.57
3021.00,92.61
3020.00,92.65
3019.00,92.70
3018.00,92.73
3017.00,92.76
3016.00,92.78
3015.00,92.80
3014.00,92.83
3013.00,92.85
3012.00,92.87
3011.00,92.90
3010.00,92.92
3009.00,92.93
3008.00,92.93
3007.00,92.94
3006.00,92.94
3005.00,92.94
3004.00,92.94
3003.00,92.93
3002.00,92.92
3001.00,92.92
3000.00,92.92
2999.00,92.91
2998.00,92.90
2997.00,92.89
2996.00,92.87
2995.00,92.85
2994.00,92.84
2993.00,92.82
2992.00,92.80
2991.00,92.78
2990.00,92.74
2989.00,92.70
2988.00,92.66
2987.00,92.63
2986.00,92.60
2985.00,92.55
2984.00,92.50
2983.00,92.44
2982.00,92.38
2981.00,92.33
2980.00,92.27
2979.00,92.21
2978.00,92.14
2977.00,92.08
2976.00,92.03
2975.00,91.98
2974.00,91.92
2973.00,91.86
2972.00,91.78
2971.00,91.71
2970.00,91.64
2969.00,91.57
2968.00,91.52
2967.00,91.48
2966.00,91.45
2965.00,91.43
2964.00,91.41
2963.00,91.38
2962.00,91.35
2961.00,91.33
2960.00,91.33
2959.00,91.34
2958.00,91.35
2957.00,91.37
2956.00,91.39
2955.00,91.43
2954.00,91.46
2953.00,91.48
2952.00,91.49
2951.00,91.49
2950.00,91.50
2949.00,91.52
2948.00,91.53
2947.00,91.53
2946.00,91.51
2945.00,91.50
2944.00,91.48
2943.00,91.46
2942.00,91.44
2941.00,91.40
2940.00,91.35
2939.00,91.30
2938.00,91.25
2937.00,91.21
2936.00,91.18
2935.00,91.15
2934.00,91.12
2933.00,91.09
2932.00,91.06
2931.00,91.03
2930.00,91.01
2929.00,91.00
2928.00,91.02
2927.00,91.05
2926.00,91.08
2925.00,91.10
2924.00,91.11
2923.00,91.11
2922.00,91.11
2921.00,91.14
2920.00,91.19
2919.00,91.26
2918.00,91.34
2917.00,91.42
2916.00,91.50
2915.00,91.60
2914.00,91.70
2913.00,91.81
2912.00,91.90
2911.00,91.99
2910.00,92.06
2909.00,92.13
2908.00,92.19
2907.00,92.24
2906.00,92.29
2905.00,92.33
2904.00,92.39
2903.00,92.44
2902.00,92.49
2901.00,92.52
2900.00,92.55
2899.00,92.57
2898.00,92.59
2897.00,92.61
2896.00,92.64
2895.00,92.67
2894.00,92.70
2893.00,92.73
2892.00,92.75
2891.00,92.76
2890.00,92.77
2889.00,92.78
2888.00,92.80
2887.00,92.81
2886.00,92.82
2885.00,92.82
2884.00,92.80
2883.00,92.78
2882.00,92.75
2881.00,92.74
2880.00,92.73
2879.00,92.73
2878.00,92.73
2877.00,92.74
2876.00,92.75
2875.00,92.76
2874.00,92.78
2873.00,92.79
2872.00,92.81
2871.00,92.83
2870.00,92.87
2869.00,92.91
2868.00,92.94
2867.00,92.99
2866.00,93.03
2865.00,93.07
2864.00,93.12
2863.00,93.15
2862.00,93.17
2861.00,93.19
2860.00,93.22
2859.00,93.24
2858.00,93.26
2857.00,93.26
2856.00,93.25
2855.00,93.23
2854.00,93.22
2853.00,93.22
2852.00,93.23
2851.00,93.27
2850.00,93.33
2849.00,93.40
2848.00,93.48
2847.00,93.57
2846.00,93.67
2845.00,93.76
2844.00,93.85
2843.00,93.92
2842.00,93.98
2841.00,94.03
2840.00,94.08
2839.00,94.13
2838.00,94.18
2837.00,94.22
2836.00,94.25
2835.00,94.27
2834.00,94.28
2833.00,94.29
2832.00,94.31
2831.00,94.33
2830.00,94.35
2829.00,94.37
2828.00,94.40
2827.00,94.43
2826.00,94.46
2825.00,94.48
2824.00,94.50
2823.00,94.51
2822.00,94.51
2821.00,94.51
2820.00,94.52
2819.00,94.54
2818.00,94.55
2817.00,94.55
2816.00,94.56
2815.00,94.57
2814.00,94.59
2813.00,94.60
2812.00,94.61
2811.00,94.62
2810.00,94.63
2809.00,94.64
2808.00,94.65
2807.00,94.66
2806.00,94.67
2805.00,94.69
2804.00,94.72
2803.00,94.73
2802.00,94.75
2801.00,94.75
2800.00,94.76
2799.00,94.77
2798.00,94.78
2797.00,94.77
2796.00,94.77
2795.00,94.79
2794.00,94.82
2793.00,94.85
2792.00,94.88
2791.00,94.90
2790.00,94.91
2789.00,94.91
2788.00,94.91
2787.00,94.91
2786.00,94.91
2785.00,94.91
2784.00,94.90
2783.00,94.91
2782.00,94.92
2781.00,94.93
2780.00,94.95
2779.00,94.98
2778.00,95.01
2777.00,95.03
2776.00,95.04
2775.00,95.04
2774.00,95.04
2773.00,95.05
2772.00,95.06
2771.00,95.08
2770.00,95.09
2769.00,95.09
2768.00,95.09
2767.00,95.10
2766.00,95.12
2765.00,95.16
2764.00,95.18
2763.00,95.20
2762.00,95.21
2761.00,95.21
2760.00,95.21
2759.00,95.21
2758.00,95.21
2757.00,95.22
2756.00,95.23
2755.00,95.25
2754.00,95.27
2753.00,95.28
2752.00,95.27
2751.00,95.26
2750.00,95.25
2749.00,95.25
2748.00,95.26
2747.00,95.27
2746.00,95.28
2745.00,95.30
2744.00,95.32
2743.00,95.33
2742.00,95.33
2741.00,95.32
2740.00,95.32
2739.00,95.32
2738.00,95.33
2737.00,95.35
2736.00,95.37
2735.00,95.39
2734.00,95.41
2733.00,95.42
2732.00,95.41
2731.00,95.40
2730.00,95.40
2729.00,95.42
2728.00,95.45
2727.00,95.47
2726.00,95.47
2725.00,95.47
2724.00,95.47
2723.00,95.47
2722.00,95.49
2721.00,95.52
2720.00,95.54
2719.00,95.54
2718.00,95.54
2717.00,95.53
2716.00,95.52
2715.00,95.53
2714.00,95.54
2713.00,95.55
2712.00,95.56
2711.00,95.57
2710.00,95.58
2709.00,95.59
2708.00,95.61
2707.00,95.62
2706.00,95.62
2705.00,95.62
2704.00,95.63
2703.00,95.64
2702.00,95.65
2701.00,95.66
2700.00,95.66
2699.00,95.67
2698.00,95.67
2697.00,95.67
2696.00,95.68
2695.00,95.69
2694.00,95.69
2693.00,95.68
2692.00,95.68
2691.00,95.69
2690.00,95.70
2689.00,95.72
2688.00,95.73
2687.00,95.72
2686.00,95.72
2685.00,95.72
2684.00,95.73
2683.00,95.75
2682.00,95.76
2681.00,95.76
2680.00,95.77
2679.00,95.77
2678.00,95.79
2677.00,95.79
2676.00,95.79
2675.00,95.79
2674.00,95.78
2673.00,95.78
2672.00,95.77
2671.00,95.77
2670.00,95.78
2669.00,95.78
2668.00,95.80
2667.00,95.82
2666.00,95.84
2665.00,95.85
2664.00,95.85
2663.00,95.83
2662.00,95.80
2661.00,95.76
2660.00,95.74
2659.00,95.74
2658.00,95.76
2657.00,95.77
2656.00,95.78
2655.00,95.76
2654.00,95.74
2653.00,95.72
2652.00,95.72
2651.00,95.72
2650.00,95.71
2649.00,95.71
2648.00,95.70
2647.00,95.69
2646.00,95.69
2645.00,95.69
2644.00,95.70
2643.00,95.70
2642.00,95.70
2641.00,95.68
2640.00,95.66
2639.00,95.65
2638.00,95.65
2637.00,95.67
2636.00,95.69
2635.00,95.70
2634.00,95.70
2633.00,95.67
2632.00,95.63
2631.00,95.60
2630.00,95.59
2629.00,95.57
2628.00,95.56
2627.00,95.56
2626.00,95.55
2625.00,95.55
2624.00,95.55
2623.00,95.55
2622.00,95.55
2621.00,95.56
2620.00,95.57
2619.00,95.58
2618.00,95.59
2617.00,95.60
2616.00,95.60
2615.00,95.61
2614.00,95.60
2613.00,95.59
2612.00,95.57
2611.00,95.56
2610.00,95.56
2609.00,95.56
2608.00,95.56
2607.00,95.56
2606.00,95.55
2605.00,95.53
2604.00,95.52
2603.00,95.52
2602.00,95.54
2601.00,95.55
2600.00,95.55
2599.00,95.56
2598.00,95.56
2597.00,95.56
2596.00,95.58
2595.00,95.59
2594.00,95.59
2593.00,95.57
2592.00,95.55
2591.00,95.52
2590.00,95.51
2589.00,95.50
2588.00,95.51
2587.00,95.52
2586.00,95.52
2585.00,95.51
2584.00,95.50
2583.00,95.49
2582.00,95.49
2581.00,95.50
2580.00,95.51
2579.00,95.52
2578.00,95.53
2577.00,95.54
2576.00,95.56
2575.00,95.56
2574.00,95.54
2573.00,95.51
2572.00,95.49
2571.00,95.49
2570.00,95.50
2569.00,95.52
2568.00,95.52
2567.00,95.52
2566.00,95.51
2565.00,95.51
2564.00,95.51
2563.00,95.51
2562.00,95.51
2561.00,95.51
2560.00,95.51
2559.00,95.51
2558.00,95.51
2557.00,95.50
2556.00,95.51
2555.00,95.52
2554.00,95.52
2553.00,95.52
2552.00,95.51
2551.00,95.52
2550.00,95.53
2549.00,95.54
2548.00,95.54
2547.00,95.53
2546.00,95.53
2545.00,95.52
2544.00,95.53
2543.00,95.54
2542.00,95.55
2541.00,95.55
2540.00,95.54
2539.00,95.53
2538.00,95.53
2537.00,95.53
2536.00,95.53
2535.00,95.53
2534.00,95.52
2533.00,95.52
2532.00,95.51
2531.00,95.52
2530.00,95.54
2529.00,95.57
2528.00,95.58
2527.00,95.58
2526.00,95.58
2525.00,95.57
2524.00,95.54
2523.00,95.51
2522.00,95.50
2521.00,95.51
2520.00,95.54
2519.00,95.56
2518.00,95.57
2517.00,95.57
2516.00,95.56
2515.00,95.56
2514.00,95.56
2513.00,95.57
2512.00,95.58
2511.00,95.59
2510.00,95.60
2509.00,95.60
2508.00,95.60
2507.00,95.59
2506.00,95.57
2505.00,95.56
2504.00,95.56
2503.00,95.57
2502.00,95.58
2501.00,95.60
2500.00,95.62
2499.00,95.65
2498.00,95.66
2497.00,95.67
2496.00,95.67
2495.00,95.68
2494.00,95.67
2493.00,95.66
2492.00,95.63
2491.00,95.60
2490.00,95.57
2489.00,95.56
2488.00,95.57
2487.00,95.60
2486.00,95.65
2485.00,95.69
2484.00,95.72
2483.00,95.73
2482.00,95.70
2481.00,95.66
2480.00,95.63
2479.00,95.62
2478.00,95.64
2477.00,95.66
2476.00,95.68
2475.00,95.69
2474.00,95.70
2473.00,95.70
2472.00,95.70
2471.00,95.70
2470.00,95.69
2469.00,95.68
2468.00,95.66
2467.00,95.65
2466.00,95.64
2465.00,95.66
2464.00,95.68
2463.00,95.69
2462.00,95.69
2461.00,95.68
2460.00,95.67
2459.00,95.68
2458.00,95.69
2457.00,95.69
2456.00,95.69
2455.00,95.68
2454.00,95.67
2453.00,95.67
2452.00,95.69
2451.00,95.72
2450.00,95.74
2449.00,95.75
2448.00,95.74
2447.00,95.73
2446.00,95.72
2445.00,95.69
2444.00,95.69
2443.00,95.70
2442.00,95.72
2441.00,95.74
2440.00,95.75
2439.00,95.75
2438.00,95.75
2437.00,95.74
2436.00,95.72
2435.00,95.71
2434.00,95.70
2433.00,95.70
2432.00,95.71
2431.00,95.73
2430.00,95.75
2429.00,95.78
2428.00,95.80
2427.00,95.82
2426.00,95.84
2425.00,95.86
2424.00,95.86
2423.00,95.86
2422.00,95.85
2421.00,95.84
2420.00,95.84
2419.00,95.85
2418.00,95.86
2417.00,95.87
2416.00,95.88
2415.00,95.89
2414.00,95.90
2413.00,95.90
2412.00,95.90
2411.00,95.89
2410.00,95.89
2409.00,95.90
2408.00,95.90
2407.00,95.90
2406.00,95.90
2405.00,95.91
2404.00,95.94
2403.00,95.97
2402.00,95.99
2401.00,96.00
2400.00,96.02
2399.00,96.03
2398.00,96.04
2397.00,96.03
2396.00,96.02
2395.00,96.03
2394.00,96.05
2393.00,96.06
2392.00,96.07
2391.00,96.06
2390.00,96.06
2389.00,96.06
2388.00,96.08
2387.00,96.09
2386.00,96.09
2385.00,96.08
2384.00,96.08
2383.00,96.10
2382.00,96.12
2381.00,96.14
2380.00,96.15
2379.00,96.17
2378.00,96.21
2377.00,96.23
2376.00,96.22
2375.00,96.20
2374.00,96.18
2373.00,96.16
2372.00,96.15
2371.00,96.13
2370.00,96.13
2369.00,96.17
2368.00,96.25
2367.00,96.37
2366.00,96.46
2365.00,96.48
2364.00,96.44
2363.00,96.34
2362.00,96.23
2361.00,96.13
2360.00,96.08
2359.00,96.08
2358.00,96.10
2357.00,96.11
2356.00,96.12
2355.00,96.15
2354.00,96.19
2353.00,96.23
2352.00,96.25
2351.00,96.25
2350.00,96.25
2349.00,96.25
2348.00,96.27
2347.00,96.31
2346.00,96.35
2345.00,96.37
2344.00,96.37
2343.00,96.35
2342.00,96.32
2341.00,96.29
2340.00,96.25
2339.00,96.22
2338.00,96.20
2337.00,96.18
2336.00,96.18
2335.00,96.19
2334.00,96.20
2333.00,96.19
2332.00,96.17
2331.00,96.17
2330.00,96.20
2329.00,96.24
2328.00,96.26
2327.00,96.23
2326.00,96.17
2325.00,96.11
2324.00,96.08
2323.00,96.08
2322.00,96.07
2321.00,96.05
2320.00,95.99
2319.00,95.95
2318.00,95.92
2317.00,95.93
2316.00,95.95
2315.00,95.97
2314.00,95.97
2313.00,95.97
2312.00,95.96
2311.00,95.96
2310.00,95.95
2309.00,95.92
2308.00,95.88
2307.00,95.85
2306.00,95.83
2305.00,95.83
2304.00,95.83
2303.00,95.83
2302.00,95.81
2301.00,95.79
2300.00,95.77
2299.00,95.74
2298.00,95.73
2297.00,95.71
2296.00,95.69
2295.00,95.69
2294.00,95.68
2293.00,95.68
2292.00,95.67
2291.00,95.65
2290.00,95.64
2289.00,95.61
2288.00,95.57
2287.00,95.53
2286.00,95.49
2285.00,95.46
2284.00,95.46
2283.00,95.46
2282.00,95.45
2281.00,95.43
2280.00,95.40
2279.00,95.36
2278.00,95.33
2277.00,95.31
2276.00,95.31
2275.00,95.32
2274.00,95.33
2273.00,95.33
2272.00,95.33
2271.00,95.32
2270.00,95.32
2269.00,95.30
2268.00,95.28
2267.00,95.27
2266.00,95.25
2265.00,95.23
2264.00,95.21
2263.00,95.20
2262.00,95.20
2261.00,95.20
2260.00,95.19
2259.00,95.16
2258.00,95.13
2257.00,95.10
2256.00,95.07
2255.00,95.05
2254.00,95.05
2253.00,95.07
2252.00,95.08
2251.00,95.07
2250.00,95.03
2249.00,94.98
2248.00,94.94
2247.00,94.92
2246.00,94.92
2245.00,94.94
2244.00,94.97
2243.00,95.00
2242.00,95.01
2241.00,94.98
2240.00,94.93
2239.00,94.89
2238.00,94.88
2237.00,94.89
2236.00,94.90
2235.00,94.91
2234.00,94.91
2233.00,94.88
2232.00,94.82
2231.00,94.78
2230.00,94.77
2229.00,94.78
2228.00,94.80
2227.00,94.81
2226.00,94.82
2225.00,94.84
2224.00,94.85
2223.00,94.85
2222.00,94.81
2221.00,94.76
2220.00,94.70
2219.00,94.64
2218.00,94.58
2217.00,94.55
2216.00,94.56
2215.00,94.58
2214.00,94.60
2213.00,94.59
2212.00,94.56
2211.00,94.55
2210.00,94.56
2209.00,94.56
2208.00,94.55
2207.00,94.52
2206.00,94.48
2205.00,94.45
2204.00,94.44
2203.00,94.42
2202.00,94.37
2201.00,94.33
2200.00,94.34
2199.00,94.40
2198.00,94.46
2197.00,94.50
2196.00,94.50
2195.00,94.49
2194.00,94.46
2193.00,94.41
2192.00,94.36
2191.00,94.32
2190.00,94.27
2189.00,94.22
2188.00,94.18
2187.00,94.15
2186.00,94.12
2185.00,94.09
2184.00,94.08
2183.00,94.09
2182.00,94.11
2181.00,94.13
2180.00,94.14
2179.00,94.14
2178.00,94.13
2177.00,94.12
2176.00,94.12
2175.00,94.13
2174.00,94.16
2173.00,94.17
2172.00,94.14
2171.00,94.06
2170.00,93.94
2169.00,93.82
2168.00,93.75
2167.00,93.73
2166.00,93.74
2165.00,93.74
2164.00,93.68
2163.00,93.56
2162.00,93.43
2161.00,93.36
2160.00,93.44
2159.00,93.66
2158.00,93.90
2157.00,94.06
2156.00,94.16
2155.00,94.23
2154.00,94.29
2153.00,94.34
2152.00,94.38
2151.00,94.41
2150.00,94.40
2149.00,94.38
2148.00,94.39
2147.00,94.47
2146.00,94.59
2145.00,94.69
2144.00,94.76
2143.00,94.81
2142.00,94.84
2141.00,94.84
2140.00,94.83
2139.00,94.84
2138.00,94.86
2137.00,94.88
2136.00,94.90
2135.00,94.92
2134.00,94.94
2133.00,94.96
2132.00,94.99
2131.00,95.03
2130.00,95.07
2129.00,95.11
2128.00,95.15
2127.00,95.18
2126.00,95.21
2125.00,95.20
2124.00,95.20
2123.00,95.21
2122.00,95.25
2121.00,95.29
2120.00,95.32
2119.00,95.33
2118.00,95.31
2117.00,95.26
2116.00,95.22
2115.00,95.17
2114.00,95.15
2113.00,95.13
2112.00,95.14
2111.00,95.15
2110.00,95.16
2109.00,95.15
2108.00,95.13
2107.00,95.13
2106.00,95.16
2105.00,95.18
2104.00,95.18
2103.00,95.17
2102.00,95.15
2101.00,95.13
2100.00,95.12
2099.00,95.10
2098.00,95.10
2097.00,95.10
2096.00,95.12
2095.00,95.15
2094.00,95.17
2093.00,95.17
2092.00,95.16
2091.00,95.16
2090.00,95.15
2089.00,95.13
2088.00,95.09
2087.00,95.05
2086.00,95.04
2085.00,95.05
2084.00,95.09
2083.00,95.11
2082.00,95.11
2081.00,95.09
2080.00,95.06
2079.00,95.03
2078.00,95.01
2077.00,95.00
2076.00,95.00
2075.00,95.01
2074.00,95.04
2073.00,95.06
2072.00,95.05
2071.00,95.01
2070.00,94.94
2069.00,94.88
2068.00,94.85
2067.00,94.85
2066.00,94.86
2065.00,94.88
2064.00,94.90
2063.00,94.91
2062.00,94.91
2061.00,94.89
2060.00,94.87
2059.00,94.86
2058.00,94.86
2057.00,94.86
2056.00,94.86
2055.00,94.84
2054.00,94.82
2053.00,94.76
2052.00,94.68
2051.00,94.61
2050.00,94.56
2049.00,94.54
2048.00,94.55
2047.00,94.55
2046.00,94.52
2045.00,94.47
2044.00,94.42
2043.00,94.39
2042.00,94.34
2041.00,94.30
2040.00,94.28
2039.00,94.29
2038.00,94.27
2037.00,94.21
2036.00,94.13
2035.00,94.09
2034.00,94.09
2033.00,94.10
2032.00,94.08
2031.00,94.06
2030.00,94.07
2029.00,94.12
2028.00,94.20
2027.00,94.27
2026.00,94.28
2025.00,94.26
2024.00,94.25
2023.00,94.29
2022.00,94.36
2021.00,94.38
2020.00,94.33
2019.00,94.27
2018.00,94.23
2017.00,94.21
2016.00,94.20
2015.00,94.19
2014.00,94.20
2013.00,94.23
2012.00,94.26
2011.00,94.30
2010.00,94.33
2009.00,94.36
2008.00,94.39
2007.00,94.44
2006.00,94.52
2005.00,94.59
2004.00,94.65
2003.00,94.67
2002.00,94.67
2001.00,94.65
2000.00,94.66
1999.00,94.71
1998.00,94.75
1997.00,94.75
1996.00,94.72
1995.00,94.70
1994.00,94.70
1993.00,94.67
1992.00,94.62
1991.00,94.57
1990.00,94.56
1989.00,94.57
1988.00,94.57
1987.00,94.55
1986.00,94.51
1985.00,94.47
1984.00,94.43
1983.00,94.41
1982.00,94.36
1981.00,94.30
1980.00,94.23
1979.00,94.18
1978.00,94.20
1977.00,94.25
1976.00,94.33
1975.00,94.39
1974.00,94.42
1973.00,94.43
1972.00,94.43
1971.00,94.47
1970.00,94.53
1969.00,94.59
1968.00,94.63
1967.00,94.66
1966.00,94.69
1965.00,94.71
1964.00,94.75
1963.00,94.81
1962.00,94.88
1961.00,94.93
1960.00,94.95
1959.00,94.99
1958.00,95.03
1957.00,95.08
1956.00,95.11
1955.00,95.13
1954.00,95.16
1953.00,95.19
1952.00,95.21
1951.00,95.25
1950.00,95.30
1949.00,95.34
1948.00,95.35
1947.00,95.35
1946.00,95.35
1945.00,95.37
1944.00,95.41
1943.00,95.44
1942.00,95.47
1941.00,95.49
1940.00,95.51
1939.00,95.54
1938.00,95.56
1937.00,95.57
1936.00,95.56
1935.00,95.57
1934.00,95.61
1933.00,95.65
1932.00,95.68
1931.00,95.68
1930.00,95.68
1929.00,95.67
1928.00,95.69
1927.00,95.76
1926.00,95.85
1925.00,95.93
1924.00,95.97
1923.00,95.98
1922.00,95.96
1921.00,95.93
1920.00,95.91
1919.00,95.92
1918.00,95.94
1917.00,95.95
1916.00,95.96
1915.00,95.97
1914.00,95.97
1913.00,95.95
1912.00,95.93
1911.00,95.93
1910.00,95.95
1909.00,95.99
1908.00,96.01
1907.00,96.01
1906.00,96.00
1905.00,95.99
1904.00,95.99
1903.00,96.00
1902.00,96.02
1901.00,96.02
1900.00,96.02
1899.00,96.03
1898.00,96.06
1897.00,96.10
1896.00,96.14
1895.00,96.16
1894.00,96.17
1893.00,96.16
1892.00,96.14
1891.00,96.14
1890.00,96.15
1889.00,96.17
1888.00,96.19
1887.00,96.22
1886.00,96.23
1885.00,96.24
1884.00,96.25
1883.00,96.26
1882.00,96.28
1881.00,96.29
1880.00,96.28
1879.00,96.28
1878.00,96.27
1877.00,96.26
1876.00,96.25
1875.00,96.25
1874.00,96.27
1873.00,96.32
1872.00,96.38
1871.00,96.45
1870.00,96.49
1869.00,96.48
1868.00,96.46
1867.00,96.43
1866.00,96.41
1865.00,96.38
1864.00,96.36
1863.00,96.36
1862.00,96.38
1861.00,96.41
1860.00,96.42
1859.00,96.42
1858.00,96.41
1857.00,96.40
1856.00,96.41
1855.00,96.45
1854.00,96.50
1853.00,96.52
1852.00,96.53
1851.00,96.52
1850.00,96.51
1849.00,96.49
1848.00,96.49
1847.00,96.50
1846.00,96.53
1845.00,96.56
1844.00,96.59
1843.00,96.60
1842.00,96.59
1841.00,96.58
1840.00,96.58
1839.00,96.59
1838.00,96.61
1837.00,96.63
1836.00,96.63
1835.00,96.63
1834.00,96.64
1833.00,96.65
1832.00,96.66
1831.00,96.67
1830.00,96.68
1829.00,96.69
1828.00,96.69
1827.00,96.71
1826.00,96.72
1825.00,96.73
1824.00,96.74
1823.00,96.74
1822.00,96.74
1821.00,96.72
1820.00,96.71
1819.00,96.71
1818.00,96.72
1817.00,96.73
1816.00,96.74
1815.00,96.76
1814.00,96.78
1813.00,96.80
1812.00,96.83
1811.00,96.84
1810.00,96.85
1809.00,96.84
1808.00,96.83
1807.00,96.82
1806.00,96.83
1805.00,96.85
1804.00,96.86
1803.00,96.88
1802.00,96.90
1801.00,96.90
1800.00,96.90
1799.00,96.90
1798.00,96.90
1797.00,96.88
1796.00,96.87
1795.00,96.87
1794.00,96.87
1793.00,96.87
1792.00,96.87
1791.00,96.86
1790.00,96.87
1789.00,96.87
1788.00,96.86
1787.00,96.87
1786.00,96.87
1785.00,96.87
1784.00,96.87
1783.00,96.87
1782.00,96.87
1781.00,96.87
1780.00,96.87
1779.00,96.89
1778.00,96.91
1777.00,96.92
1776.00,96.92
1775.00,96.92
1774.00,96.91
1773.00,96.89
1772.00,96.87
1771.00,96.87
1770.00,96.89
1769.00,96.89
1768.00,96.88
1767.00,96.88
1766.00,96.88
1765.00,96.88
1764.00,96.87
1763.00,96.86
1762.00,96.85
1761.00,96.83
1760.00,96.82
1759.00,96.83
1758.00,96.86
1757.00,96.87
1756.00,96.85
1755.00,96.82
1754.00,96.80
1753.00,96.79
1752.00,96.76
1751.00,96.73
1750.00,96.70
1749.00,96.67
1748.00,96.65
1747.00,96.63
1746.00,96.62
1745.00,96.60
1744.00,96.57
1743.00,96.56
1742.00,96.55
1741.00,96.53
1740.00,96.49
1739.00,96.45
1738.00,96.43
1737.00,96.42
1736.00,96.39
1735.00,96.33
1734.00,96.26
1733.00,96.17
1732.00,96.11
1731.00,96.10
1730.00,96.12
1729.00,96.10
1728.00,96.04
1727.00,95.98
1726.00,95.94
1725.00,95.90
1724.00,95.86
1723.00,95.83
1722.00,95.80
1721.00,95.75
1720.00,95.70
1719.00,95.61
1718.00,95.50
1717.00,95.37
1716.00,95.24
1715.00,95.16
1714.00,95.11
1713.00,95.02
1712.00,94.88
1711.00,94.73
1710.00,94.59
1709.00,94.42
1708.00,94.24
1707.00,94.03
1706.00,93.80
1705.00,93.53
1704.00,93.29
1703.00,93.09
1702.00,92.87
1701.00,92.48
1700.00,91.97
1699.00,91.53
1698.00,91.16
1697.00,90.75
1696.00,90.23
1695.00,89.72
1694.00,89.34
1693.00,89.06
1692.00,88.77
1691.00,88.43
1690.00,88.04
1689.00,87.66
1688.00,87.31
1687.00,87.00
1686.00,86.66
1685.00,86.19
1684.00,85.64
1683.00,85.21
1682.00,84.92
1681.00,84.65
1680.00,84.35
1679.00,84.06
1678.00,83.80
1677.00,83.52
1676.00,83.16
1675.00,82.76
1674.00,82.40
1673.00,82.09
1672.00,81.80
1671.00,81.47
1670.00,81.07
1669.00,80.64
1668.00,80.23
1667.00,79.89
1666.00,79.61
1665.00,79.33
1664.00,79.00
1663.00,78.61
1662.00,78.21
1661.00,77.82
1660.00,77.45
1659.00,77.10
1658.00,76.79
1657.00,76.51
1656.00,76.24
1655.00,75.92
1654.00,75.41
1653.00,74.75
1652.00,74.22
1651.00,73.94
1650.00,73.83
1649.00,73.74
1648.00,73.54
1647.00,73.24
1646.00,72.94
1645.00,72.72
1644.00,72.55
1643.00,72.43
1642.00,72.34
1641.00,72.26
1640.00,72.18
1639.00,72.12
1638.00,72.08
1637.00,72.02
1636.00,71.91
1635.00,71.80
1634.00,71.74
1633.00,71.71
1632.00,71.69
1631.00,71.68
1630.00,71.67
1629.00,71.67
1628.00,71.69
1627.00,71.74
1626.00,71.83
1625.00,71.95
1624.00,72.10
1623.00,72.28
1622.00,72.49
1621.00,72.70
1620.00,72.92
1619.00,73.16
1618.00,73.46
1617.00,73.82
1616.00,74.21
1615.00,74.59
1614.00,74.97
1613.00,75.37
1612.00,75.79
1611.00,76.23
1610.00,76.67
1609.00,77.10
1608.00,77.53
1607.00,77.95
1606.00,78.37
1605.00,78.78
1604.00,79.19
1603.00,79.57
1602.00,79.94
1601.00,80.28
1600.00,80.61
1599.00,80.92
1598.00,81.21
1597.00,81.48
1596.00,81.76
1595.00,82.03
1594.00,82.28
1593.00,82.50
1592.00,82.71
1591.00,82.90
1590.00,83.07
1589.00,83.23
1588.00,83.40
1587.00,83.54
1586.00,83.66
1585.00,83.75
1584.00,83.84
1583.00,83.91
1582.00,83.96
1581.00,83.97
1580.00,83.98
1579.00,83.98
1578.00,83.93
1577.00,83.82
1576.00,83.70
1575.00,83.59
1574.00,83.53
1573.00,83.49
1572.00,83.45
1571.00,83.36
1570.00,83.19
1569.00,82.99
1568.00,82.80
1567.00,82.61
1566.00,82.40
1565.00,82.17
1564.00,81.95
1563.00,81.77
1562.00,81.60
1561.00,81.39
1560.00,81.06
1559.00,80.57
1558.00,80.09
1557.00,79.77
1556.00,79.51
1555.00,79.24
1554.00,78.91
1553.00,78.60
1552.00,78.32
1551.00,78.05
1550.00,77.74
1549.00,77.42
1548.00,77.14
1547.00,76.89
1546.00,76.66
1545.00,76.42
1544.00,76.20
1543.00,76.01
1542.00,75.82
1541.00,75.58
1540.00,75.28
1539.00,75.01
1538.00,74.81
1537.00,74.70
1536.00,74.65
1535.00,74.60
1534.00,74.51
1533.00,74.39
1532.00,74.29
1531.00,74.21
1530.00,74.14
1529.00,74.08
1528.00,74.03
1527.00,73.97
1526.00,73.92
1525.00,73.90
1524.00,73.90
1523.00,73.89
1522.00,73.83
1521.00,73.75
1520.00,73.70
1519.00,73.68
1518.00,73.67
1517.00,73.65
1516.00,73.64
1515.00,73.66
1514.00,73.71
1513.00,73.81
1512.00,73.93
1511.00,74.07
1510.00,74.23
1509.00,74.39
1508.00,74.61
1507.00,74.91
1506.00,75.24
1505.00,75.52
1504.00,75.74
1503.00,75.97
1502.00,76.24
1501.00,76.53
1500.00,76.85
1499.00,77.18
1498.00,77.53
1497.00,77.90
1496.00,78.28
1495.00,78.64
1494.00,78.99
1493.00,79.35
1492.00,79.73
1491.00,80.14
1490.00,80.56
1489.00,80.95
1488.00,81.30
1487.00,81.61
1486.00,81.89
1485.00,82.14
1484.00,82.36
1483.00,82.57
1482.00,82.77
1481.00,82.95
1480.00,83.09
1479.00,83.20
1478.00,83.28
1477.00,83.33
1476.00,83.35
1475.00,83.33
1474.00,83.27
1473.00,83.15
1472.00,83.01
1471.00,82.89
1470.00,82.80
1469.00,82.73
1468.00,82.67
1467.00,82.63
1466.00,82.61
1465.00,82.57
1464.00,82.51
1463.00,82.43
1462.00,82.35
1461.00,82.28
1460.00,82.20
1459.00,82.11
1458.00,81.96
1457.00,81.76
1456.00,81.56
1455.00,81.42
1454.00,81.34
1453.00,81.30
1452.00,81.27
1451.00,81.23
1450.00,81.21
1449.00,81.21
1448.00,81.20
1447.00,81.21
1446.00,81.23
1445.00,81.25
1444.00,81.29
1443.00,81.34
1442.00,81.40
1441.00,81.48
1440.00,81.56
1439.00,81.65
1438.00,81.76
1437.00,81.88
1436.00,82.01
1435.00,82.14
1434.00,82.28
1433.00,82.42
1432.00,82.57
1431.00,82.72
1430.00,82.86
1429.00,82.98
1428.00,83.06
1427.00,83.12
1426.00,83.18
1425.00,83.23
1424.00,83.28
1423.00,83.31
1422.00,83.32
1421.00,83.32
1420.00,83.30
1419.00,83.28
1418.00,83.27
1417.00,83.28
1416.00,83.28
1415.00,83.27
1414.00,83.24
1413.00,83.21
1412.00,83.18
1411.00,83.15
1410.00,83.13
1409.00,83.11
1408.00,83.09
1407.00,83.06
1406.00,83.03
1405.00,83.00
1404.00,82.98
1403.00,82.95
1402.00,82.94
1401.00,82.93
1400.00,82.91
1399.00,82.89
1398.00,82.87
1397.00,82.84
1396.00,82.83
1395.00,82.81
1394.00,82.79
1393.00,82.77
1392.00,82.74
1391.00,82.71
1390.00,82.70
1389.00,82.70
1388.00,82.70
1387.00,82.71
1386.00,82.74
1385.00,82.80
1384.00,82.88
1383.00,82.97
1382.00,83.06
1381.00,83.14
1380.00,83.22
1379.00,83.30
1378.00,83.39
1377.00,83.47
1376.00,83.55
1375.00,83.63
1374.00,83.70
1373.00,83.76
1372.00,83.81
1371.00,83.85
1370.00,83.89
1369.00,83.95
1368.00,84.01
1367.00,84.08
1366.00,84.16
1365.00,84.25
1364.00,84.36
1363.00,84.47
1362.00,84.57
1361.00,84.64
1360.00,84.68
1359.00,84.71
1358.00,84.73
1357.00,84.76
1356.00,84.78
1355.00,84.79
1354.00,84.80
1353.00,84.79
1352.00,84.79
1351.00,84.77
1350.00,84.74
1349.00,84.71
1348.00,84.67
1347.00,84.63
1346.00,84.59
1345.00,84.56
1344.00,84.52
1343.00,84.48
1342.00,84.44
1341.00,84.40
1340.00,84.36
1339.00,84.33
1338.00,84.30
1337.00,84.29
1336.00,84.27
1335.00,84.25
1334.00,84.22
1333.00,84.20
1332.00,84.17
1331.00,84.16
1330.00,84.16
1329.00,84.15
1328.00,84.13
1327.00,84.12
1326.00,84.12
1325.00,84.12
1324.00,84.11
1323.00,84.11
1322.00,84.10
1321.00,84.10
1320.00,84.09
1319.00,84.08
1318.00,84.08
1317.00,84.08
1316.00,84.09
1315.00,84.09
1314.00,84.09
1313.00,84.10
1312.00,84.12
1311.00,84.14
1310.00,84.16
1309.00,84.18
1308.00,84.19
1307.00,84.21
1306.00,84.21
1305.00,84.22
1304.00,84.22
1303.00,84.21
1302.00,84.21
1301.00,84.21
1300.00,84.21
1299.00,84.21
1298.00,84.21
1297.00,84.22
1296.00,84.23
1295.00,84.23
1294.00,84.23
1293.00,84.22
1292.00,84.20
1291.00,84.18
1290.00,84.16
1289.00,84.14
1288.00,84.14
1287.00,84.13
1286.00,84.13
1285.00,84.13
1284.00,84.12
1283.00,84.10
1282.00,84.07
1281.00,84.05
1280.00,84.02
1279.00,84.00
1278.00,83.97
1277.00,83.94
1276.00,83.91
1275.00,83.87
1274.00,83.84
1273.00,83.81
1272.00,83.77
1271.00,83.75
1270.00,83.73
1269.00,83.70
1268.00,83.67
1267.00,83.63
1266.00,83.59
1265.00,83.54
1264.00,83.49
1263.00,83.45
1262.00,83.39
1261.00,83.33
1260.00,83.26
1259.00,83.20
1258.00,83.13
1257.00,83.07
1256.00,82.99
1255.00,82.92
1254.00,82.85
1253.00,82.79
1252.00,82.72
1251.00,82.64
1250.00,82.57
1249.00,82.49
1248.00,82.41
1247.00,82.33
1246.00,82.25
1245.00,82.17
1244.00,82.08
1243.00,81.99
1242.00,81.91
1241.00,81.84
1240.00,81.78
1239.00,81.73
1238.00,81.68
1237.00,81.65
1236.00,81.62
1235.00,81.59
1234.00,81.58
1233.00,81.58
1232.00,81.58
1231.00,81.58
1230.00,81.59
1229.00,81.61
1228.00,81.64
1227.00,81.67
1226.00,81.72
1225.00,81.78
1224.00,81.85
1223.00,81.93
1222.00,82.01
1221.00,82.10
1220.00,82.18
1219.00,82.26
1218.00,82.34
1217.00,82.42
1216.00,82.50
1215.00,82.58
1214.00,82.67
1213.00,82.75
1212.00,82.82
1211.00,82.86
1210.00,82.90
1209.00,82.93
1208.00,82.96
1207.00,82.98
1206.00,83.00
1205.00,83.04
1204.00,83.07
1203.00,83.10
1202.00,83.12
1201.00,83.15
1200.00,83.18
1199.00,83.22
1198.00,83.27
1197.00,83.32
1196.00,83.36
1195.00,83.39
1194.00,83.42
1193.00,83.46
1192.00,83.51
1191.00,83.56
1190.00,83.61
1189.00,83.65
1188.00,83.67
1187.00,83.67
1186.00,83.67
1185.00,83.68
1184.00,83.70
1183.00,83.73
1182.00,83.78
1181.00,83.83
1180.00,83.87
1179.00,83.88
1178.00,83.87
1177.00,83.86
1176.00,83.84
1175.00,83.84
1174.00,83.84
1173.00,83.85
1172.00,83.86
1171.00,83.89
1170.00,83.93
1169.00,83.98
1168.00,84.04
1167.00,84.11
1166.00,84.17
1165.00,84.21
1164.00,84.24
1163.00,84.27
1162.00,84.30
1161.00,84.34
1160.00,84.38
1159.00,84.42
1158.00,84.46
1157.00,84.50
1156.00,84.55
1155.00,84.60
1154.00,84.65
1153.00,84.70
1152.00,84.75
1151.00,84.79
1150.00,84.83
1149.00,84.87
1148.00,84.91
1147.00,84.95
1146.00,85.01
1145.00,85.08
1144.00,85.13
1143.00,85.16
1142.00,85.19
1141.00,85.23
1140.00,85.29
1139.00,85.34
1138.00,85.37
1137.00,85.37
1136.00,85.36
1135.00,85.34
1134.00,85.33
1133.00,85.32
1132.00,85.32
1131.00,85.31
1130.00,85.31
1129.00,85.29
1128.00,85.26
1127.00,85.21
1126.00,85.17
1125.00,85.14
1124.00,85.13
1123.00,85.11
1122.00,85.09
1121.00,85.08
1120.00,85.08
1119.00,85.09
1118.00,85.10
1117.00,85.10
1116.00,85.08
1115.00,85.05
1114.00,85.03
1113.00,85.02
1112.00,85.02
1111.00,85.02
1110.00,85.00
1109.00,84.95
1108.00,84.91
1107.00,84.88
1106.00,84.88
1105.00,84.87
1104.00,84.83
1103.00,84.77
1102.00,84.70
1101.00,84.67
1100.00,84.67
1099.00,84.68
1098.00,84.68
1097.00,84.67
1096.00,84.66
1095.00,84.64
1094.00,84.63
1093.00,84.63
1092.00,84.64
1091.00,84.64
1090.00,84.63
1089.00,84.60
1088.00,84.56
1087.00,84.49
1086.00,84.42
1085.00,84.37
1084.00,84.34
1083.00,84.32
1082.00,84.29
1081.00,84.26
1080.00,84.25
1079.00,84.25
1078.00,84.25
1077.00,84.22
1076.00,84.19
1075.00,84.17
1074.00,84.17
1073.00,84.20
1072.00,84.23
1071.00,84.25
1070.00,84.26
1069.00,84.27
1068.00,84.29
1067.00,84.32
1066.00,84.37
1065.00,84.42
1064.00,84.44
1063.00,84.45
1062.00,84.44
1061.00,84.44
1060.00,84.45
1059.00,84.46
1058.00,84.47
1057.00,84.47
1056.00,84.47
1055.00,84.46
1054.00,84.41
1053.00,84.33
1052.00,84.22
1051.00,84.12
1050.00,84.01
1049.00,83.89
1048.00,83.74
1047.00,83.59
1046.00,83.43
1045.00,83.30
1044.00,83.21
1043.00,83.17
1042.00,83.17
1041.00,83.21
1040.00,83.28
1039.00,83.38
1038.00,83.50
1037.00,83.64
1036.00,83.80
1035.00,83.97
1034.00,84.14
1033.00,84.30
1032.00,84.45
1031.00,84.57
1030.00,84.67
1029.00,84.76
1028.00,84.86
1027.00,84.97
1026.00,85.08
1025.00,85.19
1024.00,85.28
1023.00,85.35
1022.00,85.42
1021.00,85.49
1020.00,85.55
1019.00,85.62
1018.00,85.69
1017.00,85.77
1016.00,85.85
1015.00,85.93
1014.00,86.00
1013.00,86.07
1012.00,86.13
1011.00,86.18
1010.00,86.25
1009.00,86.33
1008.00,86.41
1007.00,86.48
1006.00,86.54
1005.00,86.59
1004.00,86.66
1003.00,86.75
1002.00,86.85
1001.00,86.96
1000.00,87.04
999.00,87.11
998.00,87.16
997.00,87.20
996.00,87.25
995.00,87.30
994.00,87.36
993.00,87.41
992.00,87.46
991.00,87.50
990.00,87.54
989.00,87.58
988.00,87.61
987.00,87.63
986.00,87.67
985.00,87.71
984.00,87.77
983.00,87.82
982.00,87.86
981.00,87.89
980.00,87.90
979.00,87.92
978.00,87.93
977.00,87.94
976.00,87.95
975.00,87.97
974.00,87.99
973.00,88.02
972.00,88.07
971.00,88.12
970.00,88.18
969.00,88.21
968.00,88.22
967.00,88.22
966.00,88.21
965.00,88.21
964.00,88.21
963.00,88.21
962.00,88.23
961.00,88.25
960.00,88.29
959.00,88.34
958.00,88.37
957.00,88.38
956.00,88.37
955.00,88.36
954.00,88.37
953.00,88.39
952.00,88.43
951.00,88.45
950.00,88.46
949.00,88.47
948.00,88.47
947.00,88.48
946.00,88.48
945.00,88.47
944.00,88.46
943.00,88.45
942.00,88.45
941.00,88.46
940.00,88.47
939.00,88.49
938.00,88.49
937.00,88.49
936.00,88.46
935.00,88.43
934.00,88.39
933.00,88.38
932.00,88.37
931.00,88.36
930.00,88.34
929.00,88.31
928.00,88.29
927.00,88.29
926.00,88.32
925.00,88.35
924.00,88.37
923.00,88.38
922.00,88.39
921.00,88.40
920.00,88.42
919.00,88.45
918.00,88.48
917.00,88.50
916.00,88.50
915.00,88.49
914.00,88.49
913.00,88.52
912.00,88.57
911.00,88.61
910.00,88.64
909.00,88.65
908.00,88.65
907.00,88.65
906.00,88.64
905.00,88.64
904.00,88.62
903.00,88.60
902.00,88.60
901.00,88.62
900.00,88.65
899.00,88.67
898.00,88.68
897.00,88.68
896.00,88.68
895.00,88.69
894.00,88.69
893.00,88.70
892.00,88.69
891.00,88.66
890.00,88.63
889.00,88.61
888.00,88.58
887.00,88.55
886.00,88.54
885.00,88.54
884.00,88.56
883.00,88.58
882.00,88.59
881.00,88.57
880.00,88.55
879.00,88.51
878.00,88.49
877.00,88.47
876.00,88.48
875.00,88.50
874.00,88.53
873.00,88.54
872.00,88.53
871.00,88.52
870.00,88.51
869.00,88.52
868.00,88.53
867.00,88.53
866.00,88.51
865.00,88.49
864.00,88.47
863.00,88.47
862.00,88.49
861.00,88.50
860.00,88.48
859.00,88.44
858.00,88.39
857.00,88.34
856.00,88.30
855.00,88.27
854.00,88.24
853.00,88.24
852.00,88.24
851.00,88.23
850.00,88.21
849.00,88.19
848.00,88.17
847.00,88.16
846.00,88.14
845.00,88.11
844.00,88.06
843.00,88.00
842.00,87.93
841.00,87.87
840.00,87.81
839.00,87.75
838.00,87.69
837.00,87.63
836.00,87.59
835.00,87.58
834.00,87.58
833.00,87.57
832.00,87.56
831.00,87.52
830.00,87.48
829.00,87.45
828.00,87.42
827.00,87.38
826.00,87.35
825.00,87.31
824.00,87.28
823.00,87.26
822.00,87.25
821.00,87.25
820.00,87.24
819.00,87.22
818.00,87.18
817.00,87.11
816.00,87.03
815.00,86.97
814.00,86.95
813.00,86.95
812.00,86.95
811.00,86.93
810.00,86.88
809.00,86.83
808.00,86.77
807.00,86.71
806.00,86.63
805.00,86.53
804.00,86.44
803.00,86.37
802.00,86.34
801.00,86.32
800.00,86.28
799.00,86.23
798.00,86.17
797.00,86.12
796.00,86.09
795.00,86.05
794.00,86.02
793.00,85.97
792.00,85.92
791.00,85.89
790.00,85.88
789.00,85.87
788.00,85.85
787.00,85.81
786.00,85.74
785.00,85.68
784.00,85.62
783.00,85.58
782.00,85.55
781.00,85.52
780.00,85.47
779.00,85.39
778.00,85.30
777.00,85.22
776.00,85.14
775.00,85.08
774.00,85.03
773.00,84.98
772.00,84.91
771.00,84.85
770.00,84.82
769.00,84.82
768.00,84.82
767.00,84.78
766.00,84.70
765.00,84.60
764.00,84.52
763.00,84.47
762.00,84.42
761.00,84.34
760.00,84.21
759.00,84.09
758.00,84.00
757.00,83.96
756.00,83.92
755.00,83.86
754.00,83.78
753.00,83.67
752.00,83.55
751.00,83.44
750.00,83.36
749.00,83.32
748.00,83.29
747.00,83.25
746.00,83.19
745.00,83.11
744.00,83.03
743.00,82.96
742.00,82.90
741.00,82.87
740.00,82.83
739.00,82.79
738.00,82.75
737.00,82.73
736.00,82.72
735.00,82.72
734.00,82.70
733.00,82.65
732.00,82.60
731.00,82.55
730.00,82.50
729.00,82.41
728.00,82.29
727.00,82.17
726.00,82.09
725.00,82.04
724.00,82.00
723.00,81.96
722.00,81.91
721.00,81.86
720.00,81.79
719.00,81.71
718.00,81.65
717.00,81.60
716.00,81.52
715.00,81.44
714.00,81.36
713.00,81.28
712.00,81.18
711.00,81.06
710.00,80.94
709.00,80.82
708.00,80.68
707.00,80.52
706.00,80.34
705.00,80.20
704.00,80.09
703.00,80.01
702.00,79.93
701.00,79.84
700.00,79.74
699.00,79.66
698.00,79.63
697.00,79.61
696.00,79.57
695.00,79.50
694.00,79.41
693.00,79.34
692.00,79.28
691.00,79.20
690.00,79.13
689.00,79.09
688.00,79.09
687.00,79.10
686.00,79.08
685.00,78.99
684.00,78.89
683.00,78.80
682.00,78.77
681.00,78.74
680.00,78.68
679.00,78.57
678.00,78.44
677.00,78.33
676.00,78.25
675.00,78.17
674.00,78.11
673.00,78.04
672.00,78.00
671.00,77.99
670.00,77.99
669.00,77.91
668.00,77.67
667.00,77.41
666.00,77.26
665.00,77.19
664.00,77.10
663.00,76.99
662.00,76.92
661.00,76.88
660.00,76.84
659.00,76.75
658.00,76.61
657.00,76.47
656.00,76.38
655.00,76.35
654.00,76.37
653.00,76.40
652.00,76.40
651.00,76.35
650.00,76.27
649.00,76.20
648.00,76.15
647.00,76.14
646.00,76.12
645.00,76.02
644.00,75.87
643.00,75.71
642.00,75.62
641.00,75.59
640.00,75.61
639.00,75.66
638.00,75.73
637.00,75.75
636.00,75.70
635.00,75.68
634.00,75.75
633.00,75.88
632.00,75.93
631.00,75.87
630.00,75.77
629.00,75.73
628.00,75.73
627.00,75.70
626.00,75.57
625.00,75.36
624.00,75.16
623.00,75.09
622.00,75.17
621.00,75.32
620.00,75.46
619.00,75.50
618.00,75.39
617.00,75.16
616.00,74.87
615.00,74.59
614.00,74.32
613.00,74.07
612.00,73.90
611.00,73.86
610.00,73.90
609.00,73.95
608.00,74.03
607.00,74.17
606.00,74.35
605.00,74.45
604.00,74.27
603.00,73.74
602.00,72.94
601.00,72.23
600.00,72.02
599.00,72.42
598.00,73.09
597.00,73.53
596.00,73.59
595.00,73.58
594.00,73.68
593.00,73.72
592.00,73.51
591.00,73.13
590.00,72.82
589.00,72.64
588.00,72.53
587.00,72.53
586.00,72.69
585.00,73.01
584.00,73.42
583.00,73.78
582.00,73.83
581.00,73.40
580.00,72.73
579.00,72.34
578.00,72.51
577.00,72.89
576.00,73.04
575.00,72.94
574.00,72.82
573.00,72.71
572.00,72.48
571.00,72.11
570.00,71.70
569.00,71.30
568.00,70.99
567.00,70.96
566.00,71.26
565.00,71.69
564.00,72.05
563.00,72.34
562.00,72.55
561.00,72.56
560.00,72.28
559.00,71.88
558.00,71.60
557.00,71.56
556.00,71.72
555.00,71.97
554.00,72.05
553.00,71.77
552.00,71.26
551.00,71.01
550.00,71.23
