Created as New Dataset,Natural, 7.4. 
cm-1,%T
4000.00,99.19
3999.00,99.18
3998.00,99.16
3997.00,99.15
3996.00,99.13
3995.00,99.10
3994.00,99.07
3993.00,99.05
3992.00,99.05
3991.00,99.07
3990.00,99.10
3989.00,99.12
3988.00,99.11
3987.00,99.10
3986.00,99.08
3985.00,99.07
3984.00,99.07
3983.00,99.08
3982.00,99.08
3981.00,99.07
3980.00,99.06
3979.00,99.06
3978.00,99.05
3977.00,99.04
3976.00,99.04
3975.00,99.04
3974.00,99.05
3973.00,99.06
3972.00,99.06
3971.00,99.05
3970.00,99.03
3969.00,99.01
3968.00,98.98
3967.00,98.97
3966.00,98.98
3965.00,99.00
3964.00,99.03
3963.00,99.06
3962.00,99.08
3961.00,99.09
3960.00,99.09
3959.00,99.09
3958.00,99.10
3957.00,99.11
3956.00,99.11
3955.00,99.12
3954.00,99.11
3953.00,99.10
3952.00,99.08
3951.00,99.06
3950.00,99.04
3949.00,99.04
3948.00,99.04
3947.00,99.05
3946.00,99.04
3945.00,99.03
3944.00,99.02
3943.00,99.02
3942.00,99.03
3941.00,99.04
3940.00,99.05
3939.00,99.06
3938.00,99.06
3937.00,99.06
3936.00,99.05
3935.00,99.04
3934.00,99.02
3933.00,99.00
3932.00,99.00
3931.00,99.01
3930.00,99.03
3929.00,99.03
3928.00,99.02
3927.00,99.01
3926.00,99.00
3925.00,99.02
3924.00,99.04
3923.00,99.05
3922.00,99.06
3921.00,99.05
3920.00,99.03
3919.00,99.00
3918.00,99.00
3917.00,99.01
3916.00,99.04
3915.00,99.07
3914.00,99.09
3913.00,99.09
3912.00,99.09
3911.00,99.08
3910.00,99.08
3909.00,99.08
3908.00,99.07
3907.00,99.05
3906.00,99.04
3905.00,99.04
3904.00,99.06
3903.00,99.08
3902.00,99.09
3901.00,99.09
3900.00,99.08
3899.00,99.08
3898.00,99.09
3897.00,99.11
3896.00,99.11
3895.00,99.11
3894.00,99.11
3893.00,99.10
3892.00,99.10
3891.00,99.09
3890.00,99.08
3889.00,99.06
3888.00,99.05
3887.00,99.06
3886.00,99.07
3885.00,99.08
3884.00,99.08
3883.00,99.08
3882.00,99.08
3881.00,99.10
3880.00,99.11
3879.00,99.11
3878.00,99.11
3877.00,99.09
3876.00,99.08
3875.00,99.07
3874.00,99.07
3873.00,99.08
3872.00,99.07
3871.00,99.06
3870.00,99.05
3869.00,99.04
3868.00,99.05
3867.00,99.06
3866.00,99.06
3865.00,99.06
3864.00,99.05
3863.00,99.04
3862.00,99.04
3861.00,99.04
3860.00,99.06
3859.00,99.08
3858.00,99.10
3857.00,99.12
3856.00,99.14
3855.00,99.14
3854.00,99.13
3853.00,99.13
3852.00,99.13
3851.00,99.12
3850.00,99.11
3849.00,99.09
3848.00,99.08
3847.00,99.07
3846.00,99.07
3845.00,99.07
3844.00,99.06
3843.00,99.06
3842.00,99.05
3841.00,99.04
3840.00,99.03
3839.00,99.01
3838.00,99.01
3837.00,99.03
3836.00,99.05
3835.00,99.08
3834.00,99.09
3833.00,99.09
3832.00,99.08
3831.00,99.06
3830.00,99.03
3829.00,99.01
3828.00,99.00
3827.00,98.99
3826.00,98.99
3825.00,98.99
3824.00,98.99
3823.00,98.99
3822.00,98.99
3821.00,99.01
3820.00,99.02
3819.00,99.01
3818.00,98.99
3817.00,98.96
3816.00,98.95
3815.00,98.96
3814.00,98.97
3813.00,98.97
3812.00,98.97
3811.00,98.97
3810.00,98.98
3809.00,98.99
3808.00,99.00
3807.00,99.01
3806.00,99.01
3805.00,99.01
3804.00,99.01
3803.00,99.00
3802.00,98.99
3801.00,98.98
3800.00,98.96
3799.00,98.95
3798.00,98.95
3797.00,98.97
3796.00,98.99
3795.00,99.00
3794.00,99.01
3793.00,99.01
3792.00,99.01
3791.00,99.00
3790.00,98.99
3789.00,98.97
3788.00,98.94
3787.00,98.91
3786.00,98.90
3785.00,98.90
3784.00,98.93
3783.00,98.97
3782.00,99.00
3781.00,99.03
3780.00,99.05
3779.00,99.05
3778.00,99.04
3777.00,99.01
3776.00,98.99
3775.00,98.96
3774.00,98.94
3773.00,98.92
3772.00,98.91
3771.00,98.91
3770.00,98.92
3769.00,98.93
3768.00,98.96
3767.00,98.98
3766.00,98.99
3765.00,99.00
3764.00,98.99
3763.00,98.97
3762.00,98.95
3761.00,98.94
3760.00,98.93
3759.00,98.93
3758.00,98.92
3757.00,98.91
3756.00,98.90
3755.00,98.89
3754.00,98.88
3753.00,98.86
3752.00,98.85
3751.00,98.87
3750.00,98.91
3749.00,98.95
3748.00,98.98
3747.00,99.01
3746.00,99.01
3745.00,99.00
3744.00,98.98
3743.00,98.98
3742.00,98.97
3741.00,98.95
3740.00,98.93
3739.00,98.93
3738.00,98.93
3737.00,98.93
3736.00,98.93
3735.00,98.92
3734.00,98.91
3733.00,98.91
3732.00,98.91
3731.00,98.89
3730.00,98.87
3729.00,98.85
3728.00,98.84
3727.00,98.84
3726.00,98.84
3725.00,98.83
3724.00,98.82
3723.00,98.82
3722.00,98.82
3721.00,98.83
3720.00,98.83
3719.00,98.83
3718.00,98.82
3717.00,98.81
3716.00,98.80
3715.00,98.79
3714.00,98.78
3713.00,98.77
3712.00,98.76
3711.00,98.75
3710.00,98.74
3709.00,98.74
3708.00,98.75
3707.00,98.75
3706.00,98.76
3705.00,98.76
3704.00,98.77
3703.00,98.77
3702.00,98.77
3701.00,98.77
3700.00,98.77
3699.00,98.78
3698.00,98.78
3697.00,98.79
3696.00,98.78
3695.00,98.77
3694.00,98.76
3693.00,98.76
3692.00,98.75
3691.00,98.74
3690.00,98.72
3689.00,98.72
3688.00,98.72
3687.00,98.72
3686.00,98.72
3685.00,98.71
3684.00,98.71
3683.00,98.70
3682.00,98.71
3681.00,98.72
3680.00,98.73
3679.00,98.74
3678.00,98.74
3677.00,98.73
3676.00,98.71
3675.00,98.70
3674.00,98.69
3673.00,98.68
3672.00,98.65
3671.00,98.61
3670.00,98.58
3669.00,98.56
3668.00,98.55
3667.00,98.55
3666.00,98.53
3665.00,98.51
3664.00,98.49
3663.00,98.47
3662.00,98.46
3661.00,98.46
3660.00,98.46
3659.00,98.46
3658.00,98.46
3657.00,98.44
3656.00,98.43
3655.00,98.41
3654.00,98.39
3653.00,98.38
3652.00,98.38
3651.00,98.38
3650.00,98.38
3649.00,98.36
3648.00,98.32
3647.00,98.28
3646.00,98.24
3645.00,98.21
3644.00,98.19
3643.00,98.16
3642.00,98.14
3641.00,98.13
3640.00,98.12
3639.00,98.11
3638.00,98.11
3637.00,98.11
3636.00,98.10
3635.00,98.09
3634.00,98.08
3633.00,98.07
3632.00,98.08
3631.00,98.09
3630.00,98.09
3629.00,98.08
3628.00,98.05
3627.00,98.00
3626.00,97.95
3625.00,97.91
3624.00,97.88
3623.00,97.87
3622.00,97.87
3621.00,97.88
3620.00,97.89
3619.00,97.89
3618.00,97.87
3617.00,97.84
3616.00,97.81
3615.00,97.77
3614.00,97.73
3613.00,97.70
3612.00,97.67
3611.00,97.64
3610.00,97.62
3609.00,97.61
3608.00,97.61
3607.00,97.60
3606.00,97.57
3605.00,97.53
3604.00,97.50
3603.00,97.47
3602.00,97.46
3601.00,97.46
3600.00,97.46
3599.00,97.45
3598.00,97.42
3597.00,97.38
3596.00,97.35
3595.00,97.33
3594.00,97.31
3593.00,97.29
3592.00,97.28
3591.00,97.27
3590.00,97.28
3589.00,97.30
3588.00,97.30
3587.00,97.27
3586.00,97.21
3585.00,97.16
3584.00,97.13
3583.00,97.12
3582.00,97.11
3581.00,97.09
3580.00,97.06
3579.00,97.02
3578.00,97.00
3577.00,96.98
3576.00,96.97
3575.00,96.96
3574.00,96.95
3573.00,96.94
3572.00,96.91
3571.00,96.88
3570.00,96.85
3569.00,96.84
3568.00,96.84
3567.00,96.83
3566.00,96.81
3565.00,96.77
3564.00,96.72
3563.00,96.67
3562.00,96.62
3561.00,96.58
3560.00,96.53
3559.00,96.50
3558.00,96.48
3557.00,96.48
3556.00,96.49
3555.00,96.49
3554.00,96.48
3553.00,96.46
3552.00,96.42
3551.00,96.39
3550.00,96.36
3549.00,96.34
3548.00,96.33
3547.00,96.31
3546.00,96.29
3545.00,96.25
3544.00,96.22
3543.00,96.20
3542.00,96.18
3541.00,96.18
3540.00,96.17
3539.00,96.15
3538.00,96.12
3537.00,96.09
3536.00,96.06
3535.00,96.04
3534.00,96.02
3533.00,96.01
3532.00,96.01
3531.00,96.02
3530.00,96.00
3529.00,95.98
3528.00,95.94
3527.00,95.90
3526.00,95.86
3525.00,95.85
3524.00,95.86
3523.00,95.87
3522.00,95.88
3521.00,95.86
3520.00,95.81
3519.00,95.76
3518.00,95.72
3517.00,95.71
3516.00,95.70
3515.00,95.68
3514.00,95.67
3513.00,95.65
3512.00,95.64
3511.00,95.64
3510.00,95.63
3509.00,95.62
3508.00,95.60
3507.00,95.56
3506.00,95.52
3505.00,95.48
3504.00,95.45
3503.00,95.43
3502.00,95.41
3501.00,95.39
3500.00,95.37
3499.00,95.35
3498.00,95.32
3497.00,95.29
3496.00,95.27
3495.00,95.25
3494.00,95.25
3493.00,95.24
3492.00,95.24
3491.00,95.22
3490.00,95.19
3489.00,95.15
3488.00,95.11
3487.00,95.08
3486.00,95.06
3485.00,95.05
3484.00,95.05
3483.00,95.06
3482.00,95.06
3481.00,95.05
3480.00,95.03
3479.00,95.01
3478.00,94.99
3477.00,94.98
3476.00,94.97
3475.00,94.96
3474.00,94.93
3473.00,94.90
3472.00,94.88
3471.00,94.86
3470.00,94.86
3469.00,94.85
3468.00,94.82
3467.00,94.79
3466.00,94.76
3465.00,94.75
3464.00,94.76
3463.00,94.77
3462.00,94.77
3461.00,94.76
3460.00,94.75
3459.00,94.72
3458.00,94.69
3457.00,94.65
3456.00,94.63
3455.00,94.60
3454.00,94.59
3453.00,94.58
3452.00,94.58
3451.00,94.57
3450.00,94.55
3449.00,94.53
3448.00,94.51
3447.00,94.49
3446.00,94.47
3445.00,94.46
3444.00,94.46
3443.00,94.46
3442.00,94.46
3441.00,94.46
3440.00,94.44
3439.00,94.41
3438.00,94.38
3437.00,94.34
3436.00,94.31
3435.00,94.28
3434.00,94.25
3433.00,94.23
3432.00,94.21
3431.00,94.20
3430.00,94.19
3429.00,94.17
3428.00,94.15
3427.00,94.13
3426.00,94.11
3425.00,94.10
3424.00,94.09
3423.00,94.09
3422.00,94.07
3421.00,94.05
3420.00,94.02
3419.00,94.00
3418.00,93.98
3417.00,93.97
3416.00,93.94
3415.00,93.91
3414.00,93.88
3413.00,93.86
3412.00,93.84
3411.00,93.82
3410.00,93.80
3409.00,93.79
3408.00,93.76
3407.00,93.74
3406.00,93.71
3405.00,93.70
3404.00,93.69
3403.00,93.68
3402.00,93.68
3401.00,93.66
3400.00,93.64
3399.00,93.61
3398.00,93.58
3397.00,93.56
3396.00,93.53
3395.00,93.51
3394.00,93.49
3393.00,93.48
3392.00,93.47
3391.00,93.46
3390.00,93.43
3389.00,93.41
3388.00,93.40
3387.00,93.39
3386.00,93.39
3385.00,93.36
3384.00,93.33
3383.00,93.29
3382.00,93.25
3381.00,93.22
3380.00,93.20
3379.00,93.19
3378.00,93.19
3377.00,93.17
3376.00,93.14
3375.00,93.10
3374.00,93.06
3373.00,93.05
3372.00,93.05
3371.00,93.07
3370.00,93.08
3369.00,93.07
3368.00,93.05
3367.00,93.02
3366.00,93.00
3365.00,92.98
3364.00,92.95
3363.00,92.92
3362.00,92.88
3361.00,92.84
3360.00,92.81
3359.00,92.78
3358.00,92.76
3357.00,92.75
3356.00,92.72
3355.00,92.70
3354.00,92.67
3353.00,92.65
3352.00,92.64
3351.00,92.62
3350.00,92.60
3349.00,92.58
3348.00,92.56
3347.00,92.54
3346.00,92.52
3345.00,92.50
3344.00,92.47
3343.00,92.44
3342.00,92.42
3341.00,92.40
3340.00,92.39
3339.00,92.38
3338.00,92.35
3337.00,92.31
3336.00,92.27
3335.00,92.23
3334.00,92.20
3333.00,92.19
3332.00,92.18
3331.00,92.16
3330.00,92.13
3329.00,92.09
3328.00,92.04
3327.00,92.00
3326.00,91.97
3325.00,91.95
3324.00,91.92
3323.00,91.89
3322.00,91.87
3321.00,91.84
3320.00,91.82
3319.00,91.79
3318.00,91.75
3317.00,91.71
3316.00,91.67
3315.00,91.65
3314.00,91.63
3313.00,91.61
3312.00,91.58
3311.00,91.55
3310.00,91.52
3309.00,91.48
3308.00,91.43
3307.00,91.38
3306.00,91.34
3305.00,91.31
3304.00,91.28
3303.00,91.26
3302.00,91.24
3301.00,91.22
3300.00,91.20
3299.00,91.18
3298.00,91.15
3297.00,91.12
3296.00,91.09
3295.00,91.07
3294.00,91.05
3293.00,91.03
3292.00,91.01
3291.00,90.98
3290.00,90.94
3289.00,90.91
3288.00,90.88
3287.00,90.86
3286.00,90.85
3285.00,90.84
3284.00,90.83
3283.00,90.83
3282.00,90.81
3281.00,90.78
3280.00,90.75
3279.00,90.73
3278.00,90.72
3277.00,90.71
3276.00,90.71
3275.00,90.72
3274.00,90.73
3273.00,90.76
3272.00,90.79
3271.00,90.80
3270.00,90.79
3269.00,90.77
3268.00,90.76
3267.00,90.77
3266.00,90.80
3265.00,90.83
3264.00,90.86
3263.00,90.89
3262.00,90.92
3261.00,90.94
3260.00,90.96
3259.00,90.99
3258.00,91.01
3257.00,91.04
3256.00,91.07
3255.00,91.10
3254.00,91.12
3253.00,91.13
3252.00,91.14
3251.00,91.15
3250.00,91.17
3249.00,91.19
3248.00,91.23
3247.00,91.27
3246.00,91.31
3245.00,91.35
3244.00,91.38
3243.00,91.41
3242.00,91.43
3241.00,91.45
3240.00,91.48
3239.00,91.50
3238.00,91.54
3237.00,91.57
3236.00,91.59
3235.00,91.61
3234.00,91.63
3233.00,91.64
3232.00,91.66
3231.00,91.68
3230.00,91.70
3229.00,91.72
3228.00,91.75
3227.00,91.78
3226.00,91.80
3225.00,91.82
3224.00,91.83
3223.00,91.84
3222.00,91.85
3221.00,91.86
3220.00,91.87
3219.00,91.89
3218.00,91.92
3217.00,91.96
3216.00,92.00
3215.00,92.02
3214.00,92.05
3213.00,92.06
3212.00,92.08
3211.00,92.09
3210.00,92.11
3209.00,92.14
3208.00,92.17
3207.00,92.19
3206.00,92.21
3205.00,92.23
3204.00,92.24
3203.00,92.26
3202.00,92.28
3201.00,92.30
3200.00,92.32
3199.00,92.34
3198.00,92.38
3197.00,92.41
3196.00,92.43
3195.00,92.45
3194.00,92.46
3193.00,92.48
3192.00,92.51
3191.00,92.55
3190.00,92.59
3189.00,92.62
3188.00,92.65
3187.00,92.69
3186.00,92.73
3185.00,92.77
3184.00,92.80
3183.00,92.82
3182.00,92.85
3181.00,92.87
3180.00,92.89
3179.00,92.91
3178.00,92.92
3177.00,92.93
3176.00,92.95
3175.00,92.98
3174.00,93.02
3173.00,93.07
3172.00,93.13
3171.00,93.18
3170.00,93.22
3169.00,93.25
3168.00,93.28
3167.00,93.30
3166.00,93.33
3165.00,93.36
3164.00,93.39
3163.00,93.42
3162.00,93.46
3161.00,93.49
3160.00,93.52
3159.00,93.55
3158.00,93.58
3157.00,93.62
3156.00,93.66
3155.00,93.72
3154.00,93.76
3153.00,93.78
3152.00,93.79
3151.00,93.79
3150.00,93.81
3149.00,93.85
3148.00,93.89
3147.00,93.93
3146.00,93.95
3145.00,93.98
3144.00,94.00
3143.00,94.01
3142.00,94.02
3141.00,94.03
3140.00,94.04
3139.00,94.06
3138.00,94.08
3137.00,94.11
3136.00,94.14
3135.00,94.17
3134.00,94.19
3133.00,94.20
3132.00,94.22
3131.00,94.24
3130.00,94.26
3129.00,94.29
3128.00,94.31
3127.00,94.34
3126.00,94.37
3125.00,94.39
3124.00,94.40
3123.00,94.42
3122.00,94.43
3121.00,94.45
3120.00,94.46
3119.00,94.46
3118.00,94.46
3117.00,94.47
3116.00,94.48
3115.00,94.49
3114.00,94.49
3113.00,94.48
3112.00,94.46
3111.00,94.45
3110.00,94.45
3109.00,94.46
3108.00,94.48
3107.00,94.51
3106.00,94.52
3105.00,94.53
3104.00,94.53
3103.00,94.52
3102.00,94.52
3101.00,94.51
3100.00,94.50
3099.00,94.50
3098.00,94.50
3097.00,94.50
3096.00,94.50
3095.00,94.49
3094.00,94.47
3093.00,94.45
3092.00,94.42
3091.00,94.40
3090.00,94.38
3089.00,94.38
3088.00,94.38
3087.00,94.39
3086.00,94.40
3085.00,94.41
3084.00,94.42
3083.00,94.41
3082.00,94.40
3081.00,94.37
3080.00,94.35
3079.00,94.34
3078.00,94.33
3077.00,94.33
3076.00,94.33
3075.00,94.34
3074.00,94.34
3073.00,94.33
3072.00,94.33
3071.00,94.32
3070.00,94.32
3069.00,94.32
3068.00,94.33
3067.00,94.35
3066.00,94.36
3065.00,94.36
3064.00,94.35
3063.00,94.33
3062.00,94.33
3061.00,94.34
3060.00,94.37
3059.00,94.41
3058.00,94.43
3057.00,94.44
3056.00,94.44
3055.00,94.45
3054.00,94.46
3053.00,94.49
3052.00,94.53
3051.00,94.56
3050.00,94.58
3049.00,94.59
3048.00,94.59
3047.00,94.59
3046.00,94.60
3045.00,94.61
3044.00,94.64
3043.00,94.67
3042.00,94.69
3041.00,94.71
3040.00,94.72
3039.00,94.74
3038.00,94.76
3037.00,94.78
3036.00,94.80
3035.00,94.83
3034.00,94.86
3033.00,94.88
3032.00,94.89
3031.00,94.90
3030.00,94.91
3029.00,94.94
3028.00,94.98
3027.00,95.03
3026.00,95.07
3025.00,95.08
3024.00,95.08
3023.00,95.08
3022.00,95.11
3021.00,95.15
3020.00,95.19
3019.00,95.23
3018.00,95.25
3017.00,95.26
3016.00,95.28
3015.00,95.31
3014.00,95.33
3013.00,95.34
3012.00,95.36
3011.00,95.37
3010.00,95.38
3009.00,95.38
3008.00,95.39
3007.00,95.39
3006.00,95.41
3005.00,95.41
3004.00,95.41
3003.00,95.40
3002.00,95.38
3001.00,95.37
3000.00,95.37
2999.00,95.36
2998.00,95.34
2997.00,95.32
2996.00,95.31
2995.00,95.29
2994.00,95.29
2993.00,95.28
2992.00,95.27
2991.00,95.26
2990.00,95.25
2989.00,95.23
2988.00,95.20
2987.00,95.17
2986.00,95.14
2985.00,95.11
2984.00,95.08
2983.00,95.04
2982.00,95.01
2981.00,94.97
2980.00,94.93
2979.00,94.89
2978.00,94.84
2977.00,94.80
2976.00,94.76
2975.00,94.72
2974.00,94.67
2973.00,94.62
2972.00,94.56
2971.00,94.51
2970.00,94.47
2969.00,94.43
2968.00,94.41
2967.00,94.40
2966.00,94.39
2965.00,94.39
2964.00,94.37
2963.00,94.36
2962.00,94.35
2961.00,94.34
2960.00,94.34
2959.00,94.32
2958.00,94.31
2957.00,94.31
2956.00,94.33
2955.00,94.37
2954.00,94.40
2953.00,94.41
2952.00,94.41
2951.00,94.40
2950.00,94.40
2949.00,94.42
2948.00,94.43
2947.00,94.43
2946.00,94.42
2945.00,94.40
2944.00,94.39
2943.00,94.39
2942.00,94.39
2941.00,94.39
2940.00,94.38
2939.00,94.36
2938.00,94.34
2937.00,94.33
2936.00,94.31
2935.00,94.29
2934.00,94.26
2933.00,94.23
2932.00,94.22
2931.00,94.21
2930.00,94.22
2929.00,94.23
2928.00,94.23
2927.00,94.23
2926.00,94.23
2925.00,94.23
2924.00,94.23
2923.00,94.23
2922.00,94.24
2921.00,94.26
2920.00,94.30
2919.00,94.34
2918.00,94.39
2917.00,94.44
2916.00,94.49
2915.00,94.55
2914.00,94.62
2913.00,94.69
2912.00,94.75
2911.00,94.82
2910.00,94.87
2909.00,94.92
2908.00,94.96
2907.00,94.99
2906.00,95.02
2905.00,95.05
2904.00,95.08
2903.00,95.10
2902.00,95.12
2901.00,95.14
2900.00,95.17
2899.00,95.20
2898.00,95.23
2897.00,95.26
2896.00,95.29
2895.00,95.32
2894.00,95.34
2893.00,95.35
2892.00,95.36
2891.00,95.36
2890.00,95.36
2889.00,95.37
2888.00,95.38
2887.00,95.39
2886.00,95.40
2885.00,95.40
2884.00,95.38
2883.00,95.37
2882.00,95.35
2881.00,95.34
2880.00,95.34
2879.00,95.34
2878.00,95.33
2877.00,95.34
2876.00,95.35
2875.00,95.37
2874.00,95.38
2873.00,95.39
2872.00,95.40
2871.00,95.41
2870.00,95.44
2869.00,95.47
2868.00,95.50
2867.00,95.53
2866.00,95.55
2865.00,95.57
2864.00,95.60
2863.00,95.63
2862.00,95.66
2861.00,95.69
2860.00,95.71
2859.00,95.74
2858.00,95.75
2857.00,95.75
2856.00,95.74
2855.00,95.72
2854.00,95.72
2853.00,95.72
2852.00,95.74
2851.00,95.76
2850.00,95.80
2849.00,95.85
2848.00,95.90
2847.00,95.95
2846.00,96.00
2845.00,96.04
2844.00,96.09
2843.00,96.13
2842.00,96.18
2841.00,96.23
2840.00,96.27
2839.00,96.30
2838.00,96.31
2837.00,96.32
2836.00,96.33
2835.00,96.35
2834.00,96.37
2833.00,96.38
2832.00,96.40
2831.00,96.42
2830.00,96.44
2829.00,96.46
2828.00,96.48
2827.00,96.50
2826.00,96.51
2825.00,96.53
2824.00,96.53
2823.00,96.54
2822.00,96.54
2821.00,96.54
2820.00,96.55
2819.00,96.55
2818.00,96.56
2817.00,96.56
2816.00,96.56
2815.00,96.57
2814.00,96.58
2813.00,96.59
2812.00,96.61
2811.00,96.62
2810.00,96.63
2809.00,96.63
2808.00,96.63
2807.00,96.63
2806.00,96.63
2805.00,96.65
2804.00,96.67
2803.00,96.69
2802.00,96.71
2801.00,96.73
2800.00,96.74
2799.00,96.75
2798.00,96.75
2797.00,96.75
2796.00,96.74
2795.00,96.74
2794.00,96.75
2793.00,96.77
2792.00,96.79
2791.00,96.81
2790.00,96.82
2789.00,96.82
2788.00,96.82
2787.00,96.82
2786.00,96.82
2785.00,96.81
2784.00,96.81
2783.00,96.82
2782.00,96.83
2781.00,96.85
2780.00,96.86
2779.00,96.88
2778.00,96.90
2777.00,96.91
2776.00,96.92
2775.00,96.92
2774.00,96.92
2773.00,96.92
2772.00,96.92
2771.00,96.92
2770.00,96.94
2769.00,96.95
2768.00,96.97
2767.00,96.97
2766.00,96.98
2765.00,96.99
2764.00,97.00
2763.00,97.02
2762.00,97.04
2761.00,97.05
2760.00,97.05
2759.00,97.05
2758.00,97.05
2757.00,97.06
2756.00,97.06
2755.00,97.08
2754.00,97.09
2753.00,97.10
2752.00,97.10
2751.00,97.09
2750.00,97.08
2749.00,97.08
2748.00,97.08
2747.00,97.08
2746.00,97.09
2745.00,97.10
2744.00,97.12
2743.00,97.13
2742.00,97.12
2741.00,97.11
2740.00,97.10
2739.00,97.11
2738.00,97.12
2737.00,97.13
2736.00,97.14
2735.00,97.15
2734.00,97.16
2733.00,97.18
2732.00,97.19
2731.00,97.20
2730.00,97.20
2729.00,97.20
2728.00,97.21
2727.00,97.21
2726.00,97.21
2725.00,97.22
2724.00,97.22
2723.00,97.23
2722.00,97.25
2721.00,97.27
2720.00,97.28
2719.00,97.29
2718.00,97.28
2717.00,97.28
2716.00,97.27
2715.00,97.27
2714.00,97.28
2713.00,97.30
2712.00,97.31
2711.00,97.32
2710.00,97.33
2709.00,97.34
2708.00,97.36
2707.00,97.37
2706.00,97.37
2705.00,97.36
2704.00,97.34
2703.00,97.33
2702.00,97.34
2701.00,97.35
2700.00,97.37
2699.00,97.38
2698.00,97.38
2697.00,97.38
2696.00,97.38
2695.00,97.39
2694.00,97.39
2693.00,97.38
2692.00,97.36
2691.00,97.36
2690.00,97.36
2689.00,97.37
2688.00,97.39
2687.00,97.40
2686.00,97.40
2685.00,97.41
2684.00,97.42
2683.00,97.43
2682.00,97.43
2681.00,97.43
2680.00,97.43
2679.00,97.44
2678.00,97.45
2677.00,97.45
2676.00,97.45
2675.00,97.45
2674.00,97.45
2673.00,97.46
2672.00,97.46
2671.00,97.46
2670.00,97.46
2669.00,97.46
2668.00,97.46
2667.00,97.47
2666.00,97.48
2665.00,97.49
2664.00,97.49
2663.00,97.47
2662.00,97.45
2661.00,97.42
2660.00,97.41
2659.00,97.40
2658.00,97.40
2657.00,97.41
2656.00,97.41
2655.00,97.40
2654.00,97.39
2653.00,97.37
2652.00,97.36
2651.00,97.36
2650.00,97.35
2649.00,97.34
2648.00,97.34
2647.00,97.34
2646.00,97.35
2645.00,97.37
2644.00,97.38
2643.00,97.38
2642.00,97.36
2641.00,97.33
2640.00,97.30
2639.00,97.29
2638.00,97.29
2637.00,97.30
2636.00,97.32
2635.00,97.33
2634.00,97.33
2633.00,97.31
2632.00,97.29
2631.00,97.27
2630.00,97.25
2629.00,97.24
2628.00,97.23
2627.00,97.23
2626.00,97.23
2625.00,97.22
2624.00,97.22
2623.00,97.21
2622.00,97.20
2621.00,97.19
2620.00,97.21
2619.00,97.23
2618.00,97.24
2617.00,97.24
2616.00,97.23
2615.00,97.21
2614.00,97.20
2613.00,97.19
2612.00,97.19
2611.00,97.20
2610.00,97.22
2609.00,97.23
2608.00,97.23
2607.00,97.22
2606.00,97.20
2605.00,97.19
2604.00,97.18
2603.00,97.18
2602.00,97.18
2601.00,97.19
2600.00,97.18
2599.00,97.17
2598.00,97.16
2597.00,97.17
2596.00,97.18
2595.00,97.19
2594.00,97.19
2593.00,97.18
2592.00,97.18
2591.00,97.17
2590.00,97.16
2589.00,97.14
2588.00,97.13
2587.00,97.12
2586.00,97.12
2585.00,97.13
2584.00,97.14
2583.00,97.14
2582.00,97.13
2581.00,97.11
2580.00,97.09
2579.00,97.08
2578.00,97.09
2577.00,97.11
2576.00,97.13
2575.00,97.14
2574.00,97.14
2573.00,97.13
2572.00,97.11
2571.00,97.11
2570.00,97.11
2569.00,97.11
2568.00,97.11
2567.00,97.10
2566.00,97.10
2565.00,97.09
2564.00,97.09
2563.00,97.09
2562.00,97.10
2561.00,97.11
2560.00,97.13
2559.00,97.14
2558.00,97.14
2557.00,97.14
2556.00,97.14
2555.00,97.14
2554.00,97.14
2553.00,97.13
2552.00,97.12
2551.00,97.12
2550.00,97.12
2549.00,97.12
2548.00,97.12
2547.00,97.11
2546.00,97.10
2545.00,97.09
2544.00,97.08
2543.00,97.09
2542.00,97.10
2541.00,97.11
2540.00,97.11
2539.00,97.10
2538.00,97.09
2537.00,97.07
2536.00,97.06
2535.00,97.04
2534.00,97.03
2533.00,97.03
2532.00,97.05
2531.00,97.08
2530.00,97.12
2529.00,97.15
2528.00,97.17
2527.00,97.16
2526.00,97.14
2525.00,97.12
2524.00,97.11
2523.00,97.11
2522.00,97.11
2521.00,97.12
2520.00,97.12
2519.00,97.11
2518.00,97.10
2517.00,97.10
2516.00,97.11
2515.00,97.13
2514.00,97.16
2513.00,97.18
2512.00,97.17
2511.00,97.15
2510.00,97.14
2509.00,97.13
2508.00,97.14
2507.00,97.15
2506.00,97.16
2505.00,97.16
2504.00,97.16
2503.00,97.16
2502.00,97.17
2501.00,97.17
2500.00,97.17
2499.00,97.17
2498.00,97.17
2497.00,97.16
2496.00,97.15
2495.00,97.14
2494.00,97.15
2493.00,97.17
2492.00,97.18
2491.00,97.18
2490.00,97.16
2489.00,97.15
2488.00,97.16
2487.00,97.18
2486.00,97.20
2485.00,97.20
2484.00,97.19
2483.00,97.19
2482.00,97.19
2481.00,97.18
2480.00,97.19
2479.00,97.21
2478.00,97.24
2477.00,97.26
2476.00,97.27
2475.00,97.26
2474.00,97.24
2473.00,97.23
2472.00,97.22
2471.00,97.21
2470.00,97.21
2469.00,97.21
2468.00,97.20
2467.00,97.19
2466.00,97.18
2465.00,97.18
2464.00,97.20
2463.00,97.22
2462.00,97.23
2461.00,97.22
2460.00,97.21
2459.00,97.21
2458.00,97.21
2457.00,97.21
2456.00,97.22
2455.00,97.22
2454.00,97.23
2453.00,97.23
2452.00,97.23
2451.00,97.23
2450.00,97.24
2449.00,97.24
2448.00,97.25
2447.00,97.27
2446.00,97.28
2445.00,97.28
2444.00,97.27
2443.00,97.27
2442.00,97.27
2441.00,97.27
2440.00,97.27
2439.00,97.26
2438.00,97.24
2437.00,97.23
2436.00,97.21
2435.00,97.20
2434.00,97.20
2433.00,97.21
2432.00,97.22
2431.00,97.24
2430.00,97.26
2429.00,97.29
2428.00,97.30
2427.00,97.31
2426.00,97.31
2425.00,97.32
2424.00,97.33
2423.00,97.34
2422.00,97.35
2421.00,97.35
2420.00,97.36
2419.00,97.37
2418.00,97.39
2417.00,97.41
2416.00,97.41
2415.00,97.41
2414.00,97.40
2413.00,97.39
2412.00,97.38
2411.00,97.37
2410.00,97.38
2409.00,97.40
2408.00,97.42
2407.00,97.42
2406.00,97.43
2405.00,97.44
2404.00,97.46
2403.00,97.50
2402.00,97.52
2401.00,97.52
2400.00,97.50
2399.00,97.49
2398.00,97.49
2397.00,97.48
2396.00,97.48
2395.00,97.48
2394.00,97.51
2393.00,97.54
2392.00,97.55
2391.00,97.56
2390.00,97.56
2389.00,97.55
2388.00,97.56
2387.00,97.56
2386.00,97.56
2385.00,97.56
2384.00,97.57
2383.00,97.59
2382.00,97.63
2381.00,97.68
2380.00,97.73
2379.00,97.79
2378.00,97.84
2377.00,97.87
2376.00,97.87
2375.00,97.85
2374.00,97.83
2373.00,97.78
2372.00,97.72
2371.00,97.68
2370.00,97.70
2369.00,97.77
2368.00,97.87
2367.00,97.95
2366.00,98.01
2365.00,98.05
2364.00,98.06
2363.00,98.02
2362.00,97.93
2361.00,97.83
2360.00,97.76
2359.00,97.76
2358.00,97.80
2357.00,97.85
2356.00,97.90
2355.00,97.92
2354.00,97.92
2353.00,97.92
2352.00,97.92
2351.00,97.94
2350.00,97.96
2349.00,97.96
2348.00,97.95
2347.00,97.92
2346.00,97.90
2345.00,97.90
2344.00,97.93
2343.00,97.96
2342.00,97.96
2341.00,97.94
2340.00,97.91
2339.00,97.89
2338.00,97.87
2337.00,97.88
2336.00,97.90
2335.00,97.93
2334.00,97.94
2333.00,97.91
2332.00,97.87
2331.00,97.84
2330.00,97.84
2329.00,97.86
2328.00,97.86
2327.00,97.83
2326.00,97.76
2325.00,97.70
2324.00,97.67
2323.00,97.69
2322.00,97.72
2321.00,97.73
2320.00,97.69
2319.00,97.64
2318.00,97.61
2317.00,97.60
2316.00,97.62
2315.00,97.64
2314.00,97.67
2313.00,97.69
2312.00,97.70
2311.00,97.69
2310.00,97.65
2309.00,97.60
2308.00,97.55
2307.00,97.51
2306.00,97.49
2305.00,97.47
2304.00,97.45
2303.00,97.42
2302.00,97.38
2301.00,97.34
2300.00,97.30
2299.00,97.27
2298.00,97.25
2297.00,97.26
2296.00,97.28
2295.00,97.31
2294.00,97.32
2293.00,97.30
2292.00,97.25
2291.00,97.19
2290.00,97.16
2289.00,97.13
2288.00,97.11
2287.00,97.07
2286.00,97.04
2285.00,97.01
2284.00,97.00
2283.00,96.99
2282.00,96.98
2281.00,96.95
2280.00,96.91
2279.00,96.85
2278.00,96.80
2277.00,96.76
2276.00,96.76
2275.00,96.77
2274.00,96.78
2273.00,96.80
2272.00,96.80
2271.00,96.80
2270.00,96.80
2269.00,96.79
2268.00,96.77
2267.00,96.76
2266.00,96.75
2265.00,96.74
2264.00,96.73
2263.00,96.73
2262.00,96.71
2261.00,96.68
2260.00,96.65
2259.00,96.62
2258.00,96.59
2257.00,96.58
2256.00,96.58
2255.00,96.59
2254.00,96.61
2253.00,96.62
2252.00,96.62
2251.00,96.60
2250.00,96.54
2249.00,96.47
2248.00,96.41
2247.00,96.39
2246.00,96.41
2245.00,96.44
2244.00,96.46
2243.00,96.48
2242.00,96.50
2241.00,96.50
2240.00,96.48
2239.00,96.45
2238.00,96.41
2237.00,96.38
2236.00,96.35
2235.00,96.32
2234.00,96.28
2233.00,96.23
2232.00,96.19
2231.00,96.17
2230.00,96.17
2229.00,96.18
2228.00,96.18
2227.00,96.18
2226.00,96.19
2225.00,96.22
2224.00,96.23
2223.00,96.22
2222.00,96.17
2221.00,96.10
2220.00,96.02
2219.00,95.97
2218.00,95.94
2217.00,95.93
2216.00,95.94
2215.00,95.96
2214.00,95.99
2213.00,96.00
2212.00,95.99
2211.00,95.96
2210.00,95.95
2209.00,95.96
2208.00,95.95
2207.00,95.91
2206.00,95.85
2205.00,95.81
2204.00,95.80
2203.00,95.82
2202.00,95.84
2201.00,95.86
2200.00,95.87
2199.00,95.87
2198.00,95.87
2197.00,95.88
2196.00,95.88
2195.00,95.85
2194.00,95.80
2193.00,95.74
2192.00,95.70
2191.00,95.69
2190.00,95.68
2189.00,95.66
2188.00,95.60
2187.00,95.53
2186.00,95.48
2185.00,95.46
2184.00,95.46
2183.00,95.47
2182.00,95.48
2181.00,95.50
2180.00,95.52
2179.00,95.55
2178.00,95.56
2177.00,95.56
2176.00,95.56
2175.00,95.58
2174.00,95.61
2173.00,95.63
2172.00,95.62
2171.00,95.56
2170.00,95.46
2169.00,95.34
2168.00,95.24
2167.00,95.20
2166.00,95.21
2165.00,95.19
2164.00,95.11
2163.00,94.97
2162.00,94.87
2161.00,94.86
2160.00,94.97
2159.00,95.14
2158.00,95.29
2157.00,95.41
2156.00,95.51
2155.00,95.60
2154.00,95.67
2153.00,95.72
2152.00,95.75
2151.00,95.75
2150.00,95.72
2149.00,95.66
2148.00,95.63
2147.00,95.67
2146.00,95.79
2145.00,95.92
2144.00,96.02
2143.00,96.09
2142.00,96.13
2141.00,96.17
2140.00,96.20
2139.00,96.24
2138.00,96.28
2137.00,96.33
2136.00,96.38
2135.00,96.44
2134.00,96.48
2133.00,96.51
2132.00,96.54
2131.00,96.58
2130.00,96.62
2129.00,96.64
2128.00,96.64
2127.00,96.66
2126.00,96.69
2125.00,96.74
2124.00,96.80
2123.00,96.84
2122.00,96.85
2121.00,96.82
2120.00,96.78
2119.00,96.73
2118.00,96.69
2117.00,96.64
2116.00,96.59
2115.00,96.56
2114.00,96.56
2113.00,96.57
2112.00,96.60
2111.00,96.62
2110.00,96.63
2109.00,96.63
2108.00,96.63
2107.00,96.63
2106.00,96.64
2105.00,96.63
2104.00,96.62
2103.00,96.62
2102.00,96.62
2101.00,96.61
2100.00,96.61
2099.00,96.61
2098.00,96.62
2097.00,96.64
2096.00,96.65
2095.00,96.66
2094.00,96.64
2093.00,96.62
2092.00,96.61
2091.00,96.61
2090.00,96.62
2089.00,96.64
2088.00,96.65
2087.00,96.67
2086.00,96.66
2085.00,96.62
2084.00,96.57
2083.00,96.52
2082.00,96.49
2081.00,96.47
2080.00,96.45
2079.00,96.44
2078.00,96.44
2077.00,96.45
2076.00,96.46
2075.00,96.46
2074.00,96.47
2073.00,96.48
2072.00,96.48
2071.00,96.45
2070.00,96.39
2069.00,96.33
2068.00,96.30
2067.00,96.30
2066.00,96.32
2065.00,96.35
2064.00,96.38
2063.00,96.41
2062.00,96.44
2061.00,96.45
2060.00,96.45
2059.00,96.43
2058.00,96.39
2057.00,96.34
2056.00,96.29
2055.00,96.25
2054.00,96.19
2053.00,96.12
2052.00,96.05
2051.00,96.00
2050.00,96.00
2049.00,96.01
2048.00,96.01
2047.00,95.99
2046.00,95.94
2045.00,95.88
2044.00,95.83
2043.00,95.80
2042.00,95.76
2041.00,95.71
2040.00,95.67
2039.00,95.63
2038.00,95.57
2037.00,95.50
2036.00,95.44
2035.00,95.44
2034.00,95.47
2033.00,95.48
2032.00,95.46
2031.00,95.43
2030.00,95.42
2029.00,95.45
2028.00,95.50
2027.00,95.55
2026.00,95.57
2025.00,95.54
2024.00,95.51
2023.00,95.49
2022.00,95.49
2021.00,95.50
2020.00,95.52
2019.00,95.58
2018.00,95.64
2017.00,95.67
2016.00,95.65
2015.00,95.62
2014.00,95.61
2013.00,95.63
2012.00,95.66
2011.00,95.70
2010.00,95.73
2009.00,95.75
2008.00,95.77
2007.00,95.78
2006.00,95.82
2005.00,95.88
2004.00,95.94
2003.00,95.96
2002.00,95.96
2001.00,95.96
2000.00,95.99
1999.00,96.05
1998.00,96.10
1997.00,96.13
1996.00,96.12
1995.00,96.11
1994.00,96.06
1993.00,95.99
1992.00,95.89
1991.00,95.84
1990.00,95.82
1989.00,95.84
1988.00,95.84
1987.00,95.82
1986.00,95.78
1985.00,95.73
1984.00,95.70
1983.00,95.69
1982.00,95.70
1981.00,95.68
1980.00,95.65
1979.00,95.63
1978.00,95.63
1977.00,95.66
1976.00,95.69
1975.00,95.70
1974.00,95.66
1973.00,95.61
1972.00,95.60
1971.00,95.66
1970.00,95.76
1969.00,95.85
1968.00,95.93
1967.00,95.99
1966.00,96.02
1965.00,96.04
1964.00,96.04
1963.00,96.04
1962.00,96.07
1961.00,96.11
1960.00,96.18
1959.00,96.27
1958.00,96.37
1957.00,96.46
1956.00,96.52
1955.00,96.58
1954.00,96.62
1953.00,96.61
1952.00,96.59
1951.00,96.59
1950.00,96.63
1949.00,96.68
1948.00,96.71
1947.00,96.73
1946.00,96.75
1945.00,96.75
1944.00,96.75
1943.00,96.73
1942.00,96.73
1941.00,96.73
1940.00,96.74
1939.00,96.76
1938.00,96.79
1937.00,96.82
1936.00,96.85
1935.00,96.87
1934.00,96.89
1933.00,96.91
1932.00,96.94
1931.00,96.98
1930.00,97.00
1929.00,96.99
1928.00,96.97
1927.00,96.98
1926.00,97.02
1925.00,97.08
1924.00,97.11
1923.00,97.13
1922.00,97.14
1921.00,97.16
1920.00,97.20
1919.00,97.25
1918.00,97.28
1917.00,97.28
1916.00,97.26
1915.00,97.23
1914.00,97.21
1913.00,97.20
1912.00,97.22
1911.00,97.27
1910.00,97.32
1909.00,97.34
1908.00,97.34
1907.00,97.33
1906.00,97.31
1905.00,97.31
1904.00,97.31
1903.00,97.32
1902.00,97.33
1901.00,97.32
1900.00,97.33
1899.00,97.35
1898.00,97.39
1897.00,97.43
1896.00,97.46
1895.00,97.48
1894.00,97.50
1893.00,97.51
1892.00,97.51
1891.00,97.50
1890.00,97.49
1889.00,97.49
1888.00,97.50
1887.00,97.52
1886.00,97.55
1885.00,97.56
1884.00,97.56
1883.00,97.56
1882.00,97.57
1881.00,97.58
1880.00,97.60
1879.00,97.61
1878.00,97.61
1877.00,97.60
1876.00,97.58
1875.00,97.57
1874.00,97.58
1873.00,97.59
1872.00,97.61
1871.00,97.62
1870.00,97.62
1869.00,97.61
1868.00,97.61
1867.00,97.62
1866.00,97.63
1865.00,97.61
1864.00,97.59
1863.00,97.59
1862.00,97.61
1861.00,97.64
1860.00,97.66
1859.00,97.66
1858.00,97.66
1857.00,97.66
1856.00,97.67
1855.00,97.70
1854.00,97.75
1853.00,97.79
1852.00,97.79
1851.00,97.77
1850.00,97.74
1849.00,97.70
1848.00,97.68
1847.00,97.68
1846.00,97.70
1845.00,97.73
1844.00,97.77
1843.00,97.81
1842.00,97.84
1841.00,97.85
1840.00,97.86
1839.00,97.86
1838.00,97.86
1837.00,97.86
1836.00,97.86
1835.00,97.86
1834.00,97.87
1833.00,97.86
1832.00,97.85
1831.00,97.84
1830.00,97.85
1829.00,97.87
1828.00,97.89
1827.00,97.91
1826.00,97.92
1825.00,97.92
1824.00,97.92
1823.00,97.93
1822.00,97.93
1821.00,97.92
1820.00,97.91
1819.00,97.93
1818.00,97.96
1817.00,98.00
1816.00,98.01
1815.00,98.02
1814.00,98.02
1813.00,98.03
1812.00,98.02
1811.00,98.03
1810.00,98.04
1809.00,98.04
1808.00,98.04
1807.00,98.02
1806.00,98.01
1805.00,98.01
1804.00,98.02
1803.00,98.03
1802.00,98.05
1801.00,98.06
1800.00,98.07
1799.00,98.08
1798.00,98.09
1797.00,98.08
1796.00,98.06
1795.00,98.07
1794.00,98.08
1793.00,98.09
1792.00,98.08
1791.00,98.08
1790.00,98.08
1789.00,98.08
1788.00,98.07
1787.00,98.07
1786.00,98.07
1785.00,98.09
1784.00,98.11
1783.00,98.12
1782.00,98.12
1781.00,98.10
1780.00,98.08
1779.00,98.07
1778.00,98.06
1777.00,98.06
1776.00,98.05
1775.00,98.06
1774.00,98.07
1773.00,98.08
1772.00,98.06
1771.00,98.06
1770.00,98.07
1769.00,98.07
1768.00,98.06
1767.00,98.05
1766.00,98.04
1765.00,98.05
1764.00,98.06
1763.00,98.07
1762.00,98.08
1761.00,98.07
1760.00,98.06
1759.00,98.05
1758.00,98.05
1757.00,98.04
1756.00,98.02
1755.00,98.01
1754.00,98.01
1753.00,98.01
1752.00,97.99
1751.00,97.98
1750.00,97.97
1749.00,97.95
1748.00,97.94
1747.00,97.93
1746.00,97.93
1745.00,97.92
1744.00,97.90
1743.00,97.88
1742.00,97.87
1741.00,97.86
1740.00,97.85
1739.00,97.83
1738.00,97.82
1737.00,97.81
1736.00,97.78
1735.00,97.75
1734.00,97.72
1733.00,97.69
1732.00,97.66
1731.00,97.65
1730.00,97.65
1729.00,97.64
1728.00,97.63
1727.00,97.61
1726.00,97.59
1725.00,97.56
1724.00,97.53
1723.00,97.50
1722.00,97.48
1721.00,97.45
1720.00,97.41
1719.00,97.36
1718.00,97.29
1717.00,97.20
1716.00,97.11
1715.00,97.04
1714.00,96.99
1713.00,96.92
1712.00,96.82
1711.00,96.72
1710.00,96.61
1709.00,96.48
1708.00,96.33
1707.00,96.17
1706.00,95.99
1705.00,95.78
1704.00,95.60
1703.00,95.45
1702.00,95.28
1701.00,95.01
1700.00,94.64
1699.00,94.32
1698.00,94.07
1697.00,93.78
1696.00,93.41
1695.00,93.03
1694.00,92.73
1693.00,92.49
1692.00,92.25
1691.00,91.98
1690.00,91.68
1689.00,91.39
1688.00,91.11
1687.00,90.87
1686.00,90.63
1685.00,90.33
1684.00,89.99
1683.00,89.70
1682.00,89.48
1681.00,89.26
1680.00,89.02
1679.00,88.79
1678.00,88.58
1677.00,88.36
1676.00,88.12
1675.00,87.86
1674.00,87.61
1673.00,87.38
1672.00,87.14
1671.00,86.89
1670.00,86.62
1669.00,86.34
1668.00,86.07
1667.00,85.82
1666.00,85.60
1665.00,85.37
1664.00,85.11
1663.00,84.83
1662.00,84.56
1661.00,84.29
1660.00,84.02
1659.00,83.76
1658.00,83.52
1657.00,83.28
1656.00,83.04
1655.00,82.79
1654.00,82.51
1653.00,82.21
1652.00,81.92
1651.00,81.66
1650.00,81.44
1649.00,81.23
1648.00,81.01
1647.00,80.81
1646.00,80.66
1645.00,80.53
1644.00,80.38
1643.00,80.25
1642.00,80.13
1641.00,80.02
1640.00,79.91
1639.00,79.81
1638.00,79.73
1637.00,79.67
1636.00,79.64
1635.00,79.62
1634.00,79.58
1633.00,79.51
1632.00,79.42
1631.00,79.34
1630.00,79.29
1629.00,79.27
1628.00,79.27
1627.00,79.28
1626.00,79.31
1625.00,79.36
1624.00,79.45
1623.00,79.59
1622.00,79.76
1621.00,79.91
1620.00,80.03
1619.00,80.17
1618.00,80.40
1617.00,80.75
1616.00,81.12
1615.00,81.44
1614.00,81.71
1613.00,81.96
1612.00,82.25
1611.00,82.56
1610.00,82.89
1609.00,83.23
1608.00,83.56
1607.00,83.89
1606.00,84.21
1605.00,84.54
1604.00,84.85
1603.00,85.16
1602.00,85.44
1601.00,85.70
1600.00,85.95
1599.00,86.19
1598.00,86.40
1597.00,86.61
1596.00,86.81
1595.00,87.01
1594.00,87.20
1593.00,87.39
1592.00,87.57
1591.00,87.72
1590.00,87.85
1589.00,87.97
1588.00,88.08
1587.00,88.18
1586.00,88.24
1585.00,88.29
1584.00,88.33
1583.00,88.36
1582.00,88.37
1581.00,88.35
1580.00,88.33
1579.00,88.32
1578.00,88.28
1577.00,88.22
1576.00,88.16
1575.00,88.09
1574.00,88.02
1573.00,87.93
1572.00,87.84
1571.00,87.75
1570.00,87.62
1569.00,87.49
1568.00,87.35
1567.00,87.20
1566.00,87.02
1565.00,86.84
1564.00,86.67
1563.00,86.53
1562.00,86.40
1561.00,86.24
1560.00,86.03
1559.00,85.74
1558.00,85.45
1557.00,85.20
1556.00,84.98
1555.00,84.75
1554.00,84.50
1553.00,84.27
1552.00,84.05
1551.00,83.84
1550.00,83.61
1549.00,83.37
1548.00,83.16
1547.00,82.96
1546.00,82.75
1545.00,82.55
1544.00,82.37
1543.00,82.22
1542.00,82.09
1541.00,81.96
1540.00,81.85
1539.00,81.73
1538.00,81.59
1537.00,81.44
1536.00,81.31
1535.00,81.20
1534.00,81.12
1533.00,81.07
1532.00,81.03
1531.00,80.98
1530.00,80.91
1529.00,80.83
1528.00,80.77
1527.00,80.73
1526.00,80.70
1525.00,80.68
1524.00,80.66
1523.00,80.64
1522.00,80.63
1521.00,80.63
1520.00,80.62
1519.00,80.58
1518.00,80.54
1517.00,80.53
1516.00,80.55
1515.00,80.58
1514.00,80.62
1513.00,80.67
1512.00,80.76
1511.00,80.85
1510.00,80.94
1509.00,81.03
1508.00,81.21
1507.00,81.50
1506.00,81.84
1505.00,82.09
1504.00,82.24
1503.00,82.36
1502.00,82.52
1501.00,82.71
1500.00,82.93
1499.00,83.16
1498.00,83.42
1497.00,83.72
1496.00,84.05
1495.00,84.35
1494.00,84.61
1493.00,84.85
1492.00,85.10
1491.00,85.39
1490.00,85.72
1489.00,86.04
1488.00,86.32
1487.00,86.55
1486.00,86.76
1485.00,86.96
1484.00,87.13
1483.00,87.30
1482.00,87.46
1481.00,87.61
1480.00,87.73
1479.00,87.80
1478.00,87.85
1477.00,87.87
1476.00,87.87
1475.00,87.85
1474.00,87.80
1473.00,87.74
1472.00,87.66
1471.00,87.58
1470.00,87.50
1469.00,87.43
1468.00,87.36
1467.00,87.32
1466.00,87.31
1465.00,87.30
1464.00,87.27
1463.00,87.21
1462.00,87.14
1461.00,87.07
1460.00,86.98
1459.00,86.90
1458.00,86.82
1457.00,86.74
1456.00,86.66
1455.00,86.57
1454.00,86.48
1453.00,86.41
1452.00,86.37
1451.00,86.34
1450.00,86.34
1449.00,86.35
1448.00,86.37
1447.00,86.39
1446.00,86.42
1445.00,86.44
1444.00,86.46
1443.00,86.49
1442.00,86.53
1441.00,86.57
1440.00,86.62
1439.00,86.69
1438.00,86.79
1437.00,86.92
1436.00,87.07
1435.00,87.19
1434.00,87.29
1433.00,87.39
1432.00,87.48
1431.00,87.58
1430.00,87.68
1429.00,87.79
1428.00,87.87
1427.00,87.94
1426.00,87.99
1425.00,88.03
1424.00,88.06
1423.00,88.08
1422.00,88.09
1421.00,88.09
1420.00,88.07
1419.00,88.06
1418.00,88.05
1417.00,88.05
1416.00,88.04
1415.00,88.02
1414.00,87.99
1413.00,87.95
1412.00,87.91
1411.00,87.87
1410.00,87.84
1409.00,87.81
1408.00,87.78
1407.00,87.74
1406.00,87.69
1405.00,87.66
1404.00,87.62
1403.00,87.59
1402.00,87.55
1401.00,87.52
1400.00,87.49
1399.00,87.46
1398.00,87.43
1397.00,87.41
1396.00,87.38
1395.00,87.37
1394.00,87.37
1393.00,87.37
1392.00,87.35
1391.00,87.32
1390.00,87.30
1389.00,87.29
1388.00,87.30
1387.00,87.33
1386.00,87.37
1385.00,87.42
1384.00,87.46
1383.00,87.52
1382.00,87.59
1381.00,87.67
1380.00,87.76
1379.00,87.85
1378.00,87.91
1377.00,87.97
1376.00,88.02
1375.00,88.08
1374.00,88.14
1373.00,88.19
1372.00,88.23
1371.00,88.26
1370.00,88.30
1369.00,88.35
1368.00,88.42
1367.00,88.49
1366.00,88.56
1365.00,88.63
1364.00,88.70
1363.00,88.78
1362.00,88.85
1361.00,88.91
1360.00,88.95
1359.00,88.98
1358.00,88.99
1357.00,89.00
1356.00,89.01
1355.00,89.03
1354.00,89.05
1353.00,89.06
1352.00,89.07
1351.00,89.06
1350.00,89.05
1349.00,89.04
1348.00,89.03
1347.00,89.02
1346.00,89.01
1345.00,89.01
1344.00,89.00
1343.00,88.98
1342.00,88.96
1341.00,88.94
1340.00,88.93
1339.00,88.95
1338.00,88.97
1337.00,89.00
1336.00,89.02
1335.00,89.04
1334.00,89.04
1333.00,89.05
1332.00,89.06
1331.00,89.07
1330.00,89.08
1329.00,89.08
1328.00,89.08
1327.00,89.08
1326.00,89.08
1325.00,89.07
1324.00,89.04
1323.00,89.02
1322.00,88.99
1321.00,88.96
1320.00,88.92
1319.00,88.88
1318.00,88.85
1317.00,88.83
1316.00,88.80
1315.00,88.78
1314.00,88.75
1313.00,88.74
1312.00,88.73
1311.00,88.72
1310.00,88.71
1309.00,88.69
1308.00,88.69
1307.00,88.68
1306.00,88.68
1305.00,88.67
1304.00,88.67
1303.00,88.67
1302.00,88.67
1301.00,88.67
1300.00,88.67
1299.00,88.67
1298.00,88.66
1297.00,88.66
1296.00,88.66
1295.00,88.66
1294.00,88.65
1293.00,88.64
1292.00,88.64
1291.00,88.64
1290.00,88.63
1289.00,88.62
1288.00,88.60
1287.00,88.58
1286.00,88.57
1285.00,88.57
1284.00,88.56
1283.00,88.56
1282.00,88.54
1281.00,88.53
1280.00,88.51
1279.00,88.50
1278.00,88.48
1277.00,88.46
1276.00,88.43
1275.00,88.40
1274.00,88.36
1273.00,88.34
1272.00,88.31
1271.00,88.30
1270.00,88.28
1269.00,88.27
1268.00,88.25
1267.00,88.22
1266.00,88.18
1265.00,88.13
1264.00,88.08
1263.00,88.03
1262.00,87.99
1261.00,87.94
1260.00,87.89
1259.00,87.85
1258.00,87.81
1257.00,87.77
1256.00,87.72
1255.00,87.67
1254.00,87.62
1253.00,87.57
1252.00,87.53
1251.00,87.47
1250.00,87.41
1249.00,87.35
1248.00,87.29
1247.00,87.24
1246.00,87.19
1245.00,87.13
1244.00,87.08
1243.00,87.04
1242.00,86.99
1241.00,86.95
1240.00,86.90
1239.00,86.87
1238.00,86.85
1237.00,86.85
1236.00,86.84
1235.00,86.82
1234.00,86.81
1233.00,86.80
1232.00,86.79
1231.00,86.80
1230.00,86.83
1229.00,86.87
1228.00,86.91
1227.00,86.96
1226.00,87.02
1225.00,87.08
1224.00,87.13
1223.00,87.19
1222.00,87.26
1221.00,87.34
1220.00,87.42
1219.00,87.50
1218.00,87.58
1217.00,87.66
1216.00,87.72
1215.00,87.77
1214.00,87.82
1213.00,87.88
1212.00,87.95
1211.00,88.01
1210.00,88.06
1209.00,88.10
1208.00,88.12
1207.00,88.13
1206.00,88.15
1205.00,88.18
1204.00,88.22
1203.00,88.26
1202.00,88.29
1201.00,88.32
1200.00,88.35
1199.00,88.39
1198.00,88.44
1197.00,88.50
1196.00,88.56
1195.00,88.61
1194.00,88.64
1193.00,88.67
1192.00,88.71
1191.00,88.75
1190.00,88.78
1189.00,88.80
1188.00,88.82
1187.00,88.84
1186.00,88.87
1185.00,88.90
1184.00,88.91
1183.00,88.91
1182.00,88.92
1181.00,88.95
1180.00,88.98
1179.00,88.99
1178.00,88.97
1177.00,88.95
1176.00,88.94
1175.00,88.94
1174.00,88.97
1173.00,89.00
1172.00,89.01
1171.00,89.02
1170.00,89.01
1169.00,89.01
1168.00,89.03
1167.00,89.07
1166.00,89.12
1165.00,89.16
1164.00,89.16
1163.00,89.16
1162.00,89.17
1161.00,89.19
1160.00,89.21
1159.00,89.23
1158.00,89.26
1157.00,89.30
1156.00,89.33
1155.00,89.37
1154.00,89.41
1153.00,89.45
1152.00,89.49
1151.00,89.53
1150.00,89.57
1149.00,89.61
1148.00,89.65
1147.00,89.70
1146.00,89.75
1145.00,89.80
1144.00,89.83
1143.00,89.84
1142.00,89.85
1141.00,89.88
1140.00,89.93
1139.00,89.97
1138.00,89.99
1137.00,89.99
1136.00,89.98
1135.00,89.96
1134.00,89.95
1133.00,89.95
1132.00,89.93
1131.00,89.91
1130.00,89.87
1129.00,89.84
1128.00,89.80
1127.00,89.77
1126.00,89.75
1125.00,89.75
1124.00,89.75
1123.00,89.75
1122.00,89.72
1121.00,89.69
1120.00,89.66
1119.00,89.66
1118.00,89.67
1117.00,89.67
1116.00,89.65
1115.00,89.61
1114.00,89.60
1113.00,89.62
1112.00,89.64
1111.00,89.66
1110.00,89.66
1109.00,89.66
1108.00,89.64
1107.00,89.62
1106.00,89.61
1105.00,89.60
1104.00,89.60
1103.00,89.59
1102.00,89.57
1101.00,89.56
1100.00,89.53
1099.00,89.50
1098.00,89.48
1097.00,89.49
1096.00,89.50
1095.00,89.51
1094.00,89.49
1093.00,89.46
1092.00,89.44
1091.00,89.43
1090.00,89.42
1089.00,89.38
1088.00,89.31
1087.00,89.22
1086.00,89.13
1085.00,89.08
1084.00,89.05
1083.00,89.04
1082.00,89.03
1081.00,89.01
1080.00,88.99
1079.00,88.96
1078.00,88.93
1077.00,88.93
1076.00,88.94
1075.00,88.96
1074.00,88.96
1073.00,88.96
1072.00,88.94
1071.00,88.93
1070.00,88.92
1069.00,88.92
1068.00,88.95
1067.00,88.99
1066.00,89.04
1065.00,89.08
1064.00,89.10
1063.00,89.08
1062.00,89.05
1061.00,89.04
1060.00,89.05
1059.00,89.08
1058.00,89.13
1057.00,89.16
1056.00,89.17
1055.00,89.16
1054.00,89.12
1053.00,89.10
1052.00,89.10
1051.00,89.12
1050.00,89.15
1049.00,89.16
1048.00,89.17
1047.00,89.18
1046.00,89.20
1045.00,89.21
1044.00,89.21
1043.00,89.21
1042.00,89.22
1041.00,89.25
1040.00,89.28
1039.00,89.32
1038.00,89.36
1037.00,89.40
1036.00,89.44
1035.00,89.48
1034.00,89.52
1033.00,89.56
1032.00,89.59
1031.00,89.61
1030.00,89.65
1029.00,89.70
1028.00,89.76
1027.00,89.80
1026.00,89.83
1025.00,89.84
1024.00,89.86
1023.00,89.89
1022.00,89.94
1021.00,89.99
1020.00,90.04
1019.00,90.09
1018.00,90.15
1017.00,90.22
1016.00,90.29
1015.00,90.34
1014.00,90.37
1013.00,90.39
1012.00,90.41
1011.00,90.43
1010.00,90.46
1009.00,90.52
1008.00,90.59
1007.00,90.66
1006.00,90.71
1005.00,90.75
1004.00,90.79
1003.00,90.83
1002.00,90.88
1001.00,90.92
1000.00,90.96
999.00,91.00
998.00,91.05
997.00,91.11
996.00,91.16
995.00,91.19
994.00,91.21
993.00,91.22
992.00,91.24
991.00,91.27
990.00,91.31
989.00,91.35
988.00,91.39
987.00,91.41
986.00,91.42
985.00,91.43
984.00,91.46
983.00,91.49
982.00,91.51
981.00,91.53
980.00,91.55
979.00,91.57
978.00,91.58
977.00,91.58
976.00,91.58
975.00,91.58
974.00,91.58
973.00,91.58
972.00,91.60
971.00,91.61
970.00,91.62
969.00,91.62
968.00,91.61
967.00,91.60
966.00,91.60
965.00,91.59
964.00,91.59
963.00,91.59
962.00,91.59
961.00,91.60
960.00,91.62
959.00,91.64
958.00,91.65
957.00,91.65
956.00,91.64
955.00,91.63
954.00,91.64
953.00,91.66
952.00,91.69
951.00,91.71
950.00,91.71
949.00,91.71
948.00,91.72
947.00,91.73
946.00,91.75
945.00,91.76
944.00,91.76
943.00,91.76
942.00,91.76
941.00,91.77
940.00,91.78
939.00,91.79
938.00,91.79
937.00,91.78
936.00,91.75
935.00,91.71
934.00,91.67
933.00,91.65
932.00,91.65
931.00,91.65
930.00,91.63
929.00,91.61
928.00,91.59
927.00,91.58
926.00,91.60
925.00,91.63
924.00,91.65
923.00,91.65
922.00,91.66
921.00,91.66
920.00,91.68
919.00,91.71
918.00,91.74
917.00,91.78
916.00,91.80
915.00,91.82
914.00,91.83
913.00,91.85
912.00,91.89
911.00,91.93
910.00,91.94
909.00,91.93
908.00,91.92
907.00,91.91
906.00,91.91
905.00,91.91
904.00,91.90
903.00,91.90
902.00,91.92
901.00,91.96
900.00,91.98
899.00,91.97
898.00,91.94
897.00,91.91
896.00,91.89
895.00,91.88
894.00,91.87
893.00,91.87
892.00,91.88
891.00,91.90
890.00,91.91
889.00,91.90
888.00,91.86
887.00,91.80
886.00,91.76
885.00,91.75
884.00,91.77
883.00,91.79
882.00,91.79
881.00,91.76
880.00,91.72
879.00,91.68
878.00,91.65
877.00,91.64
876.00,91.64
875.00,91.66
874.00,91.70
873.00,91.75
872.00,91.77
871.00,91.75
870.00,91.73
869.00,91.71
868.00,91.71
867.00,91.69
866.00,91.64
865.00,91.61
864.00,91.60
863.00,91.62
862.00,91.64
861.00,91.64
860.00,91.62
859.00,91.58
858.00,91.53
857.00,91.48
856.00,91.43
855.00,91.40
854.00,91.38
853.00,91.37
852.00,91.38
851.00,91.39
850.00,91.38
849.00,91.34
848.00,91.30
847.00,91.26
846.00,91.25
845.00,91.23
844.00,91.20
843.00,91.14
842.00,91.07
841.00,91.00
840.00,90.95
839.00,90.92
838.00,90.91
837.00,90.89
836.00,90.85
835.00,90.79
834.00,90.74
833.00,90.70
832.00,90.69
831.00,90.70
830.00,90.71
829.00,90.71
828.00,90.70
827.00,90.68
826.00,90.64
825.00,90.59
824.00,90.55
823.00,90.54
822.00,90.55
821.00,90.55
820.00,90.55
819.00,90.53
818.00,90.50
817.00,90.47
816.00,90.43
815.00,90.41
814.00,90.40
813.00,90.39
812.00,90.37
811.00,90.33
810.00,90.28
809.00,90.22
808.00,90.16
807.00,90.10
806.00,90.04
805.00,89.97
804.00,89.91
803.00,89.87
802.00,89.86
801.00,89.86
800.00,89.86
799.00,89.84
798.00,89.80
797.00,89.75
796.00,89.72
795.00,89.68
794.00,89.63
793.00,89.56
792.00,89.47
791.00,89.39
790.00,89.33
789.00,89.30
788.00,89.28
787.00,89.25
786.00,89.20
785.00,89.13
784.00,89.08
783.00,89.06
782.00,89.05
781.00,89.03
780.00,88.98
779.00,88.92
778.00,88.85
777.00,88.79
776.00,88.74
775.00,88.69
774.00,88.65
773.00,88.60
772.00,88.53
771.00,88.46
770.00,88.40
769.00,88.36
768.00,88.33
767.00,88.29
766.00,88.23
765.00,88.17
764.00,88.10
763.00,88.05
762.00,88.00
761.00,87.95
760.00,87.89
759.00,87.83
758.00,87.77
757.00,87.72
756.00,87.66
755.00,87.60
754.00,87.54
753.00,87.48
752.00,87.42
751.00,87.36
750.00,87.29
749.00,87.24
748.00,87.19
747.00,87.17
746.00,87.16
745.00,87.15
744.00,87.11
743.00,87.05
742.00,86.97
741.00,86.90
740.00,86.84
739.00,86.80
738.00,86.77
737.00,86.73
736.00,86.71
735.00,86.71
734.00,86.71
733.00,86.68
732.00,86.63
731.00,86.55
730.00,86.48
729.00,86.40
728.00,86.32
727.00,86.24
726.00,86.18
725.00,86.15
724.00,86.12
723.00,86.09
722.00,86.04
721.00,85.97
720.00,85.90
719.00,85.83
718.00,85.78
717.00,85.72
716.00,85.65
715.00,85.56
714.00,85.47
713.00,85.40
712.00,85.33
711.00,85.24
710.00,85.14
709.00,85.01
708.00,84.86
707.00,84.71
706.00,84.57
705.00,84.46
704.00,84.39
703.00,84.34
702.00,84.29
701.00,84.22
700.00,84.13
699.00,84.06
698.00,84.01
697.00,83.98
696.00,83.95
695.00,83.91
694.00,83.86
693.00,83.81
692.00,83.76
691.00,83.72
690.00,83.70
689.00,83.71
688.00,83.72
687.00,83.71
686.00,83.66
685.00,83.56
684.00,83.44
683.00,83.37
682.00,83.36
681.00,83.39
680.00,83.40
679.00,83.34
678.00,83.21
677.00,83.08
676.00,82.97
675.00,82.90
674.00,82.85
673.00,82.80
672.00,82.74
671.00,82.69
670.00,82.62
669.00,82.52
668.00,82.39
667.00,82.24
666.00,82.15
665.00,82.14
664.00,82.10
663.00,82.02
662.00,81.93
661.00,81.86
660.00,81.80
659.00,81.69
658.00,81.53
657.00,81.36
656.00,81.26
655.00,81.28
654.00,81.37
653.00,81.46
652.00,81.49
651.00,81.45
650.00,81.36
649.00,81.28
648.00,81.24
647.00,81.23
646.00,81.22
645.00,81.17
644.00,81.10
643.00,81.04
642.00,81.00
641.00,80.94
640.00,80.89
639.00,80.90
638.00,80.94
637.00,80.90
636.00,80.76
635.00,80.60
634.00,80.54
633.00,80.57
632.00,80.64
631.00,80.72
630.00,80.83
629.00,80.92
628.00,80.96
627.00,80.92
626.00,80.84
625.00,80.75
624.00,80.65
623.00,80.56
622.00,80.52
621.00,80.48
620.00,80.35
619.00,80.13
618.00,80.01
617.00,80.11
616.00,80.35
615.00,80.45
614.00,80.23
613.00,79.85
612.00,79.56
611.00,79.47
610.00,79.48
609.00,79.44
608.00,79.35
607.00,79.35
606.00,79.55
605.00,79.80
604.00,79.70
603.00,78.84
602.00,77.34
601.00,75.96
600.00,75.55
599.00,76.33
598.00,77.62
597.00,78.56
596.00,78.92
595.00,79.03
594.00,79.13
593.00,79.08
592.00,78.79
591.00,78.47
590.00,78.33
589.00,78.30
588.00,78.24
587.00,78.20
586.00,78.30
585.00,78.50
584.00,78.64
583.00,78.60
582.00,78.33
581.00,77.90
580.00,77.56
579.00,77.58
578.00,77.98
577.00,78.37
576.00,78.42
575.00,78.13
574.00,77.69
573.00,77.20
572.00,76.76
571.00,76.56
570.00,76.63
569.00,76.85
568.00,77.21
567.00,77.79
566.00,78.38
565.00,78.53
564.00,78.08
563.00,77.31
562.00,76.57
561.00,75.97
560.00,75.57
559.00,75.55
558.00,75.90
557.00,76.35
556.00,76.69
555.00,76.95
554.00,77.11
553.00,77.07
552.00,76.86
551.00,76.87
550.00,77.21
