Created as New Dataset,Forensic, 49
cm-1,%T
4000.00,88.81
3999.00,88.79
3998.00,88.77
3997.00,88.76
3996.00,88.76
3995.00,88.76
3994.00,88.77
3993.00,88.79
3992.00,88.81
3991.00,88.83
3990.00,88.83
3989.00,88.81
3988.00,88.79
3987.00,88.78
3986.00,88.77
3985.00,88.77
3984.00,88.78
3983.00,88.79
3982.00,88.79
3981.00,88.79
3980.00,88.79
3979.00,88.79
3978.00,88.79
3977.00,88.81
3976.00,88.82
3975.00,88.82
3974.00,88.82
3973.00,88.81
3972.00,88.80
3971.00,88.80
3970.00,88.80
3969.00,88.81
3968.00,88.83
3967.00,88.84
3966.00,88.85
3965.00,88.84
3964.00,88.83
3963.00,88.83
3962.00,88.83
3961.00,88.83
3960.00,88.83
3959.00,88.83
3958.00,88.83
3957.00,88.83
3956.00,88.83
3955.00,88.83
3954.00,88.82
3953.00,88.82
3952.00,88.82
3951.00,88.83
3950.00,88.84
3949.00,88.84
3948.00,88.85
3947.00,88.84
3946.00,88.82
3945.00,88.80
3944.00,88.78
3943.00,88.76
3942.00,88.77
3941.00,88.78
3940.00,88.80
3939.00,88.81
3938.00,88.82
3937.00,88.81
3936.00,88.80
3935.00,88.79
3934.00,88.78
3933.00,88.77
3932.00,88.78
3931.00,88.78
3930.00,88.77
3929.00,88.76
3928.00,88.75
3927.00,88.75
3926.00,88.76
3925.00,88.77
3924.00,88.77
3923.00,88.76
3922.00,88.74
3921.00,88.73
3920.00,88.72
3919.00,88.72
3918.00,88.72
3917.00,88.72
3916.00,88.72
3915.00,88.72
3914.00,88.73
3913.00,88.76
3912.00,88.78
3911.00,88.81
3910.00,88.82
3909.00,88.81
3908.00,88.79
3907.00,88.75
3906.00,88.71
3905.00,88.68
3904.00,88.69
3903.00,88.71
3902.00,88.73
3901.00,88.74
3900.00,88.76
3899.00,88.77
3898.00,88.78
3897.00,88.78
3896.00,88.78
3895.00,88.78
3894.00,88.78
3893.00,88.78
3892.00,88.78
3891.00,88.78
3890.00,88.79
3889.00,88.80
3888.00,88.81
3887.00,88.81
3886.00,88.82
3885.00,88.82
3884.00,88.82
3883.00,88.81
3882.00,88.81
3881.00,88.82
3880.00,88.83
3879.00,88.84
3878.00,88.84
3877.00,88.81
3876.00,88.79
3875.00,88.78
3874.00,88.78
3873.00,88.78
3872.00,88.76
3871.00,88.73
3870.00,88.72
3869.00,88.73
3868.00,88.75
3867.00,88.78
3866.00,88.80
3865.00,88.81
3864.00,88.81
3863.00,88.80
3862.00,88.78
3861.00,88.76
3860.00,88.76
3859.00,88.78
3858.00,88.82
3857.00,88.86
3856.00,88.88
3855.00,88.88
3854.00,88.87
3853.00,88.86
3852.00,88.85
3851.00,88.84
3850.00,88.82
3849.00,88.83
3848.00,88.84
3847.00,88.86
3846.00,88.86
3845.00,88.87
3844.00,88.87
3843.00,88.87
3842.00,88.87
3841.00,88.87
3840.00,88.86
3839.00,88.85
3838.00,88.85
3837.00,88.84
3836.00,88.83
3835.00,88.83
3834.00,88.82
3833.00,88.82
3832.00,88.81
3831.00,88.80
3830.00,88.78
3829.00,88.77
3828.00,88.77
3827.00,88.77
3826.00,88.78
3825.00,88.77
3824.00,88.76
3823.00,88.74
3822.00,88.75
3821.00,88.76
3820.00,88.77
3819.00,88.77
3818.00,88.76
3817.00,88.77
3816.00,88.80
3815.00,88.81
3814.00,88.80
3813.00,88.77
3812.00,88.74
3811.00,88.72
3810.00,88.71
3809.00,88.73
3808.00,88.75
3807.00,88.78
3806.00,88.80
3805.00,88.80
3804.00,88.78
3803.00,88.76
3802.00,88.75
3801.00,88.77
3800.00,88.78
3799.00,88.78
3798.00,88.77
3797.00,88.77
3796.00,88.76
3795.00,88.74
3794.00,88.72
3793.00,88.69
3792.00,88.68
3791.00,88.69
3790.00,88.72
3789.00,88.73
3788.00,88.73
3787.00,88.72
3786.00,88.71
3785.00,88.70
3784.00,88.71
3783.00,88.70
3782.00,88.69
3781.00,88.69
3780.00,88.69
3779.00,88.71
3778.00,88.73
3777.00,88.73
3776.00,88.72
3775.00,88.71
3774.00,88.70
3773.00,88.69
3772.00,88.67
3771.00,88.66
3770.00,88.65
3769.00,88.65
3768.00,88.64
3767.00,88.62
3766.00,88.60
3765.00,88.59
3764.00,88.59
3763.00,88.59
3762.00,88.59
3761.00,88.59
3760.00,88.60
3759.00,88.61
3758.00,88.60
3757.00,88.59
3756.00,88.59
3755.00,88.58
3754.00,88.58
3753.00,88.58
3752.00,88.59
3751.00,88.60
3750.00,88.60
3749.00,88.60
3748.00,88.59
3747.00,88.57
3746.00,88.56
3745.00,88.57
3744.00,88.58
3743.00,88.58
3742.00,88.57
3741.00,88.55
3740.00,88.54
3739.00,88.53
3738.00,88.53
3737.00,88.52
3736.00,88.53
3735.00,88.54
3734.00,88.55
3733.00,88.55
3732.00,88.55
3731.00,88.56
3730.00,88.57
3729.00,88.58
3728.00,88.58
3727.00,88.57
3726.00,88.55
3725.00,88.53
3724.00,88.50
3723.00,88.48
3722.00,88.47
3721.00,88.47
3720.00,88.48
3719.00,88.49
3718.00,88.50
3717.00,88.51
3716.00,88.52
3715.00,88.51
3714.00,88.50
3713.00,88.50
3712.00,88.50
3711.00,88.50
3710.00,88.49
3709.00,88.49
3708.00,88.48
3707.00,88.48
3706.00,88.48
3705.00,88.49
3704.00,88.50
3703.00,88.51
3702.00,88.52
3701.00,88.52
3700.00,88.52
3699.00,88.52
3698.00,88.51
3697.00,88.51
3696.00,88.51
3695.00,88.50
3694.00,88.47
3693.00,88.44
3692.00,88.42
3691.00,88.41
3690.00,88.41
3689.00,88.42
3688.00,88.42
3687.00,88.41
3686.00,88.41
3685.00,88.41
3684.00,88.42
3683.00,88.41
3682.00,88.40
3681.00,88.39
3680.00,88.37
3679.00,88.35
3678.00,88.32
3677.00,88.27
3676.00,88.24
3675.00,88.23
3674.00,88.24
3673.00,88.24
3672.00,88.22
3671.00,88.18
3670.00,88.14
3669.00,88.10
3668.00,88.05
3667.00,88.02
3666.00,87.99
3665.00,87.97
3664.00,87.95
3663.00,87.94
3662.00,87.92
3661.00,87.90
3660.00,87.89
3659.00,87.86
3658.00,87.83
3657.00,87.80
3656.00,87.76
3655.00,87.73
3654.00,87.69
3653.00,87.64
3652.00,87.59
3651.00,87.55
3650.00,87.52
3649.00,87.48
3648.00,87.43
3647.00,87.41
3646.00,87.39
3645.00,87.38
3644.00,87.36
3643.00,87.34
3642.00,87.32
3641.00,87.30
3640.00,87.28
3639.00,87.24
3638.00,87.20
3637.00,87.15
3636.00,87.11
3635.00,87.10
3634.00,87.10
3633.00,87.11
3632.00,87.11
3631.00,87.07
3630.00,87.01
3629.00,86.98
3628.00,86.97
3627.00,86.98
3626.00,86.99
3625.00,87.01
3624.00,87.02
3623.00,87.01
3622.00,86.97
3621.00,86.92
3620.00,86.87
3619.00,86.84
3618.00,86.82
3617.00,86.81
3616.00,86.80
3615.00,86.79
3614.00,86.79
3613.00,86.79
3612.00,86.79
3611.00,86.78
3610.00,86.76
3609.00,86.74
3608.00,86.75
3607.00,86.78
3606.00,86.81
3605.00,86.84
3604.00,86.85
3603.00,86.84
3602.00,86.83
3601.00,86.81
3600.00,86.80
3599.00,86.78
3598.00,86.76
3597.00,86.75
3596.00,86.75
3595.00,86.77
3594.00,86.79
3593.00,86.80
3592.00,86.79
3591.00,86.76
3590.00,86.74
3589.00,86.74
3588.00,86.75
3587.00,86.76
3586.00,86.76
3585.00,86.73
3584.00,86.70
3583.00,86.67
3582.00,86.64
3581.00,86.63
3580.00,86.63
3579.00,86.63
3578.00,86.64
3577.00,86.65
3576.00,86.64
3575.00,86.63
3574.00,86.61
3573.00,86.58
3572.00,86.54
3571.00,86.50
3570.00,86.47
3569.00,86.44
3568.00,86.43
3567.00,86.42
3566.00,86.42
3565.00,86.41
3564.00,86.40
3563.00,86.39
3562.00,86.37
3561.00,86.34
3560.00,86.32
3559.00,86.30
3558.00,86.30
3557.00,86.31
3556.00,86.32
3555.00,86.32
3554.00,86.30
3553.00,86.25
3552.00,86.20
3551.00,86.14
3550.00,86.10
3549.00,86.07
3548.00,86.05
3547.00,86.02
3546.00,85.99
3545.00,85.95
3544.00,85.92
3543.00,85.90
3542.00,85.89
3541.00,85.89
3540.00,85.89
3539.00,85.89
3538.00,85.87
3537.00,85.84
3536.00,85.81
3535.00,85.79
3534.00,85.77
3533.00,85.74
3532.00,85.70
3531.00,85.67
3530.00,85.65
3529.00,85.65
3528.00,85.67
3527.00,85.68
3526.00,85.67
3525.00,85.63
3524.00,85.59
3523.00,85.56
3522.00,85.55
3521.00,85.57
3520.00,85.57
3519.00,85.57
3518.00,85.55
3517.00,85.52
3516.00,85.49
3515.00,85.47
3514.00,85.45
3513.00,85.43
3512.00,85.41
3511.00,85.40
3510.00,85.38
3509.00,85.37
3508.00,85.37
3507.00,85.38
3506.00,85.38
3505.00,85.37
3504.00,85.35
3503.00,85.31
3502.00,85.28
3501.00,85.26
3500.00,85.26
3499.00,85.26
3498.00,85.26
3497.00,85.26
3496.00,85.25
3495.00,85.24
3494.00,85.21
3493.00,85.19
3492.00,85.17
3491.00,85.16
3490.00,85.14
3489.00,85.12
3488.00,85.10
3487.00,85.08
3486.00,85.07
3485.00,85.07
3484.00,85.07
3483.00,85.07
3482.00,85.07
3481.00,85.08
3480.00,85.09
3479.00,85.10
3478.00,85.10
3477.00,85.08
3476.00,85.06
3475.00,85.03
3474.00,84.99
3473.00,84.97
3472.00,84.96
3471.00,84.97
3470.00,84.99
3469.00,85.01
3468.00,85.01
3467.00,85.01
3466.00,84.99
3465.00,84.99
3464.00,84.99
3463.00,85.00
3462.00,85.00
3461.00,84.99
3460.00,84.96
3459.00,84.93
3458.00,84.91
3457.00,84.90
3456.00,84.88
3455.00,84.86
3454.00,84.84
3453.00,84.83
3452.00,84.83
3451.00,84.84
3450.00,84.83
3449.00,84.82
3448.00,84.79
3447.00,84.77
3446.00,84.74
3445.00,84.72
3444.00,84.71
3443.00,84.69
3442.00,84.66
3441.00,84.61
3440.00,84.55
3439.00,84.51
3438.00,84.48
3437.00,84.46
3436.00,84.44
3435.00,84.43
3434.00,84.42
3433.00,84.40
3432.00,84.37
3431.00,84.35
3430.00,84.32
3429.00,84.28
3428.00,84.24
3427.00,84.21
3426.00,84.19
3425.00,84.19
3424.00,84.18
3423.00,84.16
3422.00,84.13
3421.00,84.09
3420.00,84.06
3419.00,84.05
3418.00,84.06
3417.00,84.05
3416.00,84.03
3415.00,84.01
3414.00,83.99
3413.00,83.97
3412.00,83.95
3411.00,83.92
3410.00,83.89
3409.00,83.86
3408.00,83.83
3407.00,83.81
3406.00,83.80
3405.00,83.78
3404.00,83.77
3403.00,83.75
3402.00,83.72
3401.00,83.68
3400.00,83.65
3399.00,83.62
3398.00,83.59
3397.00,83.58
3396.00,83.56
3395.00,83.55
3394.00,83.52
3393.00,83.48
3392.00,83.43
3391.00,83.38
3390.00,83.34
3389.00,83.32
3388.00,83.29
3387.00,83.25
3386.00,83.19
3385.00,83.11
3384.00,83.03
3383.00,82.96
3382.00,82.89
3381.00,82.82
3380.00,82.74
3379.00,82.67
3378.00,82.61
3377.00,82.54
3376.00,82.46
3375.00,82.38
3374.00,82.29
3373.00,82.21
3372.00,82.13
3371.00,82.05
3370.00,81.95
3369.00,81.85
3368.00,81.73
3367.00,81.63
3366.00,81.52
3365.00,81.41
3364.00,81.28
3363.00,81.15
3362.00,81.01
3361.00,80.87
3360.00,80.73
3359.00,80.58
3358.00,80.42
3357.00,80.25
3356.00,80.09
3355.00,79.93
3354.00,79.77
3353.00,79.59
3352.00,79.39
3351.00,79.18
3350.00,78.97
3349.00,78.76
3348.00,78.54
3347.00,78.33
3346.00,78.12
3345.00,77.90
3344.00,77.68
3343.00,77.45
3342.00,77.21
3341.00,76.96
3340.00,76.71
3339.00,76.44
3338.00,76.17
3337.00,75.89
3336.00,75.61
3335.00,75.35
3334.00,75.11
3333.00,74.87
3332.00,74.63
3331.00,74.40
3330.00,74.17
3329.00,73.95
3328.00,73.72
3327.00,73.51
3326.00,73.31
3325.00,73.13
3324.00,72.98
3323.00,72.85
3322.00,72.73
3321.00,72.62
3320.00,72.52
3319.00,72.44
3318.00,72.40
3317.00,72.37
3316.00,72.36
3315.00,72.35
3314.00,72.34
3313.00,72.34
3312.00,72.35
3311.00,72.39
3310.00,72.45
3309.00,72.53
3308.00,72.60
3307.00,72.68
3306.00,72.77
3305.00,72.86
3304.00,72.96
3303.00,73.06
3302.00,73.15
3301.00,73.24
3300.00,73.34
3299.00,73.45
3298.00,73.55
3297.00,73.64
3296.00,73.73
3295.00,73.81
3294.00,73.90
3293.00,73.99
3292.00,74.08
3291.00,74.15
3290.00,74.20
3289.00,74.26
3288.00,74.33
3287.00,74.41
3286.00,74.50
3285.00,74.57
3284.00,74.65
3283.00,74.74
3282.00,74.83
3281.00,74.93
3280.00,75.04
3279.00,75.15
3278.00,75.26
3277.00,75.37
3276.00,75.49
3275.00,75.60
3274.00,75.70
3273.00,75.80
3272.00,75.89
3271.00,75.97
3270.00,76.06
3269.00,76.14
3268.00,76.23
3267.00,76.33
3266.00,76.45
3265.00,76.56
3264.00,76.65
3263.00,76.72
3262.00,76.77
3261.00,76.82
3260.00,76.88
3259.00,76.96
3258.00,77.06
3257.00,77.17
3256.00,77.26
3255.00,77.35
3254.00,77.43
3253.00,77.51
3252.00,77.59
3251.00,77.68
3250.00,77.78
3249.00,77.90
3248.00,78.00
3247.00,78.10
3246.00,78.19
3245.00,78.28
3244.00,78.37
3243.00,78.47
3242.00,78.56
3241.00,78.64
3240.00,78.73
3239.00,78.82
3238.00,78.92
3237.00,79.03
3236.00,79.13
3235.00,79.22
3234.00,79.30
3233.00,79.37
3232.00,79.42
3231.00,79.48
3230.00,79.54
3229.00,79.60
3228.00,79.66
3227.00,79.73
3226.00,79.80
3225.00,79.88
3224.00,79.95
3223.00,80.01
3222.00,80.07
3221.00,80.12
3220.00,80.16
3219.00,80.21
3218.00,80.26
3217.00,80.31
3216.00,80.36
3215.00,80.42
3214.00,80.47
3213.00,80.53
3212.00,80.59
3211.00,80.66
3210.00,80.73
3209.00,80.79
3208.00,80.83
3207.00,80.87
3206.00,80.90
3205.00,80.94
3204.00,81.00
3203.00,81.06
3202.00,81.13
3201.00,81.18
3200.00,81.24
3199.00,81.29
3198.00,81.34
3197.00,81.39
3196.00,81.44
3195.00,81.48
3194.00,81.52
3193.00,81.57
3192.00,81.63
3191.00,81.69
3190.00,81.76
3189.00,81.81
3188.00,81.83
3187.00,81.84
3186.00,81.86
3185.00,81.90
3184.00,81.96
3183.00,82.03
3182.00,82.10
3181.00,82.15
3180.00,82.18
3179.00,82.20
3178.00,82.22
3177.00,82.25
3176.00,82.28
3175.00,82.30
3174.00,82.32
3173.00,82.35
3172.00,82.37
3171.00,82.40
3170.00,82.42
3169.00,82.43
3168.00,82.42
3167.00,82.39
3166.00,82.37
3165.00,82.35
3164.00,82.34
3163.00,82.34
3162.00,82.34
3161.00,82.33
3160.00,82.31
3159.00,82.29
3158.00,82.29
3157.00,82.30
3156.00,82.31
3155.00,82.32
3154.00,82.32
3153.00,82.32
3152.00,82.31
3151.00,82.31
3150.00,82.31
3149.00,82.32
3148.00,82.35
3147.00,82.38
3146.00,82.41
3145.00,82.44
3144.00,82.47
3143.00,82.50
3142.00,82.53
3141.00,82.57
3140.00,82.61
3139.00,82.65
3138.00,82.70
3137.00,82.74
3136.00,82.77
3135.00,82.79
3134.00,82.80
3133.00,82.82
3132.00,82.84
3131.00,82.87
3130.00,82.91
3129.00,82.95
3128.00,82.99
3127.00,83.03
3126.00,83.06
3125.00,83.08
3124.00,83.10
3123.00,83.11
3122.00,83.12
3121.00,83.13
3120.00,83.14
3119.00,83.16
3118.00,83.17
3117.00,83.18
3116.00,83.19
3115.00,83.20
3114.00,83.21
3113.00,83.22
3112.00,83.22
3111.00,83.22
3110.00,83.20
3109.00,83.18
3108.00,83.17
3107.00,83.16
3106.00,83.15
3105.00,83.14
3104.00,83.13
3103.00,83.12
3102.00,83.12
3101.00,83.12
3100.00,83.11
3099.00,83.09
3098.00,83.07
3097.00,83.05
3096.00,83.04
3095.00,83.05
3094.00,83.06
3093.00,83.08
3092.00,83.10
3091.00,83.11
3090.00,83.12
3089.00,83.13
3088.00,83.14
3087.00,83.15
3086.00,83.17
3085.00,83.20
3084.00,83.24
3083.00,83.26
3082.00,83.27
3081.00,83.27
3080.00,83.26
3079.00,83.25
3078.00,83.25
3077.00,83.24
3076.00,83.25
3075.00,83.25
3074.00,83.25
3073.00,83.23
3072.00,83.20
3071.00,83.18
3070.00,83.17
3069.00,83.18
3068.00,83.20
3067.00,83.20
3066.00,83.19
3065.00,83.17
3064.00,83.13
3063.00,83.10
3062.00,83.08
3061.00,83.07
3060.00,83.06
3059.00,83.06
3058.00,83.06
3057.00,83.06
3056.00,83.05
3055.00,83.04
3054.00,83.02
3053.00,83.00
3052.00,83.00
3051.00,83.01
3050.00,83.02
3049.00,83.04
3048.00,83.05
3047.00,83.07
3046.00,83.08
3045.00,83.09
3044.00,83.09
3043.00,83.11
3042.00,83.13
3041.00,83.16
3040.00,83.21
3039.00,83.25
3038.00,83.30
3037.00,83.34
3036.00,83.38
3035.00,83.42
3034.00,83.46
3033.00,83.50
3032.00,83.54
3031.00,83.58
3030.00,83.62
3029.00,83.66
3028.00,83.70
3027.00,83.75
3026.00,83.81
3025.00,83.85
3024.00,83.89
3023.00,83.92
3022.00,83.94
3021.00,83.96
3020.00,83.98
3019.00,84.02
3018.00,84.07
3017.00,84.12
3016.00,84.16
3015.00,84.18
3014.00,84.20
3013.00,84.21
3012.00,84.21
3011.00,84.22
3010.00,84.24
3009.00,84.26
3008.00,84.28
3007.00,84.30
3006.00,84.32
3005.00,84.36
3004.00,84.40
3003.00,84.46
3002.00,84.50
3001.00,84.54
3000.00,84.58
2999.00,84.60
2998.00,84.63
2997.00,84.65
2996.00,84.69
2995.00,84.74
2994.00,84.79
2993.00,84.84
2992.00,84.88
2991.00,84.92
2990.00,84.97
2989.00,85.01
2988.00,85.06
2987.00,85.10
2986.00,85.13
2985.00,85.15
2984.00,85.16
2983.00,85.18
2982.00,85.20
2981.00,85.24
2980.00,85.28
2979.00,85.32
2978.00,85.35
2977.00,85.38
2976.00,85.41
2975.00,85.43
2974.00,85.45
2973.00,85.46
2972.00,85.47
2971.00,85.48
2970.00,85.49
2969.00,85.51
2968.00,85.52
2967.00,85.53
2966.00,85.54
2965.00,85.54
2964.00,85.56
2963.00,85.57
2962.00,85.58
2961.00,85.59
2960.00,85.59
2959.00,85.61
2958.00,85.63
2957.00,85.65
2956.00,85.66
2955.00,85.66
2954.00,85.66
2953.00,85.66
2952.00,85.67
2951.00,85.67
2950.00,85.67
2949.00,85.67
2948.00,85.67
2947.00,85.68
2946.00,85.68
2945.00,85.68
2944.00,85.67
2943.00,85.67
2942.00,85.66
2941.00,85.66
2940.00,85.66
2939.00,85.66
2938.00,85.65
2937.00,85.63
2936.00,85.61
2935.00,85.60
2934.00,85.61
2933.00,85.62
2932.00,85.63
2931.00,85.64
2930.00,85.63
2929.00,85.62
2928.00,85.62
2927.00,85.62
2926.00,85.63
2925.00,85.63
2924.00,85.63
2923.00,85.62
2922.00,85.63
2921.00,85.65
2920.00,85.67
2919.00,85.69
2918.00,85.70
2917.00,85.71
2916.00,85.72
2915.00,85.75
2914.00,85.77
2913.00,85.79
2912.00,85.81
2911.00,85.84
2910.00,85.86
2909.00,85.87
2908.00,85.88
2907.00,85.89
2906.00,85.92
2905.00,85.94
2904.00,85.96
2903.00,85.97
2902.00,85.97
2901.00,85.95
2900.00,85.95
2899.00,85.96
2898.00,85.97
2897.00,85.98
2896.00,85.98
2895.00,85.98
2894.00,85.98
2893.00,85.98
2892.00,85.99
2891.00,86.00
2890.00,86.00
2889.00,86.01
2888.00,86.01
2887.00,86.02
2886.00,86.03
2885.00,86.04
2884.00,86.05
2883.00,86.05
2882.00,86.05
2881.00,86.04
2880.00,86.04
2879.00,86.05
2878.00,86.07
2877.00,86.09
2876.00,86.10
2875.00,86.10
2874.00,86.09
2873.00,86.07
2872.00,86.05
2871.00,86.04
2870.00,86.05
2869.00,86.05
2868.00,86.06
2867.00,86.07
2866.00,86.08
2865.00,86.09
2864.00,86.11
2863.00,86.13
2862.00,86.14
2861.00,86.15
2860.00,86.15
2859.00,86.15
2858.00,86.14
2857.00,86.12
2856.00,86.12
2855.00,86.12
2854.00,86.13
2853.00,86.14
2852.00,86.15
2851.00,86.16
2850.00,86.17
2849.00,86.18
2848.00,86.18
2847.00,86.19
2846.00,86.19
2845.00,86.20
2844.00,86.22
2843.00,86.24
2842.00,86.26
2841.00,86.26
2840.00,86.26
2839.00,86.25
2838.00,86.24
2837.00,86.23
2836.00,86.22
2835.00,86.20
2834.00,86.19
2833.00,86.17
2832.00,86.15
2831.00,86.12
2830.00,86.10
2829.00,86.08
2828.00,86.07
2827.00,86.07
2826.00,86.08
2825.00,86.08
2824.00,86.08
2823.00,86.07
2822.00,86.06
2821.00,86.06
2820.00,86.06
2819.00,86.07
2818.00,86.09
2817.00,86.09
2816.00,86.08
2815.00,86.07
2814.00,86.07
2813.00,86.07
2812.00,86.07
2811.00,86.08
2810.00,86.10
2809.00,86.13
2808.00,86.14
2807.00,86.16
2806.00,86.17
2805.00,86.19
2804.00,86.21
2803.00,86.23
2802.00,86.25
2801.00,86.25
2800.00,86.26
2799.00,86.27
2798.00,86.29
2797.00,86.31
2796.00,86.32
2795.00,86.32
2794.00,86.32
2793.00,86.32
2792.00,86.32
2791.00,86.32
2790.00,86.33
2789.00,86.34
2788.00,86.34
2787.00,86.34
2786.00,86.34
2785.00,86.34
2784.00,86.34
2783.00,86.33
2782.00,86.32
2781.00,86.33
2780.00,86.34
2779.00,86.36
2778.00,86.38
2777.00,86.39
2776.00,86.38
2775.00,86.37
2774.00,86.36
2773.00,86.36
2772.00,86.37
2771.00,86.39
2770.00,86.41
2769.00,86.43
2768.00,86.44
2767.00,86.44
2766.00,86.44
2765.00,86.44
2764.00,86.45
2763.00,86.47
2762.00,86.50
2761.00,86.51
2760.00,86.50
2759.00,86.49
2758.00,86.49
2757.00,86.49
2756.00,86.51
2755.00,86.53
2754.00,86.55
2753.00,86.56
2752.00,86.56
2751.00,86.57
2750.00,86.57
2749.00,86.58
2748.00,86.58
2747.00,86.58
2746.00,86.57
2745.00,86.58
2744.00,86.59
2743.00,86.61
2742.00,86.64
2741.00,86.65
2740.00,86.65
2739.00,86.64
2738.00,86.64
2737.00,86.64
2736.00,86.64
2735.00,86.66
2734.00,86.68
2733.00,86.70
2732.00,86.71
2731.00,86.72
2730.00,86.73
2729.00,86.74
2728.00,86.74
2727.00,86.75
2726.00,86.77
2725.00,86.79
2724.00,86.82
2723.00,86.84
2722.00,86.86
2721.00,86.87
2720.00,86.89
2719.00,86.91
2718.00,86.94
2717.00,86.95
2716.00,86.96
2715.00,86.97
2714.00,86.98
2713.00,86.99
2712.00,87.01
2711.00,87.03
2710.00,87.05
2709.00,87.07
2708.00,87.08
2707.00,87.10
2706.00,87.12
2705.00,87.13
2704.00,87.13
2703.00,87.14
2702.00,87.15
2701.00,87.17
2700.00,87.18
2699.00,87.18
2698.00,87.18
2697.00,87.16
2696.00,87.15
2695.00,87.15
2694.00,87.16
2693.00,87.17
2692.00,87.18
2691.00,87.18
2690.00,87.18
2689.00,87.17
2688.00,87.16
2687.00,87.15
2686.00,87.16
2685.00,87.17
2684.00,87.17
2683.00,87.16
2682.00,87.16
2681.00,87.15
2680.00,87.13
2679.00,87.12
2678.00,87.13
2677.00,87.14
2676.00,87.16
2675.00,87.17
2674.00,87.15
2673.00,87.13
2672.00,87.10
2671.00,87.09
2670.00,87.09
2669.00,87.10
2668.00,87.09
2667.00,87.06
2666.00,87.04
2665.00,87.02
2664.00,87.01
2663.00,87.00
2662.00,86.99
2661.00,86.98
2660.00,86.97
2659.00,86.96
2658.00,86.94
2657.00,86.91
2656.00,86.88
2655.00,86.86
2654.00,86.84
2653.00,86.82
2652.00,86.80
2651.00,86.79
2650.00,86.78
2649.00,86.76
2648.00,86.75
2647.00,86.73
2646.00,86.71
2645.00,86.69
2644.00,86.67
2643.00,86.65
2642.00,86.63
2641.00,86.62
2640.00,86.62
2639.00,86.61
2638.00,86.59
2637.00,86.58
2636.00,86.56
2635.00,86.54
2634.00,86.53
2633.00,86.52
2632.00,86.51
2631.00,86.49
2630.00,86.47
2629.00,86.45
2628.00,86.44
2627.00,86.43
2626.00,86.43
2625.00,86.43
2624.00,86.44
2623.00,86.45
2622.00,86.46
2621.00,86.48
2620.00,86.49
2619.00,86.49
2618.00,86.48
2617.00,86.47
2616.00,86.45
2615.00,86.44
2614.00,86.44
2613.00,86.44
2612.00,86.45
2611.00,86.47
2610.00,86.49
2609.00,86.50
2608.00,86.49
2607.00,86.46
2606.00,86.43
2605.00,86.39
2604.00,86.38
2603.00,86.39
2602.00,86.41
2601.00,86.41
2600.00,86.39
2599.00,86.37
2598.00,86.36
2597.00,86.36
2596.00,86.36
2595.00,86.35
2594.00,86.34
2593.00,86.33
2592.00,86.32
2591.00,86.31
2590.00,86.29
2589.00,86.27
2588.00,86.25
2587.00,86.24
2586.00,86.24
2585.00,86.23
2584.00,86.23
2583.00,86.22
2582.00,86.22
2581.00,86.22
2580.00,86.22
2579.00,86.22
2578.00,86.21
2577.00,86.20
2576.00,86.20
2575.00,86.21
2574.00,86.24
2573.00,86.26
2572.00,86.26
2571.00,86.25
2570.00,86.23
2569.00,86.21
2568.00,86.19
2567.00,86.17
2566.00,86.16
2565.00,86.16
2564.00,86.16
2563.00,86.18
2562.00,86.18
2561.00,86.17
2560.00,86.16
2559.00,86.15
2558.00,86.14
2557.00,86.12
2556.00,86.08
2555.00,86.06
2554.00,86.06
2553.00,86.08
2552.00,86.12
2551.00,86.15
2550.00,86.17
2549.00,86.17
2548.00,86.14
2547.00,86.12
2546.00,86.11
2545.00,86.12
2544.00,86.12
2543.00,86.14
2542.00,86.15
2541.00,86.16
2540.00,86.16
2539.00,86.16
2538.00,86.17
2537.00,86.17
2536.00,86.17
2535.00,86.18
2534.00,86.17
2533.00,86.16
2532.00,86.16
2531.00,86.18
2530.00,86.22
2529.00,86.24
2528.00,86.25
2527.00,86.23
2526.00,86.21
2525.00,86.19
2524.00,86.17
2523.00,86.17
2522.00,86.18
2521.00,86.20
2520.00,86.23
2519.00,86.25
2518.00,86.25
2517.00,86.23
2516.00,86.20
2515.00,86.17
2514.00,86.15
2513.00,86.15
2512.00,86.17
2511.00,86.19
2510.00,86.21
2509.00,86.22
2508.00,86.22
2507.00,86.22
2506.00,86.22
2505.00,86.21
2504.00,86.21
2503.00,86.21
2502.00,86.23
2501.00,86.24
2500.00,86.24
2499.00,86.23
2498.00,86.22
2497.00,86.22
2496.00,86.22
2495.00,86.24
2494.00,86.25
2493.00,86.27
2492.00,86.27
2491.00,86.28
2490.00,86.29
2489.00,86.30
2488.00,86.31
2487.00,86.31
2486.00,86.31
2485.00,86.32
2484.00,86.32
2483.00,86.33
2482.00,86.36
2481.00,86.38
2480.00,86.40
2479.00,86.41
2478.00,86.40
2477.00,86.39
2476.00,86.38
2475.00,86.37
2474.00,86.37
2473.00,86.37
2472.00,86.36
2471.00,86.35
2470.00,86.34
2469.00,86.34
2468.00,86.35
2467.00,86.36
2466.00,86.37
2465.00,86.38
2464.00,86.38
2463.00,86.38
2462.00,86.38
2461.00,86.36
2460.00,86.34
2459.00,86.32
2458.00,86.31
2457.00,86.30
2456.00,86.30
2455.00,86.31
2454.00,86.34
2453.00,86.35
2452.00,86.37
2451.00,86.39
2450.00,86.38
2449.00,86.35
2448.00,86.31
2447.00,86.28
2446.00,86.29
2445.00,86.31
2444.00,86.33
2443.00,86.35
2442.00,86.35
2441.00,86.36
2440.00,86.35
2439.00,86.34
2438.00,86.34
2437.00,86.34
2436.00,86.36
2435.00,86.40
2434.00,86.43
2433.00,86.46
2432.00,86.45
2431.00,86.44
2430.00,86.42
2429.00,86.40
2428.00,86.37
2427.00,86.37
2426.00,86.38
2425.00,86.40
2424.00,86.41
2423.00,86.42
2422.00,86.42
2421.00,86.43
2420.00,86.45
2419.00,86.46
2418.00,86.48
2417.00,86.49
2416.00,86.49
2415.00,86.49
2414.00,86.48
2413.00,86.47
2412.00,86.47
2411.00,86.48
2410.00,86.50
2409.00,86.52
2408.00,86.55
2407.00,86.58
2406.00,86.60
2405.00,86.61
2404.00,86.61
2403.00,86.62
2402.00,86.65
2401.00,86.68
2400.00,86.70
2399.00,86.71
2398.00,86.72
2397.00,86.73
2396.00,86.74
2395.00,86.75
2394.00,86.75
2393.00,86.76
2392.00,86.77
2391.00,86.79
2390.00,86.81
2389.00,86.82
2388.00,86.84
2387.00,86.87
2386.00,86.92
2385.00,86.99
2384.00,87.06
2383.00,87.13
2382.00,87.20
2381.00,87.27
2380.00,87.34
2379.00,87.39
2378.00,87.42
2377.00,87.42
2376.00,87.40
2375.00,87.38
2374.00,87.38
2373.00,87.39
2372.00,87.42
2371.00,87.47
2370.00,87.53
2369.00,87.58
2368.00,87.59
2367.00,87.56
2366.00,87.50
2365.00,87.46
2364.00,87.46
2363.00,87.51
2362.00,87.60
2361.00,87.70
2360.00,87.77
2359.00,87.79
2358.00,87.77
2357.00,87.71
2356.00,87.66
2355.00,87.64
2354.00,87.68
2353.00,87.75
2352.00,87.84
2351.00,87.90
2350.00,87.91
2349.00,87.87
2348.00,87.81
2347.00,87.78
2346.00,87.77
2345.00,87.74
2344.00,87.70
2343.00,87.66
2342.00,87.64
2341.00,87.64
2340.00,87.65
2339.00,87.68
2338.00,87.71
2337.00,87.70
2336.00,87.68
2335.00,87.66
2334.00,87.66
2333.00,87.66
2332.00,87.66
2331.00,87.65
2330.00,87.61
2329.00,87.55
2328.00,87.49
2327.00,87.43
2326.00,87.38
2325.00,87.33
2324.00,87.28
2323.00,87.25
2322.00,87.22
2321.00,87.17
2320.00,87.12
2319.00,87.08
2318.00,87.05
2317.00,87.02
2316.00,87.00
2315.00,87.00
2314.00,86.99
2313.00,86.97
2312.00,86.95
2311.00,86.94
2310.00,86.93
2309.00,86.92
2308.00,86.88
2307.00,86.83
2306.00,86.77
2305.00,86.72
2304.00,86.69
2303.00,86.67
2302.00,86.66
2301.00,86.63
2300.00,86.58
2299.00,86.54
2298.00,86.51
2297.00,86.49
2296.00,86.46
2295.00,86.44
2294.00,86.41
2293.00,86.36
2292.00,86.30
2291.00,86.23
2290.00,86.16
2289.00,86.10
2288.00,86.05
2287.00,86.01
2286.00,85.98
2285.00,85.96
2284.00,85.95
2283.00,85.93
2282.00,85.92
2281.00,85.89
2280.00,85.87
2279.00,85.86
2278.00,85.86
2277.00,85.86
2276.00,85.86
2275.00,85.85
2274.00,85.85
2273.00,85.84
2272.00,85.84
2271.00,85.84
2270.00,85.83
2269.00,85.79
2268.00,85.73
2267.00,85.67
2266.00,85.64
2265.00,85.64
2264.00,85.65
2263.00,85.65
2262.00,85.65
2261.00,85.62
2260.00,85.60
2259.00,85.58
2258.00,85.57
2257.00,85.57
2256.00,85.56
2255.00,85.54
2254.00,85.52
2253.00,85.51
2252.00,85.50
2251.00,85.50
2250.00,85.49
2249.00,85.46
2248.00,85.43
2247.00,85.40
2246.00,85.38
2245.00,85.35
2244.00,85.31
2243.00,85.27
2242.00,85.24
2241.00,85.21
2240.00,85.19
2239.00,85.17
2238.00,85.15
2237.00,85.12
2236.00,85.11
2235.00,85.12
2234.00,85.15
2233.00,85.14
2232.00,85.10
2231.00,85.04
2230.00,85.00
2229.00,85.00
2228.00,85.01
2227.00,85.02
2226.00,85.01
2225.00,84.99
2224.00,84.96
2223.00,84.93
2222.00,84.89
2221.00,84.85
2220.00,84.81
2219.00,84.80
2218.00,84.80
2217.00,84.80
2216.00,84.77
2215.00,84.73
2214.00,84.69
2213.00,84.66
2212.00,84.65
2211.00,84.67
2210.00,84.71
2209.00,84.74
2208.00,84.74
2207.00,84.73
2206.00,84.72
2205.00,84.71
2204.00,84.67
2203.00,84.59
2202.00,84.51
2201.00,84.44
2200.00,84.42
2199.00,84.44
2198.00,84.47
2197.00,84.50
2196.00,84.49
2195.00,84.46
2194.00,84.43
2193.00,84.40
2192.00,84.38
2191.00,84.34
2190.00,84.27
2189.00,84.17
2188.00,84.07
2187.00,84.00
2186.00,83.95
2185.00,83.92
2184.00,83.95
2183.00,84.05
2182.00,84.18
2181.00,84.26
2180.00,84.28
2179.00,84.26
2178.00,84.25
2177.00,84.25
2176.00,84.27
2175.00,84.28
2174.00,84.26
2173.00,84.18
2172.00,84.07
2171.00,83.97
2170.00,83.89
2169.00,83.82
2168.00,83.76
2167.00,83.69
2166.00,83.61
2165.00,83.50
2164.00,83.38
2163.00,83.27
2162.00,83.19
2161.00,83.20
2160.00,83.34
2159.00,83.59
2158.00,83.87
2157.00,84.08
2156.00,84.21
2155.00,84.31
2154.00,84.40
2153.00,84.46
2152.00,84.50
2151.00,84.53
2150.00,84.56
2149.00,84.59
2148.00,84.64
2147.00,84.71
2146.00,84.81
2145.00,84.90
2144.00,85.00
2143.00,85.11
2142.00,85.19
2141.00,85.23
2140.00,85.25
2139.00,85.28
2138.00,85.35
2137.00,85.44
2136.00,85.54
2135.00,85.63
2134.00,85.71
2133.00,85.77
2132.00,85.80
2131.00,85.82
2130.00,85.83
2129.00,85.84
2128.00,85.84
2127.00,85.85
2126.00,85.84
2125.00,85.81
2124.00,85.78
2123.00,85.79
2122.00,85.83
2121.00,85.88
2120.00,85.92
2119.00,85.94
2118.00,85.96
2117.00,85.97
2116.00,85.96
2115.00,85.95
2114.00,85.93
2113.00,85.88
2112.00,85.84
2111.00,85.82
2110.00,85.82
2109.00,85.85
2108.00,85.89
2107.00,85.92
2106.00,85.95
2105.00,85.97
2104.00,85.95
2103.00,85.91
2102.00,85.85
2101.00,85.80
2100.00,85.76
2099.00,85.75
2098.00,85.77
2097.00,85.81
2096.00,85.85
2095.00,85.90
2094.00,85.95
2093.00,85.97
2092.00,85.99
2091.00,86.00
2090.00,86.01
2089.00,86.01
2088.00,85.99
2087.00,85.98
2086.00,85.97
2085.00,85.94
2084.00,85.89
2083.00,85.85
2082.00,85.82
2081.00,85.81
2080.00,85.81
2079.00,85.81
2078.00,85.80
2077.00,85.76
2076.00,85.70
2075.00,85.66
2074.00,85.66
2073.00,85.69
2072.00,85.73
2071.00,85.76
2070.00,85.75
2069.00,85.73
2068.00,85.71
2067.00,85.71
2066.00,85.70
2065.00,85.67
2064.00,85.61
2063.00,85.56
2062.00,85.54
2061.00,85.53
2060.00,85.53
2059.00,85.53
2058.00,85.51
2057.00,85.48
2056.00,85.46
2055.00,85.45
2054.00,85.41
2053.00,85.29
2052.00,85.14
2051.00,84.99
2050.00,84.90
2049.00,84.85
2048.00,84.84
2047.00,84.87
2046.00,84.93
2045.00,84.95
2044.00,84.94
2043.00,84.89
2042.00,84.83
2041.00,84.76
2040.00,84.71
2039.00,84.68
2038.00,84.65
2037.00,84.60
2036.00,84.51
2035.00,84.44
2034.00,84.41
2033.00,84.42
2032.00,84.46
2031.00,84.52
2030.00,84.59
2029.00,84.62
2028.00,84.59
2027.00,84.55
2026.00,84.54
2025.00,84.57
2024.00,84.64
2023.00,84.69
2022.00,84.71
2021.00,84.69
2020.00,84.67
2019.00,84.69
2018.00,84.74
2017.00,84.78
2016.00,84.80
2015.00,84.79
2014.00,84.75
2013.00,84.70
2012.00,84.68
2011.00,84.71
2010.00,84.75
2009.00,84.79
2008.00,84.82
2007.00,84.88
2006.00,84.97
2005.00,85.08
2004.00,85.21
2003.00,85.33
2002.00,85.41
2001.00,85.43
2000.00,85.43
1999.00,85.45
1998.00,85.50
1997.00,85.52
1996.00,85.50
1995.00,85.47
1994.00,85.43
1993.00,85.40
1992.00,85.37
1991.00,85.36
1990.00,85.35
1989.00,85.35
1988.00,85.33
1987.00,85.29
1986.00,85.24
1985.00,85.18
1984.00,85.10
1983.00,85.04
1982.00,84.98
1981.00,84.93
1980.00,84.88
1979.00,84.87
1978.00,84.87
1977.00,84.90
1976.00,84.94
1975.00,85.02
1974.00,85.15
1973.00,85.29
1972.00,85.39
1971.00,85.43
1970.00,85.45
1969.00,85.47
1968.00,85.52
1967.00,85.58
1966.00,85.63
1965.00,85.66
1964.00,85.67
1963.00,85.69
1962.00,85.70
1961.00,85.73
1960.00,85.79
1959.00,85.89
1958.00,86.00
1957.00,86.07
1956.00,86.09
1955.00,86.11
1954.00,86.15
1953.00,86.19
1952.00,86.22
1951.00,86.23
1950.00,86.23
1949.00,86.22
1948.00,86.21
1947.00,86.20
1946.00,86.20
1945.00,86.19
1944.00,86.21
1943.00,86.25
1942.00,86.30
1941.00,86.30
1940.00,86.28
1939.00,86.27
1938.00,86.29
1937.00,86.34
1936.00,86.40
1935.00,86.46
1934.00,86.51
1933.00,86.54
1932.00,86.55
1931.00,86.57
1930.00,86.61
1929.00,86.65
1928.00,86.71
1927.00,86.80
1926.00,86.91
1925.00,86.99
1924.00,87.03
1923.00,87.04
1922.00,87.03
1921.00,87.03
1920.00,87.03
1919.00,87.05
1918.00,87.07
1917.00,87.07
1916.00,87.08
1915.00,87.10
1914.00,87.11
1913.00,87.10
1912.00,87.10
1911.00,87.11
1910.00,87.13
1909.00,87.13
1908.00,87.12
1907.00,87.10
1906.00,87.09
1905.00,87.09
1904.00,87.10
1903.00,87.14
1902.00,87.19
1901.00,87.25
1900.00,87.30
1899.00,87.36
1898.00,87.41
1897.00,87.47
1896.00,87.51
1895.00,87.56
1894.00,87.61
1893.00,87.66
1892.00,87.72
1891.00,87.77
1890.00,87.82
1889.00,87.85
1888.00,87.88
1887.00,87.94
1886.00,88.00
1885.00,88.04
1884.00,88.09
1883.00,88.13
1882.00,88.18
1881.00,88.20
1880.00,88.20
1879.00,88.21
1878.00,88.22
1877.00,88.23
1876.00,88.24
1875.00,88.26
1874.00,88.29
1873.00,88.32
1872.00,88.34
1871.00,88.36
1870.00,88.40
1869.00,88.45
1868.00,88.49
1867.00,88.54
1866.00,88.58
1865.00,88.60
1864.00,88.61
1863.00,88.60
1862.00,88.60
1861.00,88.60
1860.00,88.61
1859.00,88.65
1858.00,88.69
1857.00,88.74
1856.00,88.77
1855.00,88.79
1854.00,88.81
1853.00,88.83
1852.00,88.85
1851.00,88.86
1850.00,88.87
1849.00,88.86
1848.00,88.87
1847.00,88.90
1846.00,88.95
1845.00,89.00
1844.00,89.02
1843.00,89.04
1842.00,89.06
1841.00,89.07
1840.00,89.08
1839.00,89.11
1838.00,89.14
1837.00,89.17
1836.00,89.18
1835.00,89.19
1834.00,89.20
1833.00,89.22
1832.00,89.23
1831.00,89.24
1830.00,89.25
1829.00,89.24
1828.00,89.24
1827.00,89.25
1826.00,89.27
1825.00,89.28
1824.00,89.28
1823.00,89.29
1822.00,89.31
1821.00,89.32
1820.00,89.35
1819.00,89.39
1818.00,89.43
1817.00,89.46
1816.00,89.46
1815.00,89.45
1814.00,89.43
1813.00,89.41
1812.00,89.42
1811.00,89.45
1810.00,89.50
1809.00,89.53
1808.00,89.55
1807.00,89.57
1806.00,89.59
1805.00,89.61
1804.00,89.62
1803.00,89.62
1802.00,89.64
1801.00,89.65
1800.00,89.67
1799.00,89.70
1798.00,89.73
1797.00,89.77
1796.00,89.80
1795.00,89.85
1794.00,89.90
1793.00,89.93
1792.00,89.95
1791.00,89.96
1790.00,89.98
1789.00,89.99
1788.00,90.00
1787.00,90.00
1786.00,90.01
1785.00,90.01
1784.00,90.02
1783.00,90.04
1782.00,90.06
1781.00,90.09
1780.00,90.11
1779.00,90.13
1778.00,90.15
1777.00,90.16
1776.00,90.16
1775.00,90.16
1774.00,90.18
1773.00,90.19
1772.00,90.20
1771.00,90.21
1770.00,90.21
1769.00,90.20
1768.00,90.20
1767.00,90.20
1766.00,90.21
1765.00,90.22
1764.00,90.22
1763.00,90.24
1762.00,90.26
1761.00,90.26
1760.00,90.25
1759.00,90.24
1758.00,90.26
1757.00,90.29
1756.00,90.32
1755.00,90.35
1754.00,90.37
1753.00,90.37
1752.00,90.38
1751.00,90.39
1750.00,90.42
1749.00,90.44
1748.00,90.46
1747.00,90.47
1746.00,90.49
1745.00,90.50
1744.00,90.51
1743.00,90.55
1742.00,90.59
1741.00,90.61
1740.00,90.63
1739.00,90.67
1738.00,90.72
1737.00,90.78
1736.00,90.82
1735.00,90.85
1734.00,90.85
1733.00,90.81
1732.00,90.77
1731.00,90.77
1730.00,90.79
1729.00,90.81
1728.00,90.82
1727.00,90.82
1726.00,90.83
1725.00,90.83
1724.00,90.82
1723.00,90.82
1722.00,90.84
1721.00,90.85
1720.00,90.85
1719.00,90.84
1718.00,90.83
1717.00,90.79
1716.00,90.75
1715.00,90.73
1714.00,90.74
1713.00,90.73
1712.00,90.70
1711.00,90.67
1710.00,90.65
1709.00,90.64
1708.00,90.61
1707.00,90.58
1706.00,90.56
1705.00,90.54
1704.00,90.53
1703.00,90.54
1702.00,90.54
1701.00,90.49
1700.00,90.37
1699.00,90.26
1698.00,90.19
1697.00,90.08
1696.00,89.92
1695.00,89.73
1694.00,89.56
1693.00,89.40
1692.00,89.22
1691.00,89.01
1690.00,88.75
1689.00,88.47
1688.00,88.21
1687.00,87.97
1686.00,87.67
1685.00,87.17
1684.00,86.50
1683.00,85.90
1682.00,85.46
1681.00,85.03
1680.00,84.58
1679.00,84.12
1678.00,83.70
1677.00,83.23
1676.00,82.65
1675.00,81.99
1674.00,81.42
1673.00,80.94
1672.00,80.48
1671.00,79.94
1670.00,79.26
1669.00,78.47
1668.00,77.70
1667.00,77.03
1666.00,76.43
1665.00,75.74
1664.00,74.86
1663.00,73.78
1662.00,72.64
1661.00,71.57
1660.00,70.54
1659.00,69.56
1658.00,68.63
1657.00,67.83
1656.00,67.13
1655.00,66.35
1654.00,65.09
1653.00,63.32
1652.00,61.89
1651.00,61.17
1650.00,60.77
1649.00,60.31
1648.00,59.55
1647.00,58.51
1646.00,57.48
1645.00,56.69
1644.00,56.11
1643.00,55.65
1642.00,55.27
1641.00,54.95
1640.00,54.72
1639.00,54.62
1638.00,54.66
1637.00,54.77
1636.00,54.92
1635.00,55.19
1634.00,55.60
1633.00,56.12
1632.00,56.69
1631.00,57.32
1630.00,57.99
1629.00,58.69
1628.00,59.41
1627.00,60.12
1626.00,60.84
1625.00,61.56
1624.00,62.29
1623.00,62.99
1622.00,63.63
1621.00,64.20
1620.00,64.72
1619.00,65.20
1618.00,65.57
1617.00,65.81
1616.00,65.94
1615.00,66.06
1614.00,66.21
1613.00,66.38
1612.00,66.53
1611.00,66.68
1610.00,66.85
1609.00,67.07
1608.00,67.35
1607.00,67.71
1606.00,68.14
1605.00,68.64
1604.00,69.21
1603.00,69.84
1602.00,70.52
1601.00,71.24
1600.00,72.00
1599.00,72.78
1598.00,73.57
1597.00,74.36
1596.00,75.16
1595.00,75.95
1594.00,76.69
1593.00,77.39
1592.00,78.07
1591.00,78.71
1590.00,79.29
1589.00,79.83
1588.00,80.33
1587.00,80.77
1586.00,81.12
1585.00,81.42
1584.00,81.68
1583.00,81.87
1582.00,81.98
1581.00,82.03
1580.00,82.08
1579.00,82.11
1578.00,82.02
1577.00,81.75
1576.00,81.34
1575.00,80.92
1574.00,80.56
1573.00,80.27
1572.00,79.99
1571.00,79.60
1570.00,79.03
1569.00,78.40
1568.00,77.85
1567.00,77.35
1566.00,76.77
1565.00,76.09
1564.00,75.41
1563.00,74.84
1562.00,74.33
1561.00,73.71
1560.00,72.58
1559.00,70.83
1558.00,69.22
1557.00,68.23
1556.00,67.50
1555.00,66.69
1554.00,65.74
1553.00,64.80
1552.00,63.94
1551.00,63.07
1550.00,62.11
1549.00,61.15
1548.00,60.33
1547.00,59.62
1546.00,58.90
1545.00,58.14
1544.00,57.44
1543.00,56.89
1542.00,56.42
1541.00,55.93
1540.00,55.48
1539.00,55.25
1538.00,55.30
1537.00,55.56
1536.00,55.96
1535.00,56.46
1534.00,57.06
1533.00,57.71
1532.00,58.34
1531.00,58.96
1530.00,59.56
1529.00,60.10
1528.00,60.56
1527.00,60.88
1526.00,61.06
1525.00,61.09
1524.00,60.99
1523.00,60.67
1522.00,60.00
1521.00,59.05
1520.00,58.19
1519.00,57.52
1518.00,56.87
1517.00,56.15
1516.00,55.50
1515.00,55.09
1514.00,54.88
1513.00,54.78
1512.00,54.77
1511.00,54.86
1510.00,55.06
1509.00,55.35
1508.00,55.74
1507.00,56.24
1506.00,56.78
1505.00,57.27
1504.00,57.76
1503.00,58.26
1502.00,58.77
1501.00,59.27
1500.00,59.74
1499.00,60.16
1498.00,60.53
1497.00,60.84
1496.00,61.07
1495.00,61.26
1494.00,61.44
1493.00,61.61
1492.00,61.75
1491.00,61.85
1490.00,61.92
1489.00,62.02
1488.00,62.15
1487.00,62.31
1486.00,62.49
1485.00,62.70
1484.00,62.91
1483.00,63.15
1482.00,63.41
1481.00,63.70
1480.00,64.01
1479.00,64.32
1478.00,64.66
1477.00,65.02
1476.00,65.40
1475.00,65.78
1474.00,66.19
1473.00,66.64
1472.00,67.09
1471.00,67.48
1470.00,67.86
1469.00,68.24
1468.00,68.63
1467.00,69.04
1466.00,69.47
1465.00,69.92
1464.00,70.35
1463.00,70.73
1462.00,71.08
1461.00,71.44
1460.00,71.79
1459.00,72.16
1458.00,72.58
1457.00,73.04
1456.00,73.43
1455.00,73.71
1454.00,73.99
1453.00,74.29
1452.00,74.59
1451.00,74.87
1450.00,75.15
1449.00,75.45
1448.00,75.75
1447.00,76.03
1446.00,76.31
1445.00,76.58
1444.00,76.83
1443.00,77.08
1442.00,77.34
1441.00,77.60
1440.00,77.85
1439.00,78.09
1438.00,78.35
1437.00,78.63
1436.00,78.90
1435.00,79.10
1434.00,79.30
1433.00,79.52
1432.00,79.74
1431.00,79.97
1430.00,80.23
1429.00,80.53
1428.00,80.80
1427.00,81.02
1426.00,81.21
1425.00,81.38
1424.00,81.49
1423.00,81.52
1422.00,81.47
1421.00,81.26
1420.00,80.73
1419.00,79.81
1418.00,78.63
1417.00,77.31
1416.00,75.84
1415.00,74.18
1414.00,72.38
1413.00,70.50
1412.00,68.59
1411.00,66.76
1410.00,65.15
1409.00,63.79
1408.00,62.69
1407.00,61.87
1406.00,61.27
1405.00,60.83
1404.00,60.49
1403.00,60.24
1402.00,60.06
1401.00,59.84
1400.00,59.54
1399.00,59.24
1398.00,59.03
1397.00,58.92
1396.00,58.93
1395.00,59.10
1394.00,59.43
1393.00,59.87
1392.00,60.38
1391.00,60.98
1390.00,61.67
1389.00,62.39
1388.00,63.13
1387.00,63.89
1386.00,64.62
1385.00,65.27
1384.00,65.86
1383.00,66.43
1382.00,66.96
1381.00,67.44
1380.00,67.85
1379.00,68.23
1378.00,68.57
1377.00,68.87
1376.00,69.13
1375.00,69.37
1374.00,69.59
1373.00,69.77
1372.00,69.92
1371.00,70.08
1370.00,70.22
1369.00,70.35
1368.00,70.45
1367.00,70.55
1366.00,70.65
1365.00,70.72
1364.00,70.76
1363.00,70.81
1362.00,70.86
1361.00,70.91
1360.00,70.97
1359.00,71.06
1358.00,71.16
1357.00,71.26
1356.00,71.35
1355.00,71.46
1354.00,71.57
1353.00,71.68
1352.00,71.78
1351.00,71.90
1350.00,72.03
1349.00,72.16
1348.00,72.30
1347.00,72.45
1346.00,72.62
1345.00,72.78
1344.00,72.92
1343.00,73.05
1342.00,73.14
1341.00,73.18
1340.00,73.16
1339.00,73.10
1338.00,72.97
1337.00,72.79
1336.00,72.53
1335.00,72.19
1334.00,71.78
1333.00,71.28
1332.00,70.69
1331.00,70.03
1330.00,69.33
1329.00,68.57
1328.00,67.76
1327.00,66.96
1326.00,66.18
1325.00,65.44
1324.00,64.74
1323.00,64.11
1322.00,63.56
1321.00,63.05
1320.00,62.58
1319.00,62.18
1318.00,61.84
1317.00,61.55
1316.00,61.27
1315.00,61.01
1314.00,60.76
1313.00,60.51
1312.00,60.27
1311.00,60.06
1310.00,59.89
1309.00,59.76
1308.00,59.66
1307.00,59.62
1306.00,59.65
1305.00,59.76
1304.00,59.92
1303.00,60.17
1302.00,60.49
1301.00,60.87
1300.00,61.28
1299.00,61.73
1298.00,62.23
1297.00,62.74
1296.00,63.26
1295.00,63.79
1294.00,64.33
1293.00,64.86
1292.00,65.37
1291.00,65.88
1290.00,66.37
1289.00,66.82
1288.00,67.22
1287.00,67.57
1286.00,67.89
1285.00,68.15
1284.00,68.34
1283.00,68.47
1282.00,68.55
1281.00,68.58
1280.00,68.55
1279.00,68.50
1278.00,68.44
1277.00,68.35
1276.00,68.24
1275.00,68.11
1274.00,67.99
1273.00,67.87
1272.00,67.75
1271.00,67.64
1270.00,67.53
1269.00,67.41
1268.00,67.27
1267.00,67.14
1266.00,67.03
1265.00,66.91
1264.00,66.80
1263.00,66.71
1262.00,66.65
1261.00,66.60
1260.00,66.56
1259.00,66.54
1258.00,66.52
1257.00,66.50
1256.00,66.49
1255.00,66.49
1254.00,66.51
1253.00,66.52
1252.00,66.51
1251.00,66.53
1250.00,66.57
1249.00,66.63
1248.00,66.70
1247.00,66.79
1246.00,66.89
1245.00,66.98
1244.00,67.06
1243.00,67.13
1242.00,67.20
1241.00,67.26
1240.00,67.28
1239.00,67.31
1238.00,67.33
1237.00,67.34
1236.00,67.33
1235.00,67.32
1234.00,67.32
1233.00,67.32
1232.00,67.34
1231.00,67.38
1230.00,67.45
1229.00,67.51
1228.00,67.57
1227.00,67.64
1226.00,67.74
1225.00,67.86
1224.00,67.98
1223.00,68.13
1222.00,68.30
1221.00,68.48
1220.00,68.67
1219.00,68.88
1218.00,69.12
1217.00,69.37
1216.00,69.60
1215.00,69.84
1214.00,70.08
1213.00,70.33
1212.00,70.58
1211.00,70.84
1210.00,71.10
1209.00,71.34
1208.00,71.57
1207.00,71.79
1206.00,72.03
1205.00,72.26
1204.00,72.48
1203.00,72.67
1202.00,72.84
1201.00,72.99
1200.00,73.10
1199.00,73.20
1198.00,73.31
1197.00,73.39
1196.00,73.44
1195.00,73.49
1194.00,73.54
1193.00,73.58
1192.00,73.60
1191.00,73.63
1190.00,73.66
1189.00,73.69
1188.00,73.69
1187.00,73.69
1186.00,73.69
1185.00,73.67
1184.00,73.64
1183.00,73.62
1182.00,73.62
1181.00,73.64
1180.00,73.67
1179.00,73.73
1178.00,73.84
1177.00,73.96
1176.00,74.07
1175.00,74.18
1174.00,74.28
1173.00,74.38
1172.00,74.49
1171.00,74.61
1170.00,74.76
1169.00,74.90
1168.00,75.02
1167.00,75.13
1166.00,75.23
1165.00,75.33
1164.00,75.42
1163.00,75.52
1162.00,75.63
1161.00,75.74
1160.00,75.82
1159.00,75.89
1158.00,75.98
1157.00,76.05
1156.00,76.11
1155.00,76.18
1154.00,76.26
1153.00,76.33
1152.00,76.39
1151.00,76.44
1150.00,76.50
1149.00,76.54
1148.00,76.56
1147.00,76.60
1146.00,76.67
1145.00,76.73
1144.00,76.75
1143.00,76.73
1142.00,76.69
1141.00,76.60
1140.00,76.46
1139.00,76.26
1138.00,76.00
1137.00,75.67
1136.00,75.26
1135.00,74.80
1134.00,74.34
1133.00,73.89
1132.00,73.47
1131.00,73.13
1130.00,72.85
1129.00,72.61
1128.00,72.40
1127.00,72.20
1126.00,72.01
1125.00,71.80
1124.00,71.57
1123.00,71.33
1122.00,71.11
1121.00,70.86
1120.00,70.57
1119.00,70.27
1118.00,69.98
1117.00,69.67
1116.00,69.35
1115.00,69.03
1114.00,68.69
1113.00,68.31
1112.00,67.92
1111.00,67.59
1110.00,67.41
1109.00,67.40
1108.00,67.54
1107.00,67.84
1106.00,68.25
1105.00,68.73
1104.00,69.23
1103.00,69.73
1102.00,70.22
1101.00,70.68
1100.00,71.09
1099.00,71.48
1098.00,71.82
1097.00,72.11
1096.00,72.37
1095.00,72.66
1094.00,72.96
1093.00,73.24
1092.00,73.48
1091.00,73.70
1090.00,73.92
1089.00,74.13
1088.00,74.29
1087.00,74.44
1086.00,74.59
1085.00,74.70
1084.00,74.80
1083.00,74.90
1082.00,75.02
1081.00,75.12
1080.00,75.20
1079.00,75.30
1078.00,75.43
1077.00,75.57
1076.00,75.71
1075.00,75.87
1074.00,76.04
1073.00,76.21
1072.00,76.35
1071.00,76.49
1070.00,76.64
1069.00,76.79
1068.00,76.93
1067.00,77.08
1066.00,77.24
1065.00,77.39
1064.00,77.51
1063.00,77.62
1062.00,77.73
1061.00,77.82
1060.00,77.92
1059.00,78.03
1058.00,78.16
1057.00,78.26
1056.00,78.34
1055.00,78.42
1054.00,78.55
1053.00,78.68
1052.00,78.81
1051.00,78.94
1050.00,79.05
1049.00,79.14
1048.00,79.19
1047.00,79.25
1046.00,79.33
1045.00,79.43
1044.00,79.52
1043.00,79.62
1042.00,79.70
1041.00,79.77
1040.00,79.82
1039.00,79.87
1038.00,79.95
1037.00,80.02
1036.00,80.07
1035.00,80.10
1034.00,80.11
1033.00,80.10
1032.00,80.06
1031.00,80.00
1030.00,79.91
1029.00,79.77
1028.00,79.54
1027.00,79.22
1026.00,78.79
1025.00,78.19
1024.00,77.38
1023.00,76.39
1022.00,75.28
1021.00,74.13
1020.00,73.13
1019.00,72.45
1018.00,72.23
1017.00,72.48
1016.00,73.09
1015.00,73.93
1014.00,74.86
1013.00,75.73
1012.00,76.48
1011.00,77.11
1010.00,77.64
1009.00,78.09
1008.00,78.48
1007.00,78.83
1006.00,79.13
1005.00,79.35
1004.00,79.51
1003.00,79.65
1002.00,79.80
1001.00,79.95
1000.00,80.06
999.00,80.15
998.00,80.23
997.00,80.28
996.00,80.31
995.00,80.35
994.00,80.41
993.00,80.46
992.00,80.48
991.00,80.49
990.00,80.48
989.00,80.44
988.00,80.35
987.00,80.22
986.00,80.06
985.00,79.88
984.00,79.67
983.00,79.45
982.00,79.27
981.00,79.13
980.00,79.07
979.00,79.09
978.00,79.17
977.00,79.29
976.00,79.42
975.00,79.56
974.00,79.70
973.00,79.81
972.00,79.88
971.00,79.93
970.00,79.96
969.00,79.99
968.00,79.99
967.00,80.00
966.00,80.02
965.00,80.05
964.00,80.11
963.00,80.20
962.00,80.31
961.00,80.40
960.00,80.48
959.00,80.55
958.00,80.63
957.00,80.72
956.00,80.81
955.00,80.90
954.00,81.00
953.00,81.10
952.00,81.19
951.00,81.28
950.00,81.37
949.00,81.43
948.00,81.47
947.00,81.50
946.00,81.51
945.00,81.51
944.00,81.50
943.00,81.50
942.00,81.55
941.00,81.62
940.00,81.73
939.00,81.85
938.00,81.99
937.00,82.12
936.00,82.24
935.00,82.35
934.00,82.48
933.00,82.60
932.00,82.69
931.00,82.76
930.00,82.84
929.00,82.90
928.00,82.94
927.00,82.98
926.00,83.01
925.00,83.02
924.00,83.00
923.00,82.98
922.00,82.95
921.00,82.90
920.00,82.81
919.00,82.73
918.00,82.66
917.00,82.58
916.00,82.45
915.00,82.30
914.00,82.13
913.00,81.95
912.00,81.75
911.00,81.52
910.00,81.26
909.00,80.98
908.00,80.67
907.00,80.32
906.00,79.93
905.00,79.46
904.00,78.87
903.00,78.16
902.00,77.35
901.00,76.43
900.00,75.44
899.00,74.43
898.00,73.47
897.00,72.62
896.00,71.93
895.00,71.46
894.00,71.20
893.00,71.13
892.00,71.22
891.00,71.45
890.00,71.80
889.00,72.23
888.00,72.68
887.00,73.16
886.00,73.66
885.00,74.18
884.00,74.71
883.00,75.27
882.00,75.85
881.00,76.40
880.00,76.90
879.00,77.34
878.00,77.69
877.00,77.91
876.00,77.98
875.00,77.91
874.00,77.65
873.00,77.17
872.00,76.46
871.00,75.54
870.00,74.41
869.00,73.04
868.00,71.40
867.00,69.60
866.00,67.82
865.00,66.33
864.00,65.46
863.00,65.47
862.00,66.35
861.00,67.80
860.00,69.44
859.00,70.97
858.00,72.25
857.00,73.23
856.00,73.94
855.00,74.45
854.00,74.85
853.00,75.14
852.00,75.34
851.00,75.47
850.00,75.52
849.00,75.48
848.00,75.38
847.00,75.27
846.00,75.15
845.00,75.00
844.00,74.75
843.00,74.43
842.00,74.05
841.00,73.63
840.00,73.15
839.00,72.62
838.00,72.04
837.00,71.39
836.00,70.64
835.00,69.81
834.00,68.90
833.00,67.85
832.00,66.64
831.00,65.27
830.00,63.72
829.00,61.92
828.00,59.86
827.00,57.64
826.00,55.42
825.00,53.38
824.00,51.69
823.00,50.52
822.00,49.96
821.00,49.94
820.00,50.35
819.00,51.12
818.00,52.15
817.00,53.31
816.00,54.52
815.00,55.77
814.00,57.04
813.00,58.29
812.00,59.47
811.00,60.60
810.00,61.71
809.00,62.77
808.00,63.76
807.00,64.68
806.00,65.56
805.00,66.35
804.00,67.07
803.00,67.72
802.00,68.33
801.00,68.86
800.00,69.29
799.00,69.65
798.00,69.94
797.00,70.14
796.00,70.25
795.00,70.29
794.00,70.27
793.00,70.14
792.00,69.92
791.00,69.68
790.00,69.50
789.00,69.42
788.00,69.41
787.00,69.50
786.00,69.67
785.00,69.89
784.00,70.14
783.00,70.46
782.00,70.86
781.00,71.31
780.00,71.78
779.00,72.28
778.00,72.78
777.00,73.26
776.00,73.69
775.00,74.08
774.00,74.45
773.00,74.77
772.00,75.04
771.00,75.30
770.00,75.56
769.00,75.82
768.00,76.02
767.00,76.21
766.00,76.39
765.00,76.57
764.00,76.73
763.00,76.87
762.00,77.02
761.00,77.15
760.00,77.25
759.00,77.33
758.00,77.38
757.00,77.41
756.00,77.42
755.00,77.46
754.00,77.53
753.00,77.60
752.00,77.66
751.00,77.73
750.00,77.80
749.00,77.81
748.00,77.72
747.00,77.56
746.00,77.38
745.00,77.20
744.00,77.04
743.00,76.89
742.00,76.70
741.00,76.37
740.00,75.89
739.00,75.28
738.00,74.54
737.00,73.63
736.00,72.56
735.00,71.42
734.00,70.28
733.00,69.12
732.00,67.96
731.00,66.85
730.00,65.84
729.00,64.90
728.00,64.06
727.00,63.38
726.00,62.89
725.00,62.55
724.00,62.33
723.00,62.21
722.00,62.20
721.00,62.24
720.00,62.30
719.00,62.42
718.00,62.59
717.00,62.79
716.00,62.98
715.00,63.18
714.00,63.38
713.00,63.55
712.00,63.72
711.00,63.95
710.00,64.23
709.00,64.51
708.00,64.74
707.00,64.96
706.00,65.19
705.00,65.38
704.00,65.49
703.00,65.56
702.00,65.61
701.00,65.61
700.00,65.56
699.00,65.48
698.00,65.38
697.00,65.23
696.00,65.04
695.00,64.89
694.00,64.78
693.00,64.66
692.00,64.48
691.00,64.30
690.00,64.12
689.00,63.89
688.00,63.57
687.00,63.24
686.00,62.95
685.00,62.64
684.00,62.26
683.00,61.88
682.00,61.53
681.00,61.18
680.00,60.83
679.00,60.54
678.00,60.30
677.00,60.01
676.00,59.59
675.00,59.13
674.00,58.71
673.00,58.36
672.00,58.11
671.00,57.96
670.00,57.84
669.00,57.51
668.00,56.77
667.00,56.13
666.00,55.94
665.00,55.89
664.00,55.77
663.00,55.60
662.00,55.42
661.00,55.23
660.00,55.02
659.00,54.88
658.00,54.83
657.00,54.78
656.00,54.69
655.00,54.64
654.00,54.71
653.00,54.79
652.00,54.83
651.00,54.87
650.00,54.94
649.00,54.95
648.00,54.87
647.00,54.81
646.00,54.85
645.00,54.91
644.00,54.97
643.00,55.07
642.00,55.25
641.00,55.37
640.00,55.40
639.00,55.47
638.00,55.64
637.00,55.81
636.00,55.90
635.00,56.01
634.00,56.20
633.00,56.33
632.00,56.36
631.00,56.39
630.00,56.48
629.00,56.47
628.00,56.29
627.00,56.12
626.00,56.13
625.00,56.24
624.00,56.32
623.00,56.42
622.00,56.61
621.00,56.79
620.00,56.90
619.00,57.03
618.00,57.18
617.00,57.16
616.00,57.04
615.00,57.17
614.00,57.64
613.00,58.07
612.00,58.19
611.00,58.12
610.00,58.07
609.00,58.03
608.00,57.98
607.00,58.10
606.00,58.39
605.00,58.59
604.00,58.37
603.00,57.63
602.00,56.53
601.00,55.61
600.00,55.56
599.00,56.72
598.00,58.45
597.00,59.68
596.00,60.04
595.00,60.00
594.00,59.99
593.00,59.90
592.00,59.68
591.00,59.65
590.00,59.88
589.00,60.04
588.00,60.05
587.00,60.36
586.00,61.13
585.00,61.76
584.00,61.80
583.00,61.57
582.00,61.59
581.00,61.78
580.00,61.92
579.00,62.11
578.00,62.32
577.00,62.13
576.00,61.56
575.00,61.32
574.00,61.67
573.00,61.93
572.00,61.69
571.00,61.37
570.00,61.33
569.00,61.33
568.00,61.33
567.00,61.82
566.00,62.66
565.00,63.03
564.00,62.68
563.00,62.38
562.00,62.59
561.00,62.85
560.00,62.81
559.00,62.84
558.00,63.11
557.00,63.17
556.00,62.78
555.00,62.44
554.00,62.49
553.00,62.66
552.00,62.79
551.00,63.13
550.00,63.51
