Created as New Dataset,Forensic, 51
cm-1,%T
4000.00,93.36
3999.00,93.35
3998.00,93.34
3997.00,93.36
3996.00,93.38
3995.00,93.39
3994.00,93.39
3993.00,93.37
3992.00,93.34
3991.00,93.32
3990.00,93.31
3989.00,93.31
3988.00,93.33
3987.00,93.35
3986.00,93.35
3985.00,93.35
3984.00,93.35
3983.00,93.34
3982.00,93.33
3981.00,93.33
3980.00,93.32
3979.00,93.31
3978.00,93.31
3977.00,93.32
3976.00,93.34
3975.00,93.36
3974.00,93.37
3973.00,93.37
3972.00,93.36
3971.00,93.35
3970.00,93.35
3969.00,93.35
3968.00,93.36
3967.00,93.37
3966.00,93.37
3965.00,93.37
3964.00,93.37
3963.00,93.37
3962.00,93.37
3961.00,93.37
3960.00,93.37
3959.00,93.36
3958.00,93.36
3957.00,93.36
3956.00,93.37
3955.00,93.37
3954.00,93.38
3953.00,93.39
3952.00,93.41
3951.00,93.43
3950.00,93.44
3949.00,93.44
3948.00,93.43
3947.00,93.43
3946.00,93.43
3945.00,93.44
3944.00,93.45
3943.00,93.45
3942.00,93.45
3941.00,93.47
3940.00,93.48
3939.00,93.48
3938.00,93.47
3937.00,93.44
3936.00,93.42
3935.00,93.41
3934.00,93.41
3933.00,93.42
3932.00,93.42
3931.00,93.42
3930.00,93.41
3929.00,93.40
3928.00,93.39
3927.00,93.38
3926.00,93.38
3925.00,93.37
3924.00,93.38
3923.00,93.39
3922.00,93.40
3921.00,93.41
3920.00,93.42
3919.00,93.44
3918.00,93.45
3917.00,93.46
3916.00,93.46
3915.00,93.47
3914.00,93.47
3913.00,93.47
3912.00,93.48
3911.00,93.49
3910.00,93.51
3909.00,93.53
3908.00,93.53
3907.00,93.52
3906.00,93.51
3905.00,93.51
3904.00,93.53
3903.00,93.57
3902.00,93.61
3901.00,93.61
3900.00,93.59
3899.00,93.57
3898.00,93.55
3897.00,93.55
3896.00,93.54
3895.00,93.53
3894.00,93.52
3893.00,93.53
3892.00,93.52
3891.00,93.52
3890.00,93.52
3889.00,93.53
3888.00,93.54
3887.00,93.53
3886.00,93.52
3885.00,93.51
3884.00,93.52
3883.00,93.53
3882.00,93.54
3881.00,93.53
3880.00,93.52
3879.00,93.52
3878.00,93.51
3877.00,93.51
3876.00,93.49
3875.00,93.46
3874.00,93.44
3873.00,93.44
3872.00,93.44
3871.00,93.45
3870.00,93.46
3869.00,93.50
3868.00,93.55
3867.00,93.58
3866.00,93.57
3865.00,93.55
3864.00,93.54
3863.00,93.55
3862.00,93.56
3861.00,93.57
3860.00,93.57
3859.00,93.57
3858.00,93.57
3857.00,93.58
3856.00,93.59
3855.00,93.59
3854.00,93.57
3853.00,93.53
3852.00,93.52
3851.00,93.52
3850.00,93.52
3849.00,93.51
3848.00,93.50
3847.00,93.50
3846.00,93.51
3845.00,93.51
3844.00,93.52
3843.00,93.52
3842.00,93.53
3841.00,93.53
3840.00,93.54
3839.00,93.54
3838.00,93.54
3837.00,93.54
3836.00,93.54
3835.00,93.54
3834.00,93.54
3833.00,93.53
3832.00,93.53
3831.00,93.52
3830.00,93.53
3829.00,93.53
3828.00,93.53
3827.00,93.51
3826.00,93.49
3825.00,93.49
3824.00,93.50
3823.00,93.51
3822.00,93.51
3821.00,93.51
3820.00,93.52
3819.00,93.53
3818.00,93.50
3817.00,93.45
3816.00,93.41
3815.00,93.42
3814.00,93.45
3813.00,93.46
3812.00,93.45
3811.00,93.43
3810.00,93.42
3809.00,93.41
3808.00,93.39
3807.00,93.37
3806.00,93.38
3805.00,93.41
3804.00,93.43
3803.00,93.42
3802.00,93.40
3801.00,93.40
3800.00,93.42
3799.00,93.44
3798.00,93.44
3797.00,93.43
3796.00,93.43
3795.00,93.46
3794.00,93.49
3793.00,93.51
3792.00,93.51
3791.00,93.49
3790.00,93.48
3789.00,93.46
3788.00,93.45
3787.00,93.45
3786.00,93.44
3785.00,93.45
3784.00,93.45
3783.00,93.46
3782.00,93.46
3781.00,93.44
3780.00,93.43
3779.00,93.43
3778.00,93.44
3777.00,93.45
3776.00,93.46
3775.00,93.45
3774.00,93.46
3773.00,93.47
3772.00,93.47
3771.00,93.45
3770.00,93.43
3769.00,93.40
3768.00,93.38
3767.00,93.36
3766.00,93.33
3765.00,93.31
3764.00,93.30
3763.00,93.31
3762.00,93.32
3761.00,93.33
3760.00,93.35
3759.00,93.37
3758.00,93.37
3757.00,93.35
3756.00,93.33
3755.00,93.31
3754.00,93.31
3753.00,93.32
3752.00,93.34
3751.00,93.36
3750.00,93.35
3749.00,93.33
3748.00,93.31
3747.00,93.29
3746.00,93.27
3745.00,93.25
3744.00,93.26
3743.00,93.30
3742.00,93.32
3741.00,93.31
3740.00,93.29
3739.00,93.29
3738.00,93.31
3737.00,93.32
3736.00,93.31
3735.00,93.31
3734.00,93.32
3733.00,93.34
3732.00,93.34
3731.00,93.35
3730.00,93.36
3729.00,93.36
3728.00,93.36
3727.00,93.36
3726.00,93.35
3725.00,93.34
3724.00,93.31
3723.00,93.29
3722.00,93.27
3721.00,93.26
3720.00,93.26
3719.00,93.26
3718.00,93.25
3717.00,93.24
3716.00,93.24
3715.00,93.25
3714.00,93.24
3713.00,93.23
3712.00,93.21
3711.00,93.22
3710.00,93.25
3709.00,93.27
3708.00,93.28
3707.00,93.26
3706.00,93.24
3705.00,93.22
3704.00,93.22
3703.00,93.21
3702.00,93.21
3701.00,93.21
3700.00,93.21
3699.00,93.20
3698.00,93.19
3697.00,93.17
3696.00,93.14
3695.00,93.11
3694.00,93.09
3693.00,93.09
3692.00,93.11
3691.00,93.13
3690.00,93.15
3689.00,93.14
3688.00,93.13
3687.00,93.13
3686.00,93.13
3685.00,93.13
3684.00,93.12
3683.00,93.11
3682.00,93.10
3681.00,93.09
3680.00,93.08
3679.00,93.06
3678.00,93.05
3677.00,93.02
3676.00,93.00
3675.00,93.00
3674.00,93.03
3673.00,93.05
3672.00,93.04
3671.00,92.99
3670.00,92.96
3669.00,92.93
3668.00,92.91
3667.00,92.87
3666.00,92.81
3665.00,92.76
3664.00,92.73
3663.00,92.71
3662.00,92.69
3661.00,92.68
3660.00,92.65
3659.00,92.62
3658.00,92.58
3657.00,92.54
3656.00,92.51
3655.00,92.49
3654.00,92.48
3653.00,92.46
3652.00,92.43
3651.00,92.41
3650.00,92.38
3649.00,92.34
3648.00,92.29
3647.00,92.25
3646.00,92.21
3645.00,92.17
3644.00,92.11
3643.00,92.06
3642.00,92.03
3641.00,92.02
3640.00,92.01
3639.00,91.99
3638.00,91.98
3637.00,91.96
3636.00,91.96
3635.00,91.96
3634.00,91.97
3633.00,91.99
3632.00,92.00
3631.00,91.99
3630.00,91.95
3629.00,91.88
3628.00,91.84
3627.00,91.83
3626.00,91.81
3625.00,91.79
3624.00,91.77
3623.00,91.78
3622.00,91.80
3621.00,91.82
3620.00,91.83
3619.00,91.82
3618.00,91.81
3617.00,91.79
3616.00,91.76
3615.00,91.72
3614.00,91.69
3613.00,91.68
3612.00,91.68
3611.00,91.68
3610.00,91.67
3609.00,91.67
3608.00,91.68
3607.00,91.71
3606.00,91.73
3605.00,91.73
3604.00,91.70
3603.00,91.67
3602.00,91.64
3601.00,91.62
3600.00,91.60
3599.00,91.59
3598.00,91.60
3597.00,91.60
3596.00,91.61
3595.00,91.61
3594.00,91.60
3593.00,91.58
3592.00,91.57
3591.00,91.56
3590.00,91.55
3589.00,91.56
3588.00,91.56
3587.00,91.56
3586.00,91.55
3585.00,91.52
3584.00,91.48
3583.00,91.44
3582.00,91.42
3581.00,91.42
3580.00,91.43
3579.00,91.44
3578.00,91.45
3577.00,91.45
3576.00,91.43
3575.00,91.39
3574.00,91.35
3573.00,91.31
3572.00,91.28
3571.00,91.27
3570.00,91.27
3569.00,91.26
3568.00,91.25
3567.00,91.23
3566.00,91.24
3565.00,91.25
3564.00,91.26
3563.00,91.26
3562.00,91.23
3561.00,91.19
3560.00,91.14
3559.00,91.11
3558.00,91.09
3557.00,91.09
3556.00,91.08
3555.00,91.08
3554.00,91.09
3553.00,91.09
3552.00,91.10
3551.00,91.10
3550.00,91.08
3549.00,91.04
3548.00,90.99
3547.00,90.94
3546.00,90.89
3545.00,90.85
3544.00,90.82
3543.00,90.80
3542.00,90.79
3541.00,90.77
3540.00,90.76
3539.00,90.73
3538.00,90.71
3537.00,90.69
3536.00,90.69
3535.00,90.69
3534.00,90.69
3533.00,90.68
3532.00,90.66
3531.00,90.64
3530.00,90.63
3529.00,90.61
3528.00,90.60
3527.00,90.59
3526.00,90.57
3525.00,90.56
3524.00,90.54
3523.00,90.52
3522.00,90.50
3521.00,90.49
3520.00,90.47
3519.00,90.45
3518.00,90.43
3517.00,90.42
3516.00,90.42
3515.00,90.42
3514.00,90.43
3513.00,90.42
3512.00,90.40
3511.00,90.37
3510.00,90.33
3509.00,90.30
3508.00,90.28
3507.00,90.26
3506.00,90.24
3505.00,90.22
3504.00,90.21
3503.00,90.20
3502.00,90.19
3501.00,90.19
3500.00,90.19
3499.00,90.18
3498.00,90.16
3497.00,90.14
3496.00,90.13
3495.00,90.13
3494.00,90.13
3493.00,90.12
3492.00,90.11
3491.00,90.10
3490.00,90.08
3489.00,90.05
3488.00,90.04
3487.00,90.02
3486.00,90.02
3485.00,90.01
3484.00,90.01
3483.00,90.01
3482.00,90.01
3481.00,90.01
3480.00,90.01
3479.00,90.02
3478.00,90.02
3477.00,90.01
3476.00,90.00
3475.00,89.99
3474.00,89.98
3473.00,89.98
3472.00,89.97
3471.00,89.95
3470.00,89.93
3469.00,89.92
3468.00,89.91
3467.00,89.91
3466.00,89.91
3465.00,89.92
3464.00,89.93
3463.00,89.93
3462.00,89.92
3461.00,89.90
3460.00,89.88
3459.00,89.87
3458.00,89.87
3457.00,89.84
3456.00,89.79
3455.00,89.74
3454.00,89.71
3453.00,89.69
3452.00,89.67
3451.00,89.67
3450.00,89.67
3449.00,89.66
3448.00,89.64
3447.00,89.60
3446.00,89.56
3445.00,89.54
3444.00,89.53
3443.00,89.53
3442.00,89.53
3441.00,89.53
3440.00,89.51
3439.00,89.49
3438.00,89.46
3437.00,89.41
3436.00,89.35
3435.00,89.29
3434.00,89.25
3433.00,89.23
3432.00,89.24
3431.00,89.26
3430.00,89.26
3429.00,89.24
3428.00,89.20
3427.00,89.18
3426.00,89.16
3425.00,89.16
3424.00,89.15
3423.00,89.13
3422.00,89.08
3421.00,89.02
3420.00,88.98
3419.00,88.97
3418.00,88.99
3417.00,89.01
3416.00,89.02
3415.00,89.01
3414.00,88.99
3413.00,88.97
3412.00,88.94
3411.00,88.91
3410.00,88.89
3409.00,88.88
3408.00,88.88
3407.00,88.88
3406.00,88.87
3405.00,88.84
3404.00,88.80
3403.00,88.77
3402.00,88.76
3401.00,88.74
3400.00,88.72
3399.00,88.69
3398.00,88.67
3397.00,88.65
3396.00,88.64
3395.00,88.61
3394.00,88.57
3393.00,88.53
3392.00,88.50
3391.00,88.48
3390.00,88.46
3389.00,88.45
3388.00,88.44
3387.00,88.42
3386.00,88.40
3385.00,88.38
3384.00,88.36
3383.00,88.35
3382.00,88.32
3381.00,88.29
3380.00,88.25
3379.00,88.20
3378.00,88.15
3377.00,88.10
3376.00,88.05
3375.00,87.99
3374.00,87.93
3373.00,87.87
3372.00,87.81
3371.00,87.76
3370.00,87.71
3369.00,87.67
3368.00,87.61
3367.00,87.54
3366.00,87.45
3365.00,87.36
3364.00,87.28
3363.00,87.20
3362.00,87.12
3361.00,87.03
3360.00,86.94
3359.00,86.84
3358.00,86.74
3357.00,86.65
3356.00,86.56
3355.00,86.48
3354.00,86.40
3353.00,86.31
3352.00,86.21
3351.00,86.10
3350.00,85.99
3349.00,85.89
3348.00,85.80
3347.00,85.68
3346.00,85.56
3345.00,85.43
3344.00,85.31
3343.00,85.21
3342.00,85.13
3341.00,85.05
3340.00,84.96
3339.00,84.87
3338.00,84.76
3337.00,84.65
3336.00,84.54
3335.00,84.44
3334.00,84.35
3333.00,84.25
3332.00,84.16
3331.00,84.08
3330.00,84.01
3329.00,83.95
3328.00,83.88
3327.00,83.80
3326.00,83.71
3325.00,83.61
3324.00,83.52
3323.00,83.44
3322.00,83.37
3321.00,83.32
3320.00,83.28
3319.00,83.24
3318.00,83.19
3317.00,83.13
3316.00,83.07
3315.00,83.01
3314.00,82.96
3313.00,82.94
3312.00,82.93
3311.00,82.92
3310.00,82.92
3309.00,82.90
3308.00,82.88
3307.00,82.87
3306.00,82.87
3305.00,82.88
3304.00,82.89
3303.00,82.91
3302.00,82.93
3301.00,82.94
3300.00,82.95
3299.00,82.96
3298.00,82.97
3297.00,82.97
3296.00,82.97
3295.00,82.97
3294.00,82.98
3293.00,83.00
3292.00,83.03
3291.00,83.06
3290.00,83.09
3289.00,83.12
3288.00,83.16
3287.00,83.20
3286.00,83.24
3285.00,83.27
3284.00,83.30
3283.00,83.33
3282.00,83.35
3281.00,83.36
3280.00,83.37
3279.00,83.39
3278.00,83.44
3277.00,83.49
3276.00,83.56
3275.00,83.62
3274.00,83.67
3273.00,83.72
3272.00,83.77
3271.00,83.82
3270.00,83.86
3269.00,83.90
3268.00,83.93
3267.00,83.97
3266.00,84.00
3265.00,84.04
3264.00,84.07
3263.00,84.12
3262.00,84.16
3261.00,84.21
3260.00,84.25
3259.00,84.29
3258.00,84.34
3257.00,84.39
3256.00,84.44
3255.00,84.48
3254.00,84.52
3253.00,84.55
3252.00,84.58
3251.00,84.64
3250.00,84.70
3249.00,84.77
3248.00,84.84
3247.00,84.90
3246.00,84.95
3245.00,85.01
3244.00,85.06
3243.00,85.12
3242.00,85.16
3241.00,85.20
3240.00,85.23
3239.00,85.27
3238.00,85.32
3237.00,85.38
3236.00,85.44
3235.00,85.49
3234.00,85.53
3233.00,85.57
3232.00,85.62
3231.00,85.68
3230.00,85.74
3229.00,85.79
3228.00,85.82
3227.00,85.83
3226.00,85.83
3225.00,85.84
3224.00,85.87
3223.00,85.91
3222.00,85.95
3221.00,85.98
3220.00,86.00
3219.00,86.03
3218.00,86.06
3217.00,86.10
3216.00,86.13
3215.00,86.16
3214.00,86.19
3213.00,86.23
3212.00,86.25
3211.00,86.28
3210.00,86.32
3209.00,86.36
3208.00,86.40
3207.00,86.43
3206.00,86.45
3205.00,86.46
3204.00,86.48
3203.00,86.50
3202.00,86.53
3201.00,86.56
3200.00,86.60
3199.00,86.65
3198.00,86.70
3197.00,86.76
3196.00,86.82
3195.00,86.86
3194.00,86.89
3193.00,86.92
3192.00,86.95
3191.00,86.99
3190.00,87.03
3189.00,87.06
3188.00,87.10
3187.00,87.13
3186.00,87.18
3185.00,87.23
3184.00,87.28
3183.00,87.32
3182.00,87.35
3181.00,87.39
3180.00,87.44
3179.00,87.48
3178.00,87.52
3177.00,87.54
3176.00,87.56
3175.00,87.59
3174.00,87.62
3173.00,87.66
3172.00,87.70
3171.00,87.74
3170.00,87.77
3169.00,87.79
3168.00,87.80
3167.00,87.81
3166.00,87.82
3165.00,87.83
3164.00,87.83
3163.00,87.84
3162.00,87.85
3161.00,87.85
3160.00,87.85
3159.00,87.85
3158.00,87.83
3157.00,87.81
3156.00,87.80
3155.00,87.79
3154.00,87.80
3153.00,87.81
3152.00,87.83
3151.00,87.83
3150.00,87.82
3149.00,87.81
3148.00,87.80
3147.00,87.80
3146.00,87.81
3145.00,87.83
3144.00,87.84
3143.00,87.87
3142.00,87.89
3141.00,87.93
3140.00,87.96
3139.00,88.00
3138.00,88.02
3137.00,88.04
3136.00,88.06
3135.00,88.10
3134.00,88.15
3133.00,88.20
3132.00,88.25
3131.00,88.28
3130.00,88.30
3129.00,88.31
3128.00,88.32
3127.00,88.34
3126.00,88.36
3125.00,88.39
3124.00,88.41
3123.00,88.42
3122.00,88.43
3121.00,88.44
3120.00,88.45
3119.00,88.46
3118.00,88.47
3117.00,88.48
3116.00,88.49
3115.00,88.50
3114.00,88.49
3113.00,88.47
3112.00,88.45
3111.00,88.44
3110.00,88.42
3109.00,88.41
3108.00,88.39
3107.00,88.37
3106.00,88.35
3105.00,88.34
3104.00,88.32
3103.00,88.31
3102.00,88.29
3101.00,88.28
3100.00,88.28
3099.00,88.28
3098.00,88.28
3097.00,88.25
3096.00,88.22
3095.00,88.18
3094.00,88.15
3093.00,88.12
3092.00,88.10
3091.00,88.09
3090.00,88.07
3089.00,88.05
3088.00,88.04
3087.00,88.04
3086.00,88.04
3085.00,88.04
3084.00,88.02
3083.00,87.99
3082.00,87.96
3081.00,87.94
3080.00,87.93
3079.00,87.93
3078.00,87.93
3077.00,87.92
3076.00,87.91
3075.00,87.90
3074.00,87.90
3073.00,87.89
3072.00,87.88
3071.00,87.88
3070.00,87.88
3069.00,87.88
3068.00,87.89
3067.00,87.91
3066.00,87.92
3065.00,87.93
3064.00,87.93
3063.00,87.92
3062.00,87.91
3061.00,87.92
3060.00,87.95
3059.00,88.00
3058.00,88.05
3057.00,88.11
3056.00,88.17
3055.00,88.22
3054.00,88.26
3053.00,88.31
3052.00,88.35
3051.00,88.38
3050.00,88.42
3049.00,88.45
3048.00,88.47
3047.00,88.49
3046.00,88.51
3045.00,88.53
3044.00,88.54
3043.00,88.55
3042.00,88.56
3041.00,88.58
3040.00,88.60
3039.00,88.63
3038.00,88.66
3037.00,88.69
3036.00,88.73
3035.00,88.76
3034.00,88.78
3033.00,88.79
3032.00,88.81
3031.00,88.84
3030.00,88.88
3029.00,88.92
3028.00,88.96
3027.00,88.99
3026.00,89.01
3025.00,89.03
3024.00,89.06
3023.00,89.09
3022.00,89.13
3021.00,89.16
3020.00,89.21
3019.00,89.27
3018.00,89.32
3017.00,89.35
3016.00,89.37
3015.00,89.38
3014.00,89.38
3013.00,89.39
3012.00,89.41
3011.00,89.45
3010.00,89.49
3009.00,89.51
3008.00,89.53
3007.00,89.56
3006.00,89.58
3005.00,89.62
3004.00,89.64
3003.00,89.66
3002.00,89.65
3001.00,89.65
3000.00,89.67
2999.00,89.71
2998.00,89.75
2997.00,89.78
2996.00,89.80
2995.00,89.80
2994.00,89.79
2993.00,89.78
2992.00,89.78
2991.00,89.80
2990.00,89.82
2989.00,89.85
2988.00,89.87
2987.00,89.88
2986.00,89.89
2985.00,89.89
2984.00,89.90
2983.00,89.91
2982.00,89.92
2981.00,89.93
2980.00,89.93
2979.00,89.93
2978.00,89.93
2977.00,89.93
2976.00,89.93
2975.00,89.92
2974.00,89.91
2973.00,89.90
2972.00,89.88
2971.00,89.88
2970.00,89.88
2969.00,89.88
2968.00,89.88
2967.00,89.88
2966.00,89.87
2965.00,89.87
2964.00,89.87
2963.00,89.87
2962.00,89.87
2961.00,89.86
2960.00,89.85
2959.00,89.84
2958.00,89.83
2957.00,89.84
2956.00,89.86
2955.00,89.88
2954.00,89.90
2953.00,89.91
2952.00,89.90
2951.00,89.88
2950.00,89.88
2949.00,89.89
2948.00,89.90
2947.00,89.91
2946.00,89.93
2945.00,89.94
2944.00,89.94
2943.00,89.95
2942.00,89.95
2941.00,89.96
2940.00,89.97
2939.00,89.97
2938.00,89.97
2937.00,89.96
2936.00,89.96
2935.00,89.96
2934.00,89.97
2933.00,89.98
2932.00,90.00
2931.00,90.04
2930.00,90.07
2929.00,90.11
2928.00,90.14
2927.00,90.16
2926.00,90.18
2925.00,90.19
2924.00,90.20
2923.00,90.22
2922.00,90.24
2921.00,90.27
2920.00,90.31
2919.00,90.35
2918.00,90.36
2917.00,90.37
2916.00,90.37
2915.00,90.38
2914.00,90.39
2913.00,90.40
2912.00,90.41
2911.00,90.43
2910.00,90.44
2909.00,90.46
2908.00,90.47
2907.00,90.49
2906.00,90.51
2905.00,90.52
2904.00,90.54
2903.00,90.56
2902.00,90.58
2901.00,90.60
2900.00,90.63
2899.00,90.65
2898.00,90.66
2897.00,90.68
2896.00,90.69
2895.00,90.70
2894.00,90.72
2893.00,90.73
2892.00,90.73
2891.00,90.73
2890.00,90.74
2889.00,90.74
2888.00,90.75
2887.00,90.76
2886.00,90.76
2885.00,90.75
2884.00,90.75
2883.00,90.75
2882.00,90.75
2881.00,90.77
2880.00,90.78
2879.00,90.79
2878.00,90.79
2877.00,90.79
2876.00,90.79
2875.00,90.79
2874.00,90.79
2873.00,90.78
2872.00,90.77
2871.00,90.76
2870.00,90.76
2869.00,90.77
2868.00,90.78
2867.00,90.78
2866.00,90.77
2865.00,90.75
2864.00,90.75
2863.00,90.77
2862.00,90.79
2861.00,90.80
2860.00,90.80
2859.00,90.80
2858.00,90.79
2857.00,90.78
2856.00,90.76
2855.00,90.76
2854.00,90.79
2853.00,90.83
2852.00,90.87
2851.00,90.90
2850.00,90.91
2849.00,90.93
2848.00,90.94
2847.00,90.97
2846.00,90.99
2845.00,91.02
2844.00,91.03
2843.00,91.04
2842.00,91.05
2841.00,91.05
2840.00,91.06
2839.00,91.07
2838.00,91.08
2837.00,91.10
2836.00,91.13
2835.00,91.15
2834.00,91.17
2833.00,91.19
2832.00,91.20
2831.00,91.19
2830.00,91.18
2829.00,91.18
2828.00,91.18
2827.00,91.20
2826.00,91.21
2825.00,91.23
2824.00,91.26
2823.00,91.27
2822.00,91.28
2821.00,91.29
2820.00,91.29
2819.00,91.29
2818.00,91.30
2817.00,91.32
2816.00,91.33
2815.00,91.33
2814.00,91.32
2813.00,91.31
2812.00,91.32
2811.00,91.32
2810.00,91.32
2809.00,91.33
2808.00,91.33
2807.00,91.34
2806.00,91.34
2805.00,91.35
2804.00,91.36
2803.00,91.36
2802.00,91.36
2801.00,91.36
2800.00,91.35
2799.00,91.35
2798.00,91.34
2797.00,91.34
2796.00,91.34
2795.00,91.34
2794.00,91.35
2793.00,91.35
2792.00,91.37
2791.00,91.38
2790.00,91.39
2789.00,91.40
2788.00,91.40
2787.00,91.40
2786.00,91.40
2785.00,91.41
2784.00,91.42
2783.00,91.43
2782.00,91.44
2781.00,91.44
2780.00,91.44
2779.00,91.45
2778.00,91.46
2777.00,91.47
2776.00,91.49
2775.00,91.51
2774.00,91.52
2773.00,91.53
2772.00,91.54
2771.00,91.56
2770.00,91.58
2769.00,91.60
2768.00,91.62
2767.00,91.65
2766.00,91.67
2765.00,91.68
2764.00,91.69
2763.00,91.70
2762.00,91.71
2761.00,91.72
2760.00,91.72
2759.00,91.72
2758.00,91.73
2757.00,91.74
2756.00,91.76
2755.00,91.78
2754.00,91.81
2753.00,91.83
2752.00,91.85
2751.00,91.86
2750.00,91.86
2749.00,91.87
2748.00,91.86
2747.00,91.86
2746.00,91.85
2745.00,91.85
2744.00,91.85
2743.00,91.84
2742.00,91.84
2741.00,91.84
2740.00,91.83
2739.00,91.84
2738.00,91.84
2737.00,91.85
2736.00,91.86
2735.00,91.86
2734.00,91.86
2733.00,91.86
2732.00,91.86
2731.00,91.86
2730.00,91.88
2729.00,91.89
2728.00,91.90
2727.00,91.91
2726.00,91.91
2725.00,91.91
2724.00,91.91
2723.00,91.92
2722.00,91.92
2721.00,91.93
2720.00,91.93
2719.00,91.93
2718.00,91.93
2717.00,91.92
2716.00,91.93
2715.00,91.94
2714.00,91.96
2713.00,91.98
2712.00,92.00
2711.00,92.03
2710.00,92.04
2709.00,92.05
2708.00,92.05
2707.00,92.05
2706.00,92.05
2705.00,92.06
2704.00,92.06
2703.00,92.07
2702.00,92.09
2701.00,92.10
2700.00,92.11
2699.00,92.11
2698.00,92.12
2697.00,92.11
2696.00,92.11
2695.00,92.11
2694.00,92.10
2693.00,92.11
2692.00,92.11
2691.00,92.10
2690.00,92.10
2689.00,92.09
2688.00,92.08
2687.00,92.08
2686.00,92.07
2685.00,92.07
2684.00,92.07
2683.00,92.07
2682.00,92.09
2681.00,92.10
2680.00,92.11
2679.00,92.10
2678.00,92.08
2677.00,92.07
2676.00,92.06
2675.00,92.05
2674.00,92.06
2673.00,92.07
2672.00,92.08
2671.00,92.08
2670.00,92.09
2669.00,92.09
2668.00,92.08
2667.00,92.07
2666.00,92.06
2665.00,92.05
2664.00,92.03
2663.00,92.00
2662.00,91.98
2661.00,91.97
2660.00,91.97
2659.00,91.97
2658.00,91.96
2657.00,91.96
2656.00,91.95
2655.00,91.95
2654.00,91.94
2653.00,91.93
2652.00,91.92
2651.00,91.91
2650.00,91.89
2649.00,91.86
2648.00,91.83
2647.00,91.83
2646.00,91.84
2645.00,91.85
2644.00,91.86
2643.00,91.85
2642.00,91.83
2641.00,91.82
2640.00,91.81
2639.00,91.80
2638.00,91.79
2637.00,91.77
2636.00,91.74
2635.00,91.71
2634.00,91.69
2633.00,91.68
2632.00,91.68
2631.00,91.68
2630.00,91.67
2629.00,91.67
2628.00,91.68
2627.00,91.68
2626.00,91.68
2625.00,91.67
2624.00,91.65
2623.00,91.63
2622.00,91.63
2621.00,91.63
2620.00,91.63
2619.00,91.63
2618.00,91.63
2617.00,91.62
2616.00,91.61
2615.00,91.60
2614.00,91.60
2613.00,91.61
2612.00,91.61
2611.00,91.61
2610.00,91.59
2609.00,91.57
2608.00,91.56
2607.00,91.55
2606.00,91.54
2605.00,91.52
2604.00,91.51
2603.00,91.52
2602.00,91.52
2601.00,91.51
2600.00,91.49
2599.00,91.46
2598.00,91.43
2597.00,91.40
2596.00,91.38
2595.00,91.38
2594.00,91.39
2593.00,91.40
2592.00,91.39
2591.00,91.36
2590.00,91.33
2589.00,91.30
2588.00,91.30
2587.00,91.32
2586.00,91.33
2585.00,91.33
2584.00,91.31
2583.00,91.28
2582.00,91.26
2581.00,91.26
2580.00,91.27
2579.00,91.29
2578.00,91.30
2577.00,91.31
2576.00,91.31
2575.00,91.31
2574.00,91.32
2573.00,91.33
2572.00,91.34
2571.00,91.35
2570.00,91.34
2569.00,91.34
2568.00,91.33
2567.00,91.32
2566.00,91.32
2565.00,91.32
2564.00,91.33
2563.00,91.34
2562.00,91.34
2561.00,91.33
2560.00,91.34
2559.00,91.34
2558.00,91.34
2557.00,91.33
2556.00,91.31
2555.00,91.32
2554.00,91.32
2553.00,91.33
2552.00,91.32
2551.00,91.32
2550.00,91.32
2549.00,91.32
2548.00,91.32
2547.00,91.32
2546.00,91.32
2545.00,91.33
2544.00,91.34
2543.00,91.35
2542.00,91.36
2541.00,91.36
2540.00,91.35
2539.00,91.36
2538.00,91.35
2537.00,91.35
2536.00,91.35
2535.00,91.34
2534.00,91.34
2533.00,91.34
2532.00,91.35
2531.00,91.36
2530.00,91.38
2529.00,91.37
2528.00,91.35
2527.00,91.33
2526.00,91.33
2525.00,91.34
2524.00,91.36
2523.00,91.37
2522.00,91.38
2521.00,91.39
2520.00,91.39
2519.00,91.38
2518.00,91.38
2517.00,91.36
2516.00,91.35
2515.00,91.34
2514.00,91.34
2513.00,91.34
2512.00,91.36
2511.00,91.38
2510.00,91.40
2509.00,91.42
2508.00,91.43
2507.00,91.43
2506.00,91.44
2505.00,91.45
2504.00,91.45
2503.00,91.45
2502.00,91.44
2501.00,91.44
2500.00,91.44
2499.00,91.44
2498.00,91.43
2497.00,91.41
2496.00,91.40
2495.00,91.41
2494.00,91.42
2493.00,91.42
2492.00,91.42
2491.00,91.42
2490.00,91.41
2489.00,91.41
2488.00,91.41
2487.00,91.42
2486.00,91.45
2485.00,91.47
2484.00,91.48
2483.00,91.48
2482.00,91.48
2481.00,91.48
2480.00,91.49
2479.00,91.49
2478.00,91.47
2477.00,91.45
2476.00,91.43
2475.00,91.43
2474.00,91.44
2473.00,91.45
2472.00,91.46
2471.00,91.45
2470.00,91.44
2469.00,91.43
2468.00,91.43
2467.00,91.44
2466.00,91.45
2465.00,91.47
2464.00,91.47
2463.00,91.47
2462.00,91.46
2461.00,91.45
2460.00,91.44
2459.00,91.45
2458.00,91.47
2457.00,91.48
2456.00,91.48
2455.00,91.48
2454.00,91.47
2453.00,91.44
2452.00,91.42
2451.00,91.41
2450.00,91.42
2449.00,91.44
2448.00,91.47
2447.00,91.49
2446.00,91.49
2445.00,91.48
2444.00,91.46
2443.00,91.45
2442.00,91.44
2441.00,91.45
2440.00,91.47
2439.00,91.50
2438.00,91.52
2437.00,91.54
2436.00,91.56
2435.00,91.56
2434.00,91.55
2433.00,91.54
2432.00,91.53
2431.00,91.53
2430.00,91.53
2429.00,91.54
2428.00,91.55
2427.00,91.55
2426.00,91.56
2425.00,91.56
2424.00,91.58
2423.00,91.60
2422.00,91.63
2421.00,91.68
2420.00,91.71
2419.00,91.72
2418.00,91.71
2417.00,91.69
2416.00,91.65
2415.00,91.63
2414.00,91.62
2413.00,91.62
2412.00,91.65
2411.00,91.67
2410.00,91.70
2409.00,91.72
2408.00,91.74
2407.00,91.76
2406.00,91.78
2405.00,91.78
2404.00,91.79
2403.00,91.80
2402.00,91.80
2401.00,91.81
2400.00,91.82
2399.00,91.84
2398.00,91.86
2397.00,91.89
2396.00,91.92
2395.00,91.95
2394.00,91.97
2393.00,91.97
2392.00,91.97
2391.00,91.97
2390.00,91.97
2389.00,91.96
2388.00,91.96
2387.00,91.95
2386.00,91.96
2385.00,91.99
2384.00,92.04
2383.00,92.10
2382.00,92.16
2381.00,92.21
2380.00,92.26
2379.00,92.31
2378.00,92.35
2377.00,92.38
2376.00,92.41
2375.00,92.41
2374.00,92.39
2373.00,92.37
2372.00,92.39
2371.00,92.43
2370.00,92.48
2369.00,92.51
2368.00,92.52
2367.00,92.50
2366.00,92.46
2365.00,92.42
2364.00,92.41
2363.00,92.43
2362.00,92.47
2361.00,92.50
2360.00,92.55
2359.00,92.59
2358.00,92.62
2357.00,92.61
2356.00,92.60
2355.00,92.58
2354.00,92.57
2353.00,92.57
2352.00,92.58
2351.00,92.60
2350.00,92.61
2349.00,92.61
2348.00,92.60
2347.00,92.60
2346.00,92.62
2345.00,92.63
2344.00,92.63
2343.00,92.61
2342.00,92.59
2341.00,92.56
2340.00,92.56
2339.00,92.57
2338.00,92.59
2337.00,92.60
2336.00,92.59
2335.00,92.56
2334.00,92.52
2333.00,92.50
2332.00,92.54
2331.00,92.61
2330.00,92.65
2329.00,92.64
2328.00,92.59
2327.00,92.51
2326.00,92.42
2325.00,92.33
2324.00,92.27
2323.00,92.24
2322.00,92.25
2321.00,92.27
2320.00,92.28
2319.00,92.28
2318.00,92.27
2317.00,92.25
2316.00,92.23
2315.00,92.22
2314.00,92.22
2313.00,92.20
2312.00,92.17
2311.00,92.13
2310.00,92.10
2309.00,92.07
2308.00,92.05
2307.00,92.04
2306.00,92.01
2305.00,91.97
2304.00,91.94
2303.00,91.91
2302.00,91.90
2301.00,91.89
2300.00,91.88
2299.00,91.85
2298.00,91.79
2297.00,91.72
2296.00,91.67
2295.00,91.66
2294.00,91.65
2293.00,91.62
2292.00,91.58
2291.00,91.54
2290.00,91.50
2289.00,91.44
2288.00,91.39
2287.00,91.33
2286.00,91.27
2285.00,91.22
2284.00,91.18
2283.00,91.15
2282.00,91.13
2281.00,91.12
2280.00,91.12
2279.00,91.14
2278.00,91.16
2277.00,91.16
2276.00,91.15
2275.00,91.12
2274.00,91.08
2273.00,91.04
2272.00,91.02
2271.00,91.01
2270.00,90.99
2269.00,90.94
2268.00,90.90
2267.00,90.87
2266.00,90.87
2265.00,90.88
2264.00,90.88
2263.00,90.85
2262.00,90.80
2261.00,90.74
2260.00,90.71
2259.00,90.71
2258.00,90.72
2257.00,90.74
2256.00,90.74
2255.00,90.73
2254.00,90.70
2253.00,90.64
2252.00,90.58
2251.00,90.55
2250.00,90.54
2249.00,90.56
2248.00,90.59
2247.00,90.61
2246.00,90.61
2245.00,90.56
2244.00,90.50
2243.00,90.44
2242.00,90.39
2241.00,90.37
2240.00,90.38
2239.00,90.38
2238.00,90.39
2237.00,90.37
2236.00,90.36
2235.00,90.35
2234.00,90.34
2233.00,90.33
2232.00,90.31
2231.00,90.30
2230.00,90.30
2229.00,90.31
2228.00,90.32
2227.00,90.33
2226.00,90.32
2225.00,90.29
2224.00,90.24
2223.00,90.16
2222.00,90.06
2221.00,89.99
2220.00,89.95
2219.00,89.95
2218.00,89.97
2217.00,89.97
2216.00,89.96
2215.00,89.94
2214.00,89.92
2213.00,89.89
2212.00,89.88
2211.00,89.91
2210.00,89.94
2209.00,89.93
2208.00,89.86
2207.00,89.76
2206.00,89.66
2205.00,89.60
2204.00,89.57
2203.00,89.58
2202.00,89.62
2201.00,89.66
2200.00,89.68
2199.00,89.67
2198.00,89.65
2197.00,89.61
2196.00,89.57
2195.00,89.53
2194.00,89.50
2193.00,89.47
2192.00,89.45
2191.00,89.43
2190.00,89.39
2189.00,89.34
2188.00,89.29
2187.00,89.24
2186.00,89.19
2185.00,89.14
2184.00,89.13
2183.00,89.16
2182.00,89.18
2181.00,89.17
2180.00,89.13
2179.00,89.10
2178.00,89.10
2177.00,89.14
2176.00,89.22
2175.00,89.28
2174.00,89.31
2173.00,89.31
2172.00,89.29
2171.00,89.25
2170.00,89.16
2169.00,89.01
2168.00,88.83
2167.00,88.69
2166.00,88.61
2165.00,88.56
2164.00,88.51
2163.00,88.47
2162.00,88.46
2161.00,88.53
2160.00,88.70
2159.00,88.92
2158.00,89.10
2157.00,89.23
2156.00,89.33
2155.00,89.43
2154.00,89.53
2153.00,89.59
2152.00,89.59
2151.00,89.57
2150.00,89.56
2149.00,89.61
2148.00,89.72
2147.00,89.85
2146.00,89.97
2145.00,90.04
2144.00,90.08
2143.00,90.12
2142.00,90.15
2141.00,90.20
2140.00,90.28
2139.00,90.40
2138.00,90.53
2137.00,90.65
2136.00,90.75
2135.00,90.85
2134.00,90.93
2133.00,91.00
2132.00,91.05
2131.00,91.07
2130.00,91.08
2129.00,91.08
2128.00,91.09
2127.00,91.10
2126.00,91.11
2125.00,91.12
2124.00,91.15
2123.00,91.18
2122.00,91.20
2121.00,91.20
2120.00,91.19
2119.00,91.17
2118.00,91.15
2117.00,91.12
2116.00,91.10
2115.00,91.09
2114.00,91.09
2113.00,91.10
2112.00,91.13
2111.00,91.15
2110.00,91.17
2109.00,91.16
2108.00,91.13
2107.00,91.10
2106.00,91.08
2105.00,91.06
2104.00,91.03
2103.00,91.00
2102.00,90.98
2101.00,90.97
2100.00,90.99
2099.00,91.02
2098.00,91.06
2097.00,91.09
2096.00,91.12
2095.00,91.16
2094.00,91.19
2093.00,91.20
2092.00,91.21
2091.00,91.23
2090.00,91.24
2089.00,91.24
2088.00,91.23
2087.00,91.22
2086.00,91.20
2085.00,91.16
2084.00,91.11
2083.00,91.05
2082.00,91.00
2081.00,90.96
2080.00,90.94
2079.00,90.93
2078.00,90.92
2077.00,90.92
2076.00,90.93
2075.00,90.93
2074.00,90.91
2073.00,90.87
2072.00,90.83
2071.00,90.81
2070.00,90.81
2069.00,90.80
2068.00,90.80
2067.00,90.78
2066.00,90.75
2065.00,90.71
2064.00,90.69
2063.00,90.70
2062.00,90.73
2061.00,90.76
2060.00,90.80
2059.00,90.82
2058.00,90.82
2057.00,90.78
2056.00,90.74
2055.00,90.71
2054.00,90.68
2053.00,90.58
2052.00,90.40
2051.00,90.20
2050.00,90.03
2049.00,89.94
2048.00,89.91
2047.00,89.92
2046.00,89.92
2045.00,89.91
2044.00,89.91
2043.00,89.93
2042.00,89.93
2041.00,89.92
2040.00,89.90
2039.00,89.89
2038.00,89.86
2037.00,89.80
2036.00,89.73
2035.00,89.65
2034.00,89.58
2033.00,89.53
2032.00,89.54
2031.00,89.60
2030.00,89.67
2029.00,89.69
2028.00,89.71
2027.00,89.75
2026.00,89.83
2025.00,89.89
2024.00,89.91
2023.00,89.91
2022.00,89.88
2021.00,89.86
2020.00,89.86
2019.00,89.89
2018.00,89.92
2017.00,89.94
2016.00,89.96
2015.00,89.96
2014.00,89.93
2013.00,89.89
2012.00,89.85
2011.00,89.87
2010.00,89.93
2009.00,90.01
2008.00,90.12
2007.00,90.24
2006.00,90.35
2005.00,90.43
2004.00,90.48
2003.00,90.49
2002.00,90.49
2001.00,90.45
2000.00,90.41
1999.00,90.37
1998.00,90.34
1997.00,90.34
1996.00,90.36
1995.00,90.38
1994.00,90.37
1993.00,90.32
1992.00,90.26
1991.00,90.22
1990.00,90.20
1989.00,90.18
1988.00,90.16
1987.00,90.17
1986.00,90.19
1985.00,90.18
1984.00,90.13
1983.00,90.06
1982.00,89.94
1981.00,89.78
1980.00,89.63
1979.00,89.56
1978.00,89.59
1977.00,89.70
1976.00,89.82
1975.00,89.92
1974.00,89.98
1973.00,90.03
1972.00,90.09
1971.00,90.17
1970.00,90.26
1969.00,90.32
1968.00,90.36
1967.00,90.40
1966.00,90.44
1965.00,90.49
1964.00,90.55
1963.00,90.61
1962.00,90.67
1961.00,90.74
1960.00,90.81
1959.00,90.88
1958.00,90.96
1957.00,91.02
1956.00,91.09
1955.00,91.18
1954.00,91.26
1953.00,91.31
1952.00,91.33
1951.00,91.33
1950.00,91.32
1949.00,91.31
1948.00,91.31
1947.00,91.34
1946.00,91.38
1945.00,91.43
1944.00,91.49
1943.00,91.55
1942.00,91.60
1941.00,91.62
1940.00,91.62
1939.00,91.63
1938.00,91.66
1937.00,91.68
1936.00,91.71
1935.00,91.75
1934.00,91.81
1933.00,91.85
1932.00,91.87
1931.00,91.87
1930.00,91.89
1929.00,91.92
1928.00,91.97
1927.00,92.02
1926.00,92.06
1925.00,92.07
1924.00,92.08
1923.00,92.11
1922.00,92.15
1921.00,92.20
1920.00,92.25
1919.00,92.31
1918.00,92.35
1917.00,92.38
1916.00,92.40
1915.00,92.43
1914.00,92.47
1913.00,92.51
1912.00,92.54
1911.00,92.57
1910.00,92.59
1909.00,92.61
1908.00,92.64
1907.00,92.67
1906.00,92.70
1905.00,92.72
1904.00,92.72
1903.00,92.72
1902.00,92.72
1901.00,92.73
1900.00,92.75
1899.00,92.80
1898.00,92.85
1897.00,92.88
1896.00,92.90
1895.00,92.92
1894.00,92.94
1893.00,92.94
1892.00,92.93
1891.00,92.93
1890.00,92.96
1889.00,93.02
1888.00,93.07
1887.00,93.10
1886.00,93.11
1885.00,93.10
1884.00,93.10
1883.00,93.12
1882.00,93.16
1881.00,93.19
1880.00,93.22
1879.00,93.26
1878.00,93.30
1877.00,93.31
1876.00,93.29
1875.00,93.26
1874.00,93.25
1873.00,93.24
1872.00,93.25
1871.00,93.25
1870.00,93.24
1869.00,93.23
1868.00,93.24
1867.00,93.27
1866.00,93.31
1865.00,93.33
1864.00,93.33
1863.00,93.34
1862.00,93.35
1861.00,93.36
1860.00,93.37
1859.00,93.38
1858.00,93.40
1857.00,93.43
1856.00,93.47
1855.00,93.51
1854.00,93.53
1853.00,93.52
1852.00,93.50
1851.00,93.49
1850.00,93.49
1849.00,93.50
1848.00,93.53
1847.00,93.56
1846.00,93.59
1845.00,93.61
1844.00,93.63
1843.00,93.66
1842.00,93.69
1841.00,93.70
1840.00,93.70
1839.00,93.70
1838.00,93.70
1837.00,93.69
1836.00,93.69
1835.00,93.70
1834.00,93.71
1833.00,93.73
1832.00,93.74
1831.00,93.74
1830.00,93.75
1829.00,93.77
1828.00,93.79
1827.00,93.81
1826.00,93.83
1825.00,93.84
1824.00,93.86
1823.00,93.89
1822.00,93.91
1821.00,93.94
1820.00,93.97
1819.00,94.01
1818.00,94.04
1817.00,94.06
1816.00,94.06
1815.00,94.07
1814.00,94.09
1813.00,94.09
1812.00,94.09
1811.00,94.11
1810.00,94.14
1809.00,94.16
1808.00,94.17
1807.00,94.18
1806.00,94.19
1805.00,94.21
1804.00,94.22
1803.00,94.22
1802.00,94.23
1801.00,94.23
1800.00,94.23
1799.00,94.24
1798.00,94.25
1797.00,94.26
1796.00,94.27
1795.00,94.30
1794.00,94.34
1793.00,94.35
1792.00,94.34
1791.00,94.34
1790.00,94.34
1789.00,94.33
1788.00,94.33
1787.00,94.34
1786.00,94.35
1785.00,94.36
1784.00,94.37
1783.00,94.36
1782.00,94.34
1781.00,94.32
1780.00,94.30
1779.00,94.28
1778.00,94.28
1777.00,94.27
1776.00,94.28
1775.00,94.29
1774.00,94.28
1773.00,94.25
1772.00,94.22
1771.00,94.22
1770.00,94.23
1769.00,94.23
1768.00,94.23
1767.00,94.23
1766.00,94.24
1765.00,94.24
1764.00,94.24
1763.00,94.25
1762.00,94.26
1761.00,94.27
1760.00,94.27
1759.00,94.27
1758.00,94.27
1757.00,94.27
1756.00,94.26
1755.00,94.25
1754.00,94.25
1753.00,94.26
1752.00,94.25
1751.00,94.24
1750.00,94.21
1749.00,94.17
1748.00,94.15
1747.00,94.14
1746.00,94.14
1745.00,94.13
1744.00,94.12
1743.00,94.13
1742.00,94.14
1741.00,94.14
1740.00,94.12
1739.00,94.11
1738.00,94.12
1737.00,94.14
1736.00,94.15
1735.00,94.16
1734.00,94.16
1733.00,94.16
1732.00,94.14
1731.00,94.13
1730.00,94.13
1729.00,94.15
1728.00,94.16
1727.00,94.16
1726.00,94.17
1725.00,94.15
1724.00,94.13
1723.00,94.12
1722.00,94.13
1721.00,94.14
1720.00,94.14
1719.00,94.11
1718.00,94.08
1717.00,94.05
1716.00,94.03
1715.00,94.03
1714.00,94.02
1713.00,93.99
1712.00,93.94
1711.00,93.89
1710.00,93.85
1709.00,93.81
1708.00,93.75
1707.00,93.67
1706.00,93.58
1705.00,93.49
1704.00,93.42
1703.00,93.39
1702.00,93.35
1701.00,93.19
1700.00,92.91
1699.00,92.64
1698.00,92.39
1697.00,92.09
1696.00,91.73
1695.00,91.38
1694.00,91.05
1693.00,90.70
1692.00,90.30
1691.00,89.86
1690.00,89.38
1689.00,88.90
1688.00,88.47
1687.00,88.07
1686.00,87.63
1685.00,87.00
1684.00,86.26
1683.00,85.69
1682.00,85.24
1681.00,84.79
1680.00,84.32
1679.00,83.90
1678.00,83.53
1677.00,83.14
1676.00,82.65
1675.00,82.10
1674.00,81.59
1673.00,81.12
1672.00,80.68
1671.00,80.22
1670.00,79.71
1669.00,79.17
1668.00,78.65
1667.00,78.19
1666.00,77.76
1665.00,77.30
1664.00,76.73
1663.00,76.09
1662.00,75.43
1661.00,74.76
1660.00,74.09
1659.00,73.41
1658.00,72.74
1657.00,72.10
1656.00,71.49
1655.00,70.80
1654.00,69.78
1653.00,68.41
1652.00,67.27
1651.00,66.53
1650.00,65.99
1649.00,65.48
1648.00,64.93
1647.00,64.45
1646.00,64.18
1645.00,64.08
1644.00,64.08
1643.00,64.19
1642.00,64.42
1641.00,64.76
1640.00,65.18
1639.00,65.68
1638.00,66.27
1637.00,67.08
1636.00,68.20
1635.00,69.46
1634.00,70.55
1633.00,71.43
1632.00,72.26
1631.00,73.12
1630.00,74.02
1629.00,74.92
1628.00,75.80
1627.00,76.58
1626.00,77.22
1625.00,77.73
1624.00,78.14
1623.00,78.43
1622.00,78.56
1621.00,78.51
1620.00,78.35
1619.00,78.04
1618.00,77.52
1617.00,76.70
1616.00,75.74
1615.00,74.81
1614.00,73.91
1613.00,72.94
1612.00,71.90
1611.00,70.82
1610.00,69.78
1609.00,68.81
1608.00,67.94
1607.00,67.23
1606.00,66.69
1605.00,66.31
1604.00,66.08
1603.00,66.03
1602.00,66.19
1601.00,66.54
1600.00,67.06
1599.00,67.76
1598.00,68.60
1597.00,69.54
1596.00,70.54
1595.00,71.57
1594.00,72.60
1593.00,73.59
1592.00,74.49
1591.00,75.29
1590.00,75.97
1589.00,76.53
1588.00,76.95
1587.00,77.27
1586.00,77.48
1585.00,77.62
1584.00,77.74
1583.00,77.88
1582.00,78.09
1581.00,78.38
1580.00,78.73
1579.00,79.13
1578.00,79.58
1577.00,80.13
1576.00,80.77
1575.00,81.33
1574.00,81.70
1573.00,81.94
1572.00,82.14
1571.00,82.28
1570.00,82.31
1569.00,82.24
1568.00,82.12
1567.00,81.93
1566.00,81.63
1565.00,81.24
1564.00,80.84
1563.00,80.46
1562.00,80.09
1561.00,79.64
1560.00,78.87
1559.00,77.69
1558.00,76.62
1557.00,75.84
1556.00,75.16
1555.00,74.43
1554.00,73.63
1553.00,72.84
1552.00,72.10
1551.00,71.36
1550.00,70.60
1549.00,69.86
1548.00,69.21
1547.00,68.63
1546.00,68.02
1545.00,67.35
1544.00,66.72
1543.00,66.15
1542.00,65.60
1541.00,64.94
1540.00,64.23
1539.00,63.64
1538.00,63.20
1537.00,62.88
1536.00,62.61
1535.00,62.35
1534.00,62.04
1533.00,61.76
1532.00,61.55
1531.00,61.41
1530.00,61.32
1529.00,61.26
1528.00,61.24
1527.00,61.28
1526.00,61.39
1525.00,61.54
1524.00,61.73
1523.00,62.01
1522.00,62.46
1521.00,63.01
1520.00,63.53
1519.00,63.98
1518.00,64.50
1517.00,65.14
1516.00,65.84
1515.00,66.50
1514.00,67.12
1513.00,67.76
1512.00,68.42
1511.00,69.06
1510.00,69.65
1509.00,70.22
1508.00,70.87
1507.00,71.76
1506.00,72.76
1505.00,73.49
1504.00,73.95
1503.00,74.32
1502.00,74.70
1501.00,75.06
1500.00,75.32
1499.00,75.42
1498.00,75.32
1497.00,74.93
1496.00,74.26
1495.00,73.44
1494.00,72.60
1493.00,71.72
1492.00,70.73
1491.00,69.59
1490.00,68.39
1489.00,67.29
1488.00,66.40
1487.00,65.69
1486.00,65.19
1485.00,64.88
1484.00,64.71
1483.00,64.66
1482.00,64.69
1481.00,64.76
1480.00,64.81
1479.00,64.79
1478.00,64.72
1477.00,64.62
1476.00,64.55
1475.00,64.57
1474.00,64.78
1473.00,65.25
1472.00,65.91
1471.00,66.60
1470.00,67.26
1469.00,67.91
1468.00,68.60
1467.00,69.34
1466.00,70.16
1465.00,71.05
1464.00,71.88
1463.00,72.57
1462.00,73.14
1461.00,73.65
1460.00,74.15
1459.00,74.65
1458.00,75.18
1457.00,75.72
1456.00,76.09
1455.00,76.21
1454.00,76.21
1453.00,76.16
1452.00,76.05
1451.00,75.89
1450.00,75.67
1449.00,75.39
1448.00,75.05
1447.00,74.68
1446.00,74.34
1445.00,74.03
1444.00,73.74
1443.00,73.47
1442.00,73.20
1441.00,72.93
1440.00,72.66
1439.00,72.39
1438.00,72.06
1437.00,71.60
1436.00,71.02
1435.00,70.47
1434.00,69.99
1433.00,69.59
1432.00,69.27
1431.00,69.08
1430.00,69.02
1429.00,69.08
1428.00,69.22
1427.00,69.40
1426.00,69.60
1425.00,69.76
1424.00,69.87
1423.00,69.91
1422.00,69.89
1421.00,69.75
1420.00,69.45
1419.00,68.97
1418.00,68.39
1417.00,67.80
1416.00,67.19
1415.00,66.60
1414.00,66.03
1413.00,65.51
1412.00,65.08
1411.00,64.80
1410.00,64.69
1409.00,64.73
1408.00,64.91
1407.00,65.25
1406.00,65.74
1405.00,66.36
1404.00,67.04
1403.00,67.74
1402.00,68.42
1401.00,69.12
1400.00,69.87
1399.00,70.63
1398.00,71.35
1397.00,71.99
1396.00,72.61
1395.00,73.25
1394.00,73.87
1393.00,74.39
1392.00,74.83
1391.00,75.23
1390.00,75.61
1389.00,75.99
1388.00,76.36
1387.00,76.73
1386.00,77.06
1385.00,77.34
1384.00,77.58
1383.00,77.80
1382.00,78.01
1381.00,78.21
1380.00,78.39
1379.00,78.57
1378.00,78.72
1377.00,78.87
1376.00,79.01
1375.00,79.16
1374.00,79.32
1373.00,79.47
1372.00,79.61
1371.00,79.73
1370.00,79.85
1369.00,79.97
1368.00,80.10
1367.00,80.23
1366.00,80.34
1365.00,80.45
1364.00,80.56
1363.00,80.68
1362.00,80.79
1361.00,80.90
1360.00,80.98
1359.00,81.05
1358.00,81.11
1357.00,81.15
1356.00,81.16
1355.00,81.15
1354.00,81.11
1353.00,81.04
1352.00,80.92
1351.00,80.76
1350.00,80.56
1349.00,80.32
1348.00,80.05
1347.00,79.72
1346.00,79.36
1345.00,78.96
1344.00,78.54
1343.00,78.12
1342.00,77.68
1341.00,77.24
1340.00,76.81
1339.00,76.40
1338.00,76.05
1337.00,75.72
1336.00,75.41
1335.00,75.12
1334.00,74.86
1333.00,74.65
1332.00,74.46
1331.00,74.29
1330.00,74.15
1329.00,74.02
1328.00,73.91
1327.00,73.82
1326.00,73.74
1325.00,73.68
1324.00,73.63
1323.00,73.58
1322.00,73.54
1321.00,73.51
1320.00,73.48
1319.00,73.46
1318.00,73.44
1317.00,73.41
1316.00,73.33
1315.00,73.19
1314.00,73.00
1313.00,72.75
1312.00,72.46
1311.00,72.13
1310.00,71.79
1309.00,71.42
1308.00,71.03
1307.00,70.65
1306.00,70.31
1305.00,70.03
1304.00,69.80
1303.00,69.64
1302.00,69.52
1301.00,69.43
1300.00,69.38
1299.00,69.37
1298.00,69.44
1297.00,69.59
1296.00,69.80
1295.00,70.08
1294.00,70.39
1293.00,70.73
1292.00,71.08
1291.00,71.42
1290.00,71.74
1289.00,72.03
1288.00,72.29
1287.00,72.51
1286.00,72.71
1285.00,72.85
1284.00,72.95
1283.00,73.00
1282.00,73.03
1281.00,73.02
1280.00,72.98
1279.00,72.89
1278.00,72.77
1277.00,72.61
1276.00,72.40
1275.00,72.16
1274.00,71.87
1273.00,71.55
1272.00,71.22
1271.00,70.88
1270.00,70.58
1269.00,70.32
1268.00,70.10
1267.00,69.91
1266.00,69.77
1265.00,69.65
1264.00,69.57
1263.00,69.52
1262.00,69.48
1261.00,69.45
1260.00,69.40
1259.00,69.32
1258.00,69.22
1257.00,69.10
1256.00,68.93
1255.00,68.72
1254.00,68.48
1253.00,68.19
1252.00,67.85
1251.00,67.49
1250.00,67.12
1249.00,66.76
1248.00,66.43
1247.00,66.13
1246.00,65.89
1245.00,65.70
1244.00,65.57
1243.00,65.51
1242.00,65.52
1241.00,65.57
1240.00,65.66
1239.00,65.79
1238.00,65.99
1237.00,66.24
1236.00,66.54
1235.00,66.89
1234.00,67.27
1233.00,67.70
1232.00,68.15
1231.00,68.62
1230.00,69.12
1229.00,69.62
1228.00,70.12
1227.00,70.62
1226.00,71.13
1225.00,71.63
1224.00,72.13
1223.00,72.60
1222.00,73.05
1221.00,73.49
1220.00,73.91
1219.00,74.31
1218.00,74.70
1217.00,75.06
1216.00,75.40
1215.00,75.73
1214.00,76.02
1213.00,76.29
1212.00,76.52
1211.00,76.73
1210.00,76.90
1209.00,77.05
1208.00,77.15
1207.00,77.22
1206.00,77.26
1205.00,77.28
1204.00,77.27
1203.00,77.24
1202.00,77.20
1201.00,77.17
1200.00,77.14
1199.00,77.12
1198.00,77.11
1197.00,77.10
1196.00,77.11
1195.00,77.13
1194.00,77.17
1193.00,77.24
1192.00,77.31
1191.00,77.38
1190.00,77.45
1189.00,77.50
1188.00,77.53
1187.00,77.56
1186.00,77.58
1185.00,77.60
1184.00,77.62
1183.00,77.62
1182.00,77.60
1181.00,77.56
1180.00,77.49
1179.00,77.42
1178.00,77.35
1177.00,77.28
1176.00,77.21
1175.00,77.13
1174.00,77.04
1173.00,76.95
1172.00,76.87
1171.00,76.78
1170.00,76.70
1169.00,76.63
1168.00,76.58
1167.00,76.57
1166.00,76.62
1165.00,76.75
1164.00,76.94
1163.00,77.19
1162.00,77.50
1161.00,77.84
1160.00,78.20
1159.00,78.57
1158.00,78.93
1157.00,79.28
1156.00,79.59
1155.00,79.85
1154.00,80.07
1153.00,80.25
1152.00,80.41
1151.00,80.55
1150.00,80.66
1149.00,80.75
1148.00,80.81
1147.00,80.85
1146.00,80.90
1145.00,80.94
1144.00,80.96
1143.00,80.96
1142.00,80.93
1141.00,80.89
1140.00,80.86
1139.00,80.85
1138.00,80.86
1137.00,80.88
1136.00,80.91
1135.00,80.95
1134.00,80.99
1133.00,81.04
1132.00,81.11
1131.00,81.19
1130.00,81.27
1129.00,81.34
1128.00,81.40
1127.00,81.45
1126.00,81.51
1125.00,81.58
1124.00,81.66
1123.00,81.72
1122.00,81.77
1121.00,81.82
1120.00,81.86
1119.00,81.89
1118.00,81.92
1117.00,81.94
1116.00,81.94
1115.00,81.92
1114.00,81.89
1113.00,81.86
1112.00,81.81
1111.00,81.73
1110.00,81.62
1109.00,81.51
1108.00,81.42
1107.00,81.34
1106.00,81.27
1105.00,81.20
1104.00,81.13
1103.00,81.06
1102.00,80.99
1101.00,80.94
1100.00,80.89
1099.00,80.84
1098.00,80.76
1097.00,80.66
1096.00,80.53
1095.00,80.38
1094.00,80.21
1093.00,80.00
1092.00,79.77
1091.00,79.55
1090.00,79.38
1089.00,79.26
1088.00,79.18
1087.00,79.11
1086.00,79.05
1085.00,79.00
1084.00,78.96
1083.00,78.97
1082.00,79.02
1081.00,79.12
1080.00,79.24
1079.00,79.38
1078.00,79.53
1077.00,79.69
1076.00,79.86
1075.00,80.05
1074.00,80.24
1073.00,80.45
1072.00,80.68
1071.00,80.92
1070.00,81.18
1069.00,81.45
1068.00,81.72
1067.00,81.99
1066.00,82.25
1065.00,82.49
1064.00,82.70
1063.00,82.87
1062.00,83.01
1061.00,83.13
1060.00,83.23
1059.00,83.33
1058.00,83.42
1057.00,83.52
1056.00,83.62
1055.00,83.71
1054.00,83.81
1053.00,83.88
1052.00,83.93
1051.00,83.96
1050.00,83.99
1049.00,84.05
1048.00,84.13
1047.00,84.22
1046.00,84.31
1045.00,84.38
1044.00,84.43
1043.00,84.49
1042.00,84.54
1041.00,84.60
1040.00,84.66
1039.00,84.71
1038.00,84.75
1037.00,84.80
1036.00,84.84
1035.00,84.86
1034.00,84.88
1033.00,84.88
1032.00,84.86
1031.00,84.85
1030.00,84.84
1029.00,84.85
1028.00,84.87
1027.00,84.87
1026.00,84.87
1025.00,84.88
1024.00,84.89
1023.00,84.92
1022.00,84.97
1021.00,85.04
1020.00,85.14
1019.00,85.24
1018.00,85.36
1017.00,85.49
1016.00,85.64
1015.00,85.79
1014.00,85.94
1013.00,86.06
1012.00,86.13
1011.00,86.17
1010.00,86.18
1009.00,86.15
1008.00,86.06
1007.00,85.87
1006.00,85.58
1005.00,85.21
1004.00,84.79
1003.00,84.36
1002.00,83.95
1001.00,83.62
1000.00,83.41
999.00,83.37
998.00,83.54
997.00,83.89
996.00,84.33
995.00,84.74
994.00,85.04
993.00,85.20
992.00,85.24
991.00,85.21
990.00,85.16
989.00,85.10
988.00,85.06
987.00,85.04
986.00,85.01
985.00,84.97
984.00,84.92
983.00,84.85
982.00,84.78
981.00,84.72
980.00,84.68
979.00,84.66
978.00,84.63
977.00,84.59
976.00,84.54
975.00,84.52
974.00,84.52
973.00,84.55
972.00,84.61
971.00,84.68
970.00,84.78
969.00,84.88
968.00,84.99
967.00,85.10
966.00,85.22
965.00,85.35
964.00,85.52
963.00,85.71
962.00,85.92
961.00,86.12
960.00,86.31
959.00,86.50
958.00,86.67
957.00,86.81
956.00,86.93
955.00,87.02
954.00,87.09
953.00,87.14
952.00,87.16
951.00,87.14
950.00,87.09
949.00,87.02
948.00,86.92
947.00,86.78
946.00,86.61
945.00,86.40
944.00,86.14
943.00,85.81
942.00,85.39
941.00,84.88
940.00,84.31
939.00,83.75
938.00,83.27
937.00,82.93
936.00,82.73
935.00,82.68
934.00,82.75
933.00,82.88
932.00,83.04
931.00,83.19
930.00,83.33
929.00,83.43
928.00,83.50
927.00,83.54
926.00,83.54
925.00,83.53
924.00,83.50
923.00,83.47
922.00,83.44
921.00,83.42
920.00,83.41
919.00,83.39
918.00,83.37
917.00,83.33
916.00,83.27
915.00,83.19
914.00,83.06
913.00,82.88
912.00,82.68
911.00,82.53
910.00,82.47
909.00,82.50
908.00,82.63
907.00,82.81
906.00,83.02
905.00,83.20
904.00,83.30
903.00,83.30
902.00,83.23
901.00,83.12
900.00,82.99
899.00,82.88
898.00,82.78
897.00,82.71
896.00,82.68
895.00,82.70
894.00,82.74
893.00,82.80
892.00,82.83
891.00,82.85
890.00,82.87
889.00,82.88
888.00,82.89
887.00,82.89
886.00,82.90
885.00,82.91
884.00,82.93
883.00,82.97
882.00,83.00
881.00,83.02
880.00,83.01
879.00,82.97
878.00,82.92
877.00,82.87
876.00,82.81
875.00,82.75
874.00,82.67
873.00,82.57
872.00,82.45
871.00,82.31
870.00,82.17
869.00,81.98
868.00,81.75
867.00,81.46
866.00,81.13
865.00,80.79
864.00,80.43
863.00,80.04
862.00,79.61
861.00,79.14
860.00,78.61
859.00,78.02
858.00,77.37
857.00,76.68
856.00,76.04
855.00,75.56
854.00,75.39
853.00,75.65
852.00,76.33
851.00,77.36
850.00,78.57
849.00,79.79
848.00,80.89
847.00,81.84
846.00,82.65
845.00,83.34
844.00,83.93
843.00,84.42
842.00,84.81
841.00,85.13
840.00,85.40
839.00,85.63
838.00,85.83
837.00,85.97
836.00,86.04
835.00,86.07
834.00,86.06
833.00,85.99
832.00,85.87
831.00,85.68
830.00,85.43
829.00,85.11
828.00,84.73
827.00,84.29
826.00,83.81
825.00,83.30
824.00,82.78
823.00,82.27
822.00,81.82
821.00,81.48
820.00,81.25
819.00,81.15
818.00,81.17
817.00,81.28
816.00,81.47
815.00,81.74
814.00,82.10
813.00,82.54
812.00,83.03
811.00,83.53
810.00,84.00
809.00,84.39
808.00,84.67
807.00,84.83
806.00,84.89
805.00,84.86
804.00,84.74
803.00,84.53
802.00,84.24
801.00,83.86
800.00,83.37
799.00,82.78
798.00,82.10
797.00,81.30
796.00,80.37
795.00,79.32
794.00,78.18
793.00,76.97
792.00,75.72
791.00,74.48
790.00,73.31
789.00,72.26
788.00,71.32
787.00,70.45
786.00,69.64
785.00,68.87
784.00,68.15
783.00,67.52
782.00,67.00
781.00,66.60
780.00,66.32
779.00,66.16
778.00,66.11
777.00,66.18
776.00,66.38
775.00,66.74
774.00,67.21
773.00,67.73
772.00,68.22
771.00,68.69
770.00,69.19
769.00,69.82
768.00,70.66
767.00,71.71
766.00,72.88
765.00,74.07
764.00,75.19
763.00,76.24
762.00,77.21
761.00,78.06
760.00,78.79
759.00,79.43
758.00,80.02
757.00,80.58
756.00,81.08
755.00,81.52
754.00,81.88
753.00,82.17
752.00,82.37
751.00,82.50
750.00,82.59
749.00,82.66
748.00,82.68
747.00,82.61
746.00,82.46
745.00,82.28
744.00,82.16
743.00,82.07
742.00,81.92
741.00,81.61
740.00,81.15
739.00,80.58
738.00,79.93
737.00,79.21
736.00,78.42
735.00,77.66
734.00,76.98
733.00,76.38
732.00,75.83
731.00,75.30
730.00,74.75
729.00,74.12
728.00,73.39
727.00,72.55
726.00,71.60
725.00,70.57
724.00,69.53
723.00,68.56
722.00,67.68
721.00,66.89
720.00,66.21
719.00,65.70
718.00,65.40
717.00,65.29
716.00,65.31
715.00,65.43
714.00,65.59
713.00,65.76
712.00,65.92
711.00,66.09
710.00,66.28
709.00,66.49
708.00,66.69
707.00,66.87
706.00,67.05
705.00,67.22
704.00,67.37
703.00,67.50
702.00,67.60
701.00,67.64
700.00,67.59
699.00,67.44
698.00,67.20
697.00,66.83
696.00,66.34
695.00,65.75
694.00,65.05
693.00,64.21
692.00,63.21
691.00,62.07
690.00,60.79
689.00,59.35
688.00,57.75
687.00,56.03
686.00,54.30
685.00,52.66
684.00,51.29
683.00,50.36
682.00,50.00
681.00,50.20
680.00,50.86
679.00,51.84
678.00,52.97
677.00,54.10
676.00,55.13
675.00,56.07
674.00,56.93
673.00,57.68
672.00,58.28
671.00,58.78
670.00,59.23
669.00,59.68
668.00,60.01
667.00,60.13
666.00,60.23
665.00,60.37
664.00,60.48
663.00,60.55
662.00,60.58
661.00,60.56
660.00,60.53
659.00,60.55
658.00,60.68
657.00,60.83
656.00,60.89
655.00,60.80
654.00,60.63
653.00,60.49
652.00,60.39
651.00,60.33
650.00,60.29
649.00,60.27
648.00,60.27
647.00,60.32
646.00,60.40
645.00,60.44
644.00,60.41
643.00,60.36
642.00,60.36
641.00,60.42
640.00,60.51
639.00,60.58
638.00,60.61
637.00,60.58
636.00,60.52
635.00,60.49
634.00,60.50
633.00,60.49
632.00,60.44
631.00,60.42
630.00,60.51
629.00,60.68
628.00,60.82
627.00,60.86
626.00,60.83
625.00,60.72
624.00,60.58
623.00,60.48
622.00,60.46
621.00,60.50
620.00,60.58
619.00,60.76
618.00,61.05
617.00,61.26
616.00,61.29
615.00,61.19
614.00,61.12
613.00,61.14
612.00,61.19
611.00,61.23
610.00,61.21
609.00,61.05
608.00,60.72
607.00,60.30
606.00,59.94
605.00,59.72
604.00,59.66
603.00,59.70
602.00,59.71
601.00,59.64
600.00,59.57
599.00,59.67
598.00,59.91
597.00,60.15
596.00,60.29
595.00,60.40
594.00,60.49
593.00,60.46
592.00,60.27
591.00,60.06
590.00,59.93
589.00,59.85
588.00,59.73
587.00,59.58
586.00,59.40
585.00,59.13
584.00,58.78
583.00,58.48
582.00,58.21
581.00,57.80
580.00,57.21
579.00,56.69
578.00,56.40
577.00,56.17
576.00,55.98
575.00,56.03
574.00,56.34
573.00,56.63
572.00,56.86
571.00,57.30
570.00,57.88
569.00,58.14
568.00,57.88
567.00,57.55
566.00,57.58
565.00,57.85
564.00,58.11
563.00,58.29
562.00,58.38
561.00,58.37
560.00,58.42
559.00,58.77
558.00,59.20
557.00,59.15
556.00,58.50
555.00,57.73
554.00,57.30
553.00,57.23
552.00,57.47
551.00,58.09
550.00,58.95
