Created as New Dataset,Natural, 7.1.
cm-1,%T
4000.00,100.02
3999.00,100.02
3998.00,100.02
3997.00,100.03
3996.00,100.03
3995.00,100.03
3994.00,100.02
3993.00,100.02
3992.00,100.01
3991.00,100.00
3990.00,99.97
3989.00,99.95
3988.00,99.94
3987.00,99.93
3986.00,99.93
3985.00,99.94
3984.00,99.96
3983.00,99.98
3982.00,99.99
3981.00,100.00
3980.00,99.99
3979.00,99.97
3978.00,99.96
3977.00,99.96
3976.00,99.97
3975.00,99.99
3974.00,100.01
3973.00,100.01
3972.00,100.00
3971.00,99.99
3970.00,99.99
3969.00,99.99
3968.00,100.00
3967.00,100.00
3966.00,100.00
3965.00,100.00
3964.00,99.98
3963.00,99.97
3962.00,99.96
3961.00,99.96
3960.00,99.98
3959.00,99.99
3958.00,100.01
3957.00,100.03
3956.00,100.05
3955.00,100.05
3954.00,100.04
3953.00,100.03
3952.00,100.01
3951.00,100.00
3950.00,100.00
3949.00,100.02
3948.00,100.03
3947.00,100.05
3946.00,100.06
3945.00,100.07
3944.00,100.09
3943.00,100.10
3942.00,100.11
3941.00,100.12
3940.00,100.11
3939.00,100.10
3938.00,100.08
3937.00,100.06
3936.00,100.05
3935.00,100.05
3934.00,100.06
3933.00,100.07
3932.00,100.07
3931.00,100.07
3930.00,100.07
3929.00,100.09
3928.00,100.09
3927.00,100.09
3926.00,100.08
3925.00,100.07
3924.00,100.07
3923.00,100.08
3922.00,100.09
3921.00,100.09
3920.00,100.09
3919.00,100.08
3918.00,100.09
3917.00,100.10
3916.00,100.13
3915.00,100.14
3914.00,100.14
3913.00,100.10
3912.00,100.06
3911.00,100.02
3910.00,100.00
3909.00,100.00
3908.00,100.02
3907.00,100.05
3906.00,100.10
3905.00,100.15
3904.00,100.21
3903.00,100.26
3902.00,100.29
3901.00,100.29
3900.00,100.26
3899.00,100.23
3898.00,100.20
3897.00,100.18
3896.00,100.17
3895.00,100.17
3894.00,100.17
3893.00,100.16
3892.00,100.13
3891.00,100.11
3890.00,100.11
3889.00,100.12
3888.00,100.12
3887.00,100.12
3886.00,100.13
3885.00,100.14
3884.00,100.16
3883.00,100.17
3882.00,100.17
3881.00,100.15
3880.00,100.13
3879.00,100.13
3878.00,100.13
3877.00,100.14
3876.00,100.15
3875.00,100.14
3874.00,100.12
3873.00,100.11
3872.00,100.11
3871.00,100.13
3870.00,100.16
3869.00,100.18
3868.00,100.19
3867.00,100.20
3866.00,100.22
3865.00,100.25
3864.00,100.25
3863.00,100.23
3862.00,100.19
3861.00,100.16
3860.00,100.13
3859.00,100.11
3858.00,100.11
3857.00,100.16
3856.00,100.24
3855.00,100.32
3854.00,100.36
3853.00,100.36
3852.00,100.38
3851.00,100.40
3850.00,100.38
3849.00,100.33
3848.00,100.27
3847.00,100.21
3846.00,100.18
3845.00,100.18
3844.00,100.19
3843.00,100.20
3842.00,100.21
3841.00,100.22
3840.00,100.23
3839.00,100.25
3838.00,100.25
3837.00,100.25
3836.00,100.23
3835.00,100.21
3834.00,100.19
3833.00,100.17
3832.00,100.16
3831.00,100.15
3830.00,100.14
3829.00,100.14
3828.00,100.14
3827.00,100.14
3826.00,100.13
3825.00,100.12
3824.00,100.13
3823.00,100.13
3822.00,100.11
3821.00,100.08
3820.00,100.06
3819.00,100.07
3818.00,100.09
3817.00,100.12
3816.00,100.14
3815.00,100.13
3814.00,100.10
3813.00,100.06
3812.00,100.03
3811.00,100.01
3810.00,100.00
3809.00,99.99
3808.00,100.00
3807.00,100.02
3806.00,100.05
3805.00,100.08
3804.00,100.11
3803.00,100.12
3802.00,100.10
3801.00,100.07
3800.00,100.06
3799.00,100.05
3798.00,100.06
3797.00,100.07
3796.00,100.07
3795.00,100.05
3794.00,100.02
3793.00,100.00
3792.00,99.98
3791.00,99.95
3790.00,99.92
3789.00,99.91
3788.00,99.92
3787.00,99.93
3786.00,99.95
3785.00,99.96
3784.00,99.96
3783.00,99.97
3782.00,99.97
3781.00,99.97
3780.00,99.97
3779.00,99.96
3778.00,99.95
3777.00,99.94
3776.00,99.93
3775.00,99.93
3774.00,99.94
3773.00,99.95
3772.00,99.97
3771.00,99.98
3770.00,100.00
3769.00,100.01
3768.00,100.00
3767.00,99.98
3766.00,99.96
3765.00,99.94
3764.00,99.92
3763.00,99.90
3762.00,99.90
3761.00,99.92
3760.00,99.95
3759.00,99.99
3758.00,100.02
3757.00,100.05
3756.00,100.06
3755.00,100.07
3754.00,100.08
3753.00,100.11
3752.00,100.13
3751.00,100.15
3750.00,100.17
3749.00,100.21
3748.00,100.25
3747.00,100.29
3746.00,100.29
3745.00,100.26
3744.00,100.23
3743.00,100.22
3742.00,100.22
3741.00,100.21
3740.00,100.19
3739.00,100.17
3738.00,100.15
3737.00,100.15
3736.00,100.15
3735.00,100.14
3734.00,100.12
3733.00,100.10
3732.00,100.10
3731.00,100.10
3730.00,100.09
3729.00,100.07
3728.00,100.05
3727.00,100.04
3726.00,100.03
3725.00,100.01
3724.00,99.99
3723.00,99.96
3722.00,99.94
3721.00,99.92
3720.00,99.91
3719.00,99.91
3718.00,99.93
3717.00,99.94
3716.00,99.95
3715.00,99.94
3714.00,99.93
3713.00,99.91
3712.00,99.88
3711.00,99.87
3710.00,99.89
3709.00,99.92
3708.00,99.94
3707.00,99.94
3706.00,99.92
3705.00,99.90
3704.00,99.87
3703.00,99.84
3702.00,99.82
3701.00,99.81
3700.00,99.79
3699.00,99.79
3698.00,99.78
3697.00,99.79
3696.00,99.80
3695.00,99.81
3694.00,99.83
3693.00,99.86
3692.00,99.90
3691.00,99.93
3690.00,99.95
3689.00,99.95
3688.00,99.95
3687.00,99.95
3686.00,99.94
3685.00,99.92
3684.00,99.90
3683.00,99.86
3682.00,99.83
3681.00,99.80
3680.00,99.80
3679.00,99.84
3678.00,99.90
3677.00,99.96
3676.00,99.99
3675.00,100.00
3674.00,100.02
3673.00,100.05
3672.00,100.09
3671.00,100.11
3670.00,100.07
3669.00,99.99
3668.00,99.91
3667.00,99.85
3666.00,99.83
3665.00,99.80
3664.00,99.76
3663.00,99.73
3662.00,99.70
3661.00,99.70
3660.00,99.70
3659.00,99.70
3658.00,99.70
3657.00,99.69
3656.00,99.69
3655.00,99.71
3654.00,99.74
3653.00,99.78
3652.00,99.84
3651.00,99.90
3650.00,99.94
3649.00,99.93
3648.00,99.90
3647.00,99.87
3646.00,99.86
3645.00,99.85
3644.00,99.84
3643.00,99.80
3642.00,99.74
3641.00,99.68
3640.00,99.63
3639.00,99.59
3638.00,99.57
3637.00,99.56
3636.00,99.56
3635.00,99.56
3634.00,99.57
3633.00,99.60
3632.00,99.64
3631.00,99.69
3630.00,99.71
3629.00,99.71
3628.00,99.71
3627.00,99.72
3626.00,99.73
3625.00,99.71
3624.00,99.67
3623.00,99.61
3622.00,99.57
3621.00,99.56
3620.00,99.59
3619.00,99.63
3618.00,99.67
3617.00,99.68
3616.00,99.66
3615.00,99.61
3614.00,99.55
3613.00,99.51
3612.00,99.50
3611.00,99.50
3610.00,99.50
3609.00,99.49
3608.00,99.48
3607.00,99.48
3606.00,99.48
3605.00,99.47
3604.00,99.46
3603.00,99.44
3602.00,99.41
3601.00,99.38
3600.00,99.35
3599.00,99.31
3598.00,99.30
3597.00,99.31
3596.00,99.34
3595.00,99.36
3594.00,99.36
3593.00,99.33
3592.00,99.31
3591.00,99.30
3590.00,99.33
3589.00,99.37
3588.00,99.39
3587.00,99.40
3586.00,99.40
3585.00,99.39
3584.00,99.37
3583.00,99.34
3582.00,99.30
3581.00,99.25
3580.00,99.21
3579.00,99.17
3578.00,99.16
3577.00,99.15
3576.00,99.15
3575.00,99.14
3574.00,99.12
3573.00,99.10
3572.00,99.09
3571.00,99.11
3570.00,99.14
3569.00,99.18
3568.00,99.20
3567.00,99.19
3566.00,99.18
3565.00,99.17
3564.00,99.15
3563.00,99.12
3562.00,99.07
3561.00,99.02
3560.00,98.98
3559.00,98.94
3558.00,98.92
3557.00,98.90
3556.00,98.89
3555.00,98.88
3554.00,98.87
3553.00,98.86
3552.00,98.85
3551.00,98.85
3550.00,98.85
3549.00,98.84
3548.00,98.83
3547.00,98.81
3546.00,98.79
3545.00,98.77
3544.00,98.76
3543.00,98.76
3542.00,98.75
3541.00,98.74
3540.00,98.71
3539.00,98.68
3538.00,98.65
3537.00,98.63
3536.00,98.62
3535.00,98.61
3534.00,98.60
3533.00,98.58
3532.00,98.56
3531.00,98.55
3530.00,98.54
3529.00,98.55
3528.00,98.57
3527.00,98.57
3526.00,98.55
3525.00,98.54
3524.00,98.52
3523.00,98.52
3522.00,98.52
3521.00,98.50
3520.00,98.47
3519.00,98.41
3518.00,98.36
3517.00,98.33
3516.00,98.32
3515.00,98.32
3514.00,98.33
3513.00,98.35
3512.00,98.35
3511.00,98.35
3510.00,98.32
3509.00,98.28
3508.00,98.24
3507.00,98.21
3506.00,98.19
3505.00,98.19
3504.00,98.18
3503.00,98.16
3502.00,98.15
3501.00,98.14
3500.00,98.13
3499.00,98.12
3498.00,98.10
3497.00,98.09
3496.00,98.08
3495.00,98.06
3494.00,98.05
3493.00,98.03
3492.00,98.01
3491.00,98.00
3490.00,97.98
3489.00,97.96
3488.00,97.94
3487.00,97.92
3486.00,97.91
3485.00,97.91
3484.00,97.89
3483.00,97.86
3482.00,97.82
3481.00,97.78
3480.00,97.75
3479.00,97.72
3478.00,97.71
3477.00,97.70
3476.00,97.69
3475.00,97.68
3474.00,97.67
3473.00,97.67
3472.00,97.66
3471.00,97.65
3470.00,97.63
3469.00,97.61
3468.00,97.58
3467.00,97.54
3466.00,97.51
3465.00,97.48
3464.00,97.46
3463.00,97.44
3462.00,97.41
3461.00,97.38
3460.00,97.35
3459.00,97.34
3458.00,97.33
3457.00,97.31
3456.00,97.27
3455.00,97.23
3454.00,97.20
3453.00,97.17
3452.00,97.17
3451.00,97.16
3450.00,97.16
3449.00,97.14
3448.00,97.12
3447.00,97.09
3446.00,97.05
3445.00,97.02
3444.00,96.99
3443.00,96.97
3442.00,96.95
3441.00,96.93
3440.00,96.91
3439.00,96.88
3438.00,96.84
3437.00,96.80
3436.00,96.76
3435.00,96.73
3434.00,96.71
3433.00,96.70
3432.00,96.69
3431.00,96.66
3430.00,96.62
3429.00,96.58
3428.00,96.53
3427.00,96.50
3426.00,96.48
3425.00,96.47
3424.00,96.45
3423.00,96.42
3422.00,96.38
3421.00,96.34
3420.00,96.33
3419.00,96.32
3418.00,96.30
3417.00,96.27
3416.00,96.22
3415.00,96.16
3414.00,96.11
3413.00,96.07
3412.00,96.05
3411.00,96.03
3410.00,96.01
3409.00,96.00
3408.00,95.99
3407.00,95.97
3406.00,95.95
3405.00,95.93
3404.00,95.90
3403.00,95.87
3402.00,95.83
3401.00,95.80
3400.00,95.78
3399.00,95.77
3398.00,95.75
3397.00,95.74
3396.00,95.73
3395.00,95.71
3394.00,95.70
3393.00,95.68
3392.00,95.67
3391.00,95.66
3390.00,95.65
3389.00,95.64
3388.00,95.62
3387.00,95.59
3386.00,95.55
3385.00,95.52
3384.00,95.48
3383.00,95.45
3382.00,95.42
3381.00,95.39
3380.00,95.35
3379.00,95.31
3378.00,95.28
3377.00,95.25
3376.00,95.23
3375.00,95.22
3374.00,95.21
3373.00,95.19
3372.00,95.16
3371.00,95.13
3370.00,95.10
3369.00,95.07
3368.00,95.05
3367.00,95.02
3366.00,94.98
3365.00,94.94
3364.00,94.89
3363.00,94.85
3362.00,94.81
3361.00,94.77
3360.00,94.75
3359.00,94.73
3358.00,94.70
3357.00,94.66
3356.00,94.61
3355.00,94.55
3354.00,94.49
3353.00,94.43
3352.00,94.37
3351.00,94.33
3350.00,94.29
3349.00,94.27
3348.00,94.24
3347.00,94.20
3346.00,94.15
3345.00,94.09
3344.00,94.03
3343.00,93.98
3342.00,93.93
3341.00,93.90
3340.00,93.88
3339.00,93.87
3338.00,93.87
3337.00,93.86
3336.00,93.85
3335.00,93.84
3334.00,93.82
3333.00,93.80
3332.00,93.77
3331.00,93.75
3330.00,93.74
3329.00,93.75
3328.00,93.77
3327.00,93.79
3326.00,93.81
3325.00,93.83
3324.00,93.85
3323.00,93.86
3322.00,93.88
3321.00,93.91
3320.00,93.95
3319.00,94.00
3318.00,94.03
3317.00,94.04
3316.00,94.02
3315.00,94.00
3314.00,93.99
3313.00,94.00
3312.00,94.01
3311.00,94.01
3310.00,94.01
3309.00,94.02
3308.00,94.03
3307.00,94.04
3306.00,94.04
3305.00,94.03
3304.00,94.01
3303.00,93.99
3302.00,93.97
3301.00,93.96
3300.00,93.96
3299.00,93.97
3298.00,93.96
3297.00,93.95
3296.00,93.94
3295.00,93.93
3294.00,93.94
3293.00,93.95
3292.00,93.95
3291.00,93.95
3290.00,93.94
3289.00,93.93
3288.00,93.92
3287.00,93.92
3286.00,93.92
3285.00,93.92
3284.00,93.91
3283.00,93.90
3282.00,93.89
3281.00,93.90
3280.00,93.93
3279.00,93.95
3278.00,93.97
3277.00,93.98
3276.00,93.98
3275.00,93.99
3274.00,94.00
3273.00,94.02
3272.00,94.03
3271.00,94.04
3270.00,94.03
3269.00,94.03
3268.00,94.02
3267.00,94.01
3266.00,94.01
3265.00,94.03
3264.00,94.08
3263.00,94.13
3262.00,94.19
3261.00,94.23
3260.00,94.27
3259.00,94.30
3258.00,94.32
3257.00,94.35
3256.00,94.37
3255.00,94.39
3254.00,94.40
3253.00,94.41
3252.00,94.44
3251.00,94.48
3250.00,94.54
3249.00,94.60
3248.00,94.65
3247.00,94.68
3246.00,94.70
3245.00,94.72
3244.00,94.74
3243.00,94.76
3242.00,94.79
3241.00,94.81
3240.00,94.83
3239.00,94.86
3238.00,94.91
3237.00,94.95
3236.00,94.98
3235.00,94.99
3234.00,95.00
3233.00,95.01
3232.00,95.03
3231.00,95.05
3230.00,95.08
3229.00,95.10
3228.00,95.13
3227.00,95.15
3226.00,95.18
3225.00,95.20
3224.00,95.22
3223.00,95.23
3222.00,95.25
3221.00,95.28
3220.00,95.32
3219.00,95.36
3218.00,95.39
3217.00,95.40
3216.00,95.42
3215.00,95.44
3214.00,95.48
3213.00,95.53
3212.00,95.57
3211.00,95.59
3210.00,95.61
3209.00,95.63
3208.00,95.66
3207.00,95.69
3206.00,95.71
3205.00,95.73
3204.00,95.74
3203.00,95.76
3202.00,95.79
3201.00,95.83
3200.00,95.85
3199.00,95.87
3198.00,95.86
3197.00,95.86
3196.00,95.87
3195.00,95.89
3194.00,95.91
3193.00,95.94
3192.00,95.96
3191.00,95.97
3190.00,95.99
3189.00,96.02
3188.00,96.04
3187.00,96.06
3186.00,96.09
3185.00,96.11
3184.00,96.13
3183.00,96.14
3182.00,96.15
3181.00,96.18
3180.00,96.23
3179.00,96.26
3178.00,96.28
3177.00,96.28
3176.00,96.28
3175.00,96.30
3174.00,96.33
3173.00,96.35
3172.00,96.38
3171.00,96.38
3170.00,96.38
3169.00,96.38
3168.00,96.39
3167.00,96.41
3166.00,96.45
3165.00,96.49
3164.00,96.52
3163.00,96.53
3162.00,96.54
3161.00,96.54
3160.00,96.56
3159.00,96.58
3158.00,96.61
3157.00,96.63
3156.00,96.64
3155.00,96.66
3154.00,96.68
3153.00,96.70
3152.00,96.73
3151.00,96.74
3150.00,96.76
3149.00,96.76
3148.00,96.77
3147.00,96.78
3146.00,96.80
3145.00,96.83
3144.00,96.87
3143.00,96.89
3142.00,96.89
3141.00,96.88
3140.00,96.89
3139.00,96.90
3138.00,96.92
3137.00,96.92
3136.00,96.93
3135.00,96.94
3134.00,96.95
3133.00,96.97
3132.00,96.99
3131.00,97.01
3130.00,97.04
3129.00,97.06
3128.00,97.09
3127.00,97.11
3126.00,97.13
3125.00,97.13
3124.00,97.12
3123.00,97.13
3122.00,97.14
3121.00,97.16
3120.00,97.18
3119.00,97.20
3118.00,97.21
3117.00,97.21
3116.00,97.22
3115.00,97.22
3114.00,97.22
3113.00,97.22
3112.00,97.23
3111.00,97.24
3110.00,97.26
3109.00,97.31
3108.00,97.35
3107.00,97.38
3106.00,97.39
3105.00,97.40
3104.00,97.40
3103.00,97.40
3102.00,97.39
3101.00,97.38
3100.00,97.38
3099.00,97.39
3098.00,97.41
3097.00,97.44
3096.00,97.47
3095.00,97.51
3094.00,97.53
3093.00,97.55
3092.00,97.56
3091.00,97.56
3090.00,97.57
3089.00,97.58
3088.00,97.59
3087.00,97.59
3086.00,97.60
3085.00,97.60
3084.00,97.62
3083.00,97.64
3082.00,97.66
3081.00,97.67
3080.00,97.67
3079.00,97.67
3078.00,97.67
3077.00,97.67
3076.00,97.67
3075.00,97.68
3074.00,97.69
3073.00,97.72
3072.00,97.75
3071.00,97.78
3070.00,97.79
3069.00,97.79
3068.00,97.80
3067.00,97.80
3066.00,97.81
3065.00,97.82
3064.00,97.82
3063.00,97.82
3062.00,97.83
3061.00,97.84
3060.00,97.85
3059.00,97.85
3058.00,97.86
3057.00,97.87
3056.00,97.89
3055.00,97.91
3054.00,97.92
3053.00,97.92
3052.00,97.92
3051.00,97.92
3050.00,97.92
3049.00,97.93
3048.00,97.93
3047.00,97.95
3046.00,97.97
3045.00,98.00
3044.00,98.03
3043.00,98.06
3042.00,98.07
3041.00,98.07
3040.00,98.06
3039.00,98.05
3038.00,98.05
3037.00,98.06
3036.00,98.07
3035.00,98.07
3034.00,98.07
3033.00,98.07
3032.00,98.08
3031.00,98.08
3030.00,98.09
3029.00,98.11
3028.00,98.13
3027.00,98.16
3026.00,98.18
3025.00,98.19
3024.00,98.19
3023.00,98.20
3022.00,98.21
3021.00,98.23
3020.00,98.23
3019.00,98.21
3018.00,98.19
3017.00,98.16
3016.00,98.14
3015.00,98.14
3014.00,98.16
3013.00,98.19
3012.00,98.23
3011.00,98.25
3010.00,98.27
3009.00,98.27
3008.00,98.26
3007.00,98.26
3006.00,98.27
3005.00,98.28
3004.00,98.30
3003.00,98.31
3002.00,98.31
3001.00,98.31
3000.00,98.31
2999.00,98.31
2998.00,98.30
2997.00,98.30
2996.00,98.30
2995.00,98.31
2994.00,98.33
2993.00,98.34
2992.00,98.35
2991.00,98.35
2990.00,98.36
2989.00,98.37
2988.00,98.37
2987.00,98.36
2986.00,98.35
2985.00,98.35
2984.00,98.35
2983.00,98.35
2982.00,98.34
2981.00,98.33
2980.00,98.32
2979.00,98.30
2978.00,98.28
2977.00,98.26
2976.00,98.24
2975.00,98.22
2974.00,98.20
2973.00,98.17
2972.00,98.14
2971.00,98.10
2970.00,98.07
2969.00,98.05
2968.00,98.04
2967.00,98.05
2966.00,98.05
2965.00,98.05
2964.00,98.05
2963.00,98.05
2962.00,98.05
2961.00,98.05
2960.00,98.04
2959.00,98.03
2958.00,98.02
2957.00,98.02
2956.00,98.01
2955.00,98.00
2954.00,97.99
2953.00,97.97
2952.00,97.95
2951.00,97.93
2950.00,97.91
2949.00,97.88
2948.00,97.87
2947.00,97.85
2946.00,97.83
2945.00,97.81
2944.00,97.80
2943.00,97.79
2942.00,97.80
2941.00,97.79
2940.00,97.77
2939.00,97.75
2938.00,97.72
2937.00,97.70
2936.00,97.68
2935.00,97.67
2934.00,97.66
2933.00,97.66
2932.00,97.67
2931.00,97.67
2930.00,97.65
2929.00,97.62
2928.00,97.58
2927.00,97.54
2926.00,97.50
2925.00,97.47
2924.00,97.44
2923.00,97.42
2922.00,97.38
2921.00,97.35
2920.00,97.32
2919.00,97.28
2918.00,97.25
2917.00,97.21
2916.00,97.17
2915.00,97.14
2914.00,97.12
2913.00,97.11
2912.00,97.10
2911.00,97.09
2910.00,97.08
2909.00,97.06
2908.00,97.05
2907.00,97.02
2906.00,97.01
2905.00,96.99
2904.00,96.98
2903.00,96.96
2902.00,96.93
2901.00,96.91
2900.00,96.91
2899.00,96.92
2898.00,96.94
2897.00,96.97
2896.00,96.99
2895.00,97.00
2894.00,96.99
2893.00,96.98
2892.00,96.98
2891.00,96.98
2890.00,97.00
2889.00,97.01
2888.00,97.03
2887.00,97.04
2886.00,97.06
2885.00,97.09
2884.00,97.12
2883.00,97.16
2882.00,97.18
2881.00,97.19
2880.00,97.19
2879.00,97.19
2878.00,97.19
2877.00,97.20
2876.00,97.21
2875.00,97.22
2874.00,97.22
2873.00,97.22
2872.00,97.21
2871.00,97.21
2870.00,97.21
2869.00,97.22
2868.00,97.24
2867.00,97.24
2866.00,97.25
2865.00,97.25
2864.00,97.26
2863.00,97.26
2862.00,97.26
2861.00,97.26
2860.00,97.27
2859.00,97.28
2858.00,97.30
2857.00,97.31
2856.00,97.31
2855.00,97.31
2854.00,97.31
2853.00,97.31
2852.00,97.31
2851.00,97.32
2850.00,97.32
2849.00,97.34
2848.00,97.37
2847.00,97.42
2846.00,97.48
2845.00,97.55
2844.00,97.60
2843.00,97.64
2842.00,97.66
2841.00,97.69
2840.00,97.71
2839.00,97.73
2838.00,97.75
2837.00,97.76
2836.00,97.79
2835.00,97.81
2834.00,97.84
2833.00,97.85
2832.00,97.86
2831.00,97.86
2830.00,97.88
2829.00,97.91
2828.00,97.95
2827.00,97.98
2826.00,98.00
2825.00,98.01
2824.00,98.02
2823.00,98.02
2822.00,98.03
2821.00,98.04
2820.00,98.05
2819.00,98.07
2818.00,98.09
2817.00,98.11
2816.00,98.11
2815.00,98.10
2814.00,98.10
2813.00,98.10
2812.00,98.11
2811.00,98.13
2810.00,98.14
2809.00,98.15
2808.00,98.16
2807.00,98.16
2806.00,98.16
2805.00,98.17
2804.00,98.17
2803.00,98.18
2802.00,98.18
2801.00,98.19
2800.00,98.20
2799.00,98.21
2798.00,98.23
2797.00,98.25
2796.00,98.27
2795.00,98.28
2794.00,98.29
2793.00,98.28
2792.00,98.27
2791.00,98.25
2790.00,98.24
2789.00,98.25
2788.00,98.26
2787.00,98.27
2786.00,98.27
2785.00,98.27
2784.00,98.28
2783.00,98.29
2782.00,98.31
2781.00,98.31
2780.00,98.31
2779.00,98.31
2778.00,98.32
2777.00,98.33
2776.00,98.33
2775.00,98.34
2774.00,98.34
2773.00,98.35
2772.00,98.36
2771.00,98.37
2770.00,98.38
2769.00,98.39
2768.00,98.39
2767.00,98.38
2766.00,98.37
2765.00,98.36
2764.00,98.37
2763.00,98.37
2762.00,98.38
2761.00,98.38
2760.00,98.38
2759.00,98.37
2758.00,98.36
2757.00,98.35
2756.00,98.36
2755.00,98.37
2754.00,98.38
2753.00,98.39
2752.00,98.40
2751.00,98.40
2750.00,98.39
2749.00,98.38
2748.00,98.36
2747.00,98.36
2746.00,98.36
2745.00,98.38
2744.00,98.38
2743.00,98.38
2742.00,98.38
2741.00,98.38
2740.00,98.38
2739.00,98.39
2738.00,98.39
2737.00,98.37
2736.00,98.36
2735.00,98.35
2734.00,98.36
2733.00,98.37
2732.00,98.39
2731.00,98.40
2730.00,98.40
2729.00,98.41
2728.00,98.42
2727.00,98.42
2726.00,98.43
2725.00,98.43
2724.00,98.43
2723.00,98.43
2722.00,98.43
2721.00,98.43
2720.00,98.44
2719.00,98.45
2718.00,98.45
2717.00,98.45
2716.00,98.44
2715.00,98.43
2714.00,98.43
2713.00,98.43
2712.00,98.43
2711.00,98.44
2710.00,98.46
2709.00,98.47
2708.00,98.47
2707.00,98.47
2706.00,98.47
2705.00,98.49
2704.00,98.50
2703.00,98.51
2702.00,98.51
2701.00,98.50
2700.00,98.49
2699.00,98.48
2698.00,98.48
2697.00,98.49
2696.00,98.49
2695.00,98.49
2694.00,98.49
2693.00,98.49
2692.00,98.51
2691.00,98.53
2690.00,98.54
2689.00,98.54
2688.00,98.53
2687.00,98.52
2686.00,98.52
2685.00,98.51
2684.00,98.52
2683.00,98.52
2682.00,98.53
2681.00,98.53
2680.00,98.53
2679.00,98.53
2678.00,98.54
2677.00,98.54
2676.00,98.55
2675.00,98.56
2674.00,98.57
2673.00,98.58
2672.00,98.59
2671.00,98.60
2670.00,98.61
2669.00,98.62
2668.00,98.62
2667.00,98.62
2666.00,98.61
2665.00,98.60
2664.00,98.59
2663.00,98.57
2662.00,98.57
2661.00,98.56
2660.00,98.56
2659.00,98.56
2658.00,98.56
2657.00,98.56
2656.00,98.55
2655.00,98.53
2654.00,98.52
2653.00,98.50
2652.00,98.50
2651.00,98.51
2650.00,98.52
2649.00,98.53
2648.00,98.52
2647.00,98.51
2646.00,98.50
2645.00,98.48
2644.00,98.46
2643.00,98.44
2642.00,98.43
2641.00,98.42
2640.00,98.41
2639.00,98.40
2638.00,98.40
2637.00,98.41
2636.00,98.41
2635.00,98.41
2634.00,98.40
2633.00,98.39
2632.00,98.39
2631.00,98.38
2630.00,98.38
2629.00,98.37
2628.00,98.36
2627.00,98.35
2626.00,98.34
2625.00,98.33
2624.00,98.32
2623.00,98.32
2622.00,98.33
2621.00,98.35
2620.00,98.36
2619.00,98.36
2618.00,98.35
2617.00,98.34
2616.00,98.32
2615.00,98.31
2614.00,98.30
2613.00,98.30
2612.00,98.31
2611.00,98.32
2610.00,98.34
2609.00,98.34
2608.00,98.33
2607.00,98.30
2606.00,98.27
2605.00,98.26
2604.00,98.25
2603.00,98.24
2602.00,98.24
2601.00,98.24
2600.00,98.25
2599.00,98.26
2598.00,98.27
2597.00,98.27
2596.00,98.27
2595.00,98.27
2594.00,98.28
2593.00,98.28
2592.00,98.27
2591.00,98.25
2590.00,98.24
2589.00,98.23
2588.00,98.23
2587.00,98.23
2586.00,98.22
2585.00,98.20
2584.00,98.18
2583.00,98.16
2582.00,98.15
2581.00,98.15
2580.00,98.17
2579.00,98.20
2578.00,98.21
2577.00,98.21
2576.00,98.19
2575.00,98.16
2574.00,98.14
2573.00,98.13
2572.00,98.14
2571.00,98.15
2570.00,98.15
2569.00,98.16
2568.00,98.17
2567.00,98.18
2566.00,98.18
2565.00,98.16
2564.00,98.14
2563.00,98.13
2562.00,98.14
2561.00,98.16
2560.00,98.17
2559.00,98.17
2558.00,98.16
2557.00,98.16
2556.00,98.16
2555.00,98.18
2554.00,98.18
2553.00,98.17
2552.00,98.15
2551.00,98.14
2550.00,98.15
2549.00,98.17
2548.00,98.18
2547.00,98.18
2546.00,98.19
2545.00,98.19
2544.00,98.18
2543.00,98.17
2542.00,98.14
2541.00,98.11
2540.00,98.10
2539.00,98.09
2538.00,98.08
2537.00,98.07
2536.00,98.06
2535.00,98.06
2534.00,98.07
2533.00,98.08
2532.00,98.08
2531.00,98.08
2530.00,98.10
2529.00,98.13
2528.00,98.15
2527.00,98.15
2526.00,98.15
2525.00,98.14
2524.00,98.13
2523.00,98.11
2522.00,98.10
2521.00,98.10
2520.00,98.11
2519.00,98.12
2518.00,98.13
2517.00,98.13
2516.00,98.12
2515.00,98.12
2514.00,98.12
2513.00,98.13
2512.00,98.14
2511.00,98.15
2510.00,98.16
2509.00,98.17
2508.00,98.18
2507.00,98.19
2506.00,98.19
2505.00,98.19
2504.00,98.19
2503.00,98.19
2502.00,98.17
2501.00,98.16
2500.00,98.15
2499.00,98.15
2498.00,98.17
2497.00,98.19
2496.00,98.20
2495.00,98.21
2494.00,98.20
2493.00,98.18
2492.00,98.14
2491.00,98.12
2490.00,98.11
2489.00,98.11
2488.00,98.13
2487.00,98.14
2486.00,98.15
2485.00,98.16
2484.00,98.16
2483.00,98.18
2482.00,98.19
2481.00,98.20
2480.00,98.20
2479.00,98.20
2478.00,98.21
2477.00,98.22
2476.00,98.22
2475.00,98.20
2474.00,98.17
2473.00,98.15
2472.00,98.14
2471.00,98.15
2470.00,98.16
2469.00,98.17
2468.00,98.18
2467.00,98.20
2466.00,98.22
2465.00,98.23
2464.00,98.24
2463.00,98.24
2462.00,98.22
2461.00,98.21
2460.00,98.21
2459.00,98.21
2458.00,98.22
2457.00,98.22
2456.00,98.20
2455.00,98.19
2454.00,98.17
2453.00,98.15
2452.00,98.14
2451.00,98.14
2450.00,98.17
2449.00,98.21
2448.00,98.24
2447.00,98.25
2446.00,98.25
2445.00,98.25
2444.00,98.26
2443.00,98.27
2442.00,98.28
2441.00,98.29
2440.00,98.28
2439.00,98.26
2438.00,98.23
2437.00,98.21
2436.00,98.20
2435.00,98.21
2434.00,98.24
2433.00,98.27
2432.00,98.29
2431.00,98.29
2430.00,98.30
2429.00,98.30
2428.00,98.31
2427.00,98.33
2426.00,98.34
2425.00,98.34
2424.00,98.34
2423.00,98.34
2422.00,98.34
2421.00,98.32
2420.00,98.31
2419.00,98.31
2418.00,98.31
2417.00,98.32
2416.00,98.32
2415.00,98.31
2414.00,98.30
2413.00,98.29
2412.00,98.29
2411.00,98.30
2410.00,98.31
2409.00,98.33
2408.00,98.35
2407.00,98.34
2406.00,98.33
2405.00,98.32
2404.00,98.34
2403.00,98.38
2402.00,98.42
2401.00,98.45
2400.00,98.46
2399.00,98.46
2398.00,98.46
2397.00,98.45
2396.00,98.45
2395.00,98.45
2394.00,98.46
2393.00,98.47
2392.00,98.48
2391.00,98.48
2390.00,98.48
2389.00,98.49
2388.00,98.50
2387.00,98.53
2386.00,98.56
2385.00,98.58
2384.00,98.59
2383.00,98.59
2382.00,98.59
2381.00,98.59
2380.00,98.61
2379.00,98.64
2378.00,98.67
2377.00,98.69
2376.00,98.71
2375.00,98.71
2374.00,98.70
2373.00,98.70
2372.00,98.71
2371.00,98.72
2370.00,98.75
2369.00,98.76
2368.00,98.74
2367.00,98.71
2366.00,98.68
2365.00,98.66
2364.00,98.65
2363.00,98.64
2362.00,98.65
2361.00,98.69
2360.00,98.73
2359.00,98.75
2358.00,98.74
2357.00,98.71
2356.00,98.67
2355.00,98.66
2354.00,98.66
2353.00,98.69
2352.00,98.72
2351.00,98.75
2350.00,98.75
2349.00,98.74
2348.00,98.73
2347.00,98.72
2346.00,98.72
2345.00,98.71
2344.00,98.71
2343.00,98.71
2342.00,98.71
2341.00,98.70
2340.00,98.70
2339.00,98.71
2338.00,98.73
2337.00,98.76
2336.00,98.76
2335.00,98.74
2334.00,98.70
2333.00,98.66
2332.00,98.66
2331.00,98.68
2330.00,98.70
2329.00,98.71
2328.00,98.71
2327.00,98.69
2326.00,98.65
2325.00,98.60
2324.00,98.55
2323.00,98.53
2322.00,98.53
2321.00,98.54
2320.00,98.55
2319.00,98.55
2318.00,98.54
2317.00,98.53
2316.00,98.51
2315.00,98.50
2314.00,98.49
2313.00,98.49
2312.00,98.48
2311.00,98.47
2310.00,98.45
2309.00,98.45
2308.00,98.45
2307.00,98.45
2306.00,98.45
2305.00,98.43
2304.00,98.40
2303.00,98.36
2302.00,98.32
2301.00,98.31
2300.00,98.31
2299.00,98.32
2298.00,98.32
2297.00,98.32
2296.00,98.30
2295.00,98.29
2294.00,98.27
2293.00,98.25
2292.00,98.21
2291.00,98.16
2290.00,98.11
2289.00,98.07
2288.00,98.06
2287.00,98.06
2286.00,98.04
2285.00,97.99
2284.00,97.93
2283.00,97.88
2282.00,97.86
2281.00,97.86
2280.00,97.89
2279.00,97.90
2278.00,97.90
2277.00,97.87
2276.00,97.84
2275.00,97.82
2274.00,97.81
2273.00,97.80
2272.00,97.80
2271.00,97.78
2270.00,97.76
2269.00,97.74
2268.00,97.72
2267.00,97.70
2266.00,97.68
2265.00,97.67
2264.00,97.66
2263.00,97.66
2262.00,97.65
2261.00,97.66
2260.00,97.66
2259.00,97.65
2258.00,97.62
2257.00,97.57
2256.00,97.51
2255.00,97.48
2254.00,97.48
2253.00,97.51
2252.00,97.54
2251.00,97.56
2250.00,97.56
2249.00,97.54
2248.00,97.52
2247.00,97.51
2246.00,97.50
2245.00,97.50
2244.00,97.48
2243.00,97.45
2242.00,97.42
2241.00,97.42
2240.00,97.43
2239.00,97.45
2238.00,97.45
2237.00,97.43
2236.00,97.40
2235.00,97.34
2234.00,97.27
2233.00,97.22
2232.00,97.20
2231.00,97.20
2230.00,97.22
2229.00,97.21
2228.00,97.19
2227.00,97.18
2226.00,97.18
2225.00,97.18
2224.00,97.18
2223.00,97.17
2222.00,97.17
2221.00,97.19
2220.00,97.20
2219.00,97.19
2218.00,97.16
2217.00,97.13
2216.00,97.11
2215.00,97.07
2214.00,97.04
2213.00,97.02
2212.00,97.03
2211.00,97.07
2210.00,97.11
2209.00,97.11
2208.00,97.08
2207.00,97.01
2206.00,96.95
2205.00,96.90
2204.00,96.89
2203.00,96.89
2202.00,96.89
2201.00,96.89
2200.00,96.89
2199.00,96.89
2198.00,96.88
2197.00,96.89
2196.00,96.89
2195.00,96.87
2194.00,96.82
2193.00,96.78
2192.00,96.76
2191.00,96.74
2190.00,96.71
2189.00,96.67
2188.00,96.66
2187.00,96.67
2186.00,96.69
2185.00,96.68
2184.00,96.65
2183.00,96.58
2182.00,96.50
2181.00,96.44
2180.00,96.42
2179.00,96.45
2178.00,96.48
2177.00,96.48
2176.00,96.46
2175.00,96.43
2174.00,96.41
2173.00,96.41
2172.00,96.41
2171.00,96.41
2170.00,96.37
2169.00,96.32
2168.00,96.27
2167.00,96.25
2166.00,96.23
2165.00,96.19
2164.00,96.11
2163.00,96.03
2162.00,95.97
2161.00,95.95
2160.00,96.00
2159.00,96.11
2158.00,96.24
2157.00,96.34
2156.00,96.40
2155.00,96.43
2154.00,96.47
2153.00,96.52
2152.00,96.59
2151.00,96.65
2150.00,96.70
2149.00,96.74
2148.00,96.79
2147.00,96.83
2146.00,96.88
2145.00,96.94
2144.00,97.00
2143.00,97.06
2142.00,97.10
2141.00,97.11
2140.00,97.09
2139.00,97.07
2138.00,97.09
2137.00,97.15
2136.00,97.25
2135.00,97.34
2134.00,97.42
2133.00,97.47
2132.00,97.53
2131.00,97.58
2130.00,97.63
2129.00,97.66
2128.00,97.67
2127.00,97.67
2126.00,97.67
2125.00,97.66
2124.00,97.65
2123.00,97.63
2122.00,97.60
2121.00,97.59
2120.00,97.60
2119.00,97.63
2118.00,97.66
2117.00,97.67
2116.00,97.67
2115.00,97.65
2114.00,97.63
2113.00,97.59
2112.00,97.56
2111.00,97.54
2110.00,97.55
2109.00,97.58
2108.00,97.62
2107.00,97.64
2106.00,97.65
2105.00,97.65
2104.00,97.64
2103.00,97.61
2102.00,97.58
2101.00,97.55
2100.00,97.55
2099.00,97.56
2098.00,97.58
2097.00,97.58
2096.00,97.58
2095.00,97.58
2094.00,97.59
2093.00,97.60
2092.00,97.61
2091.00,97.61
2090.00,97.60
2089.00,97.58
2088.00,97.58
2087.00,97.59
2086.00,97.60
2085.00,97.59
2084.00,97.57
2083.00,97.53
2082.00,97.48
2081.00,97.44
2080.00,97.41
2079.00,97.41
2078.00,97.42
2077.00,97.46
2076.00,97.50
2075.00,97.52
2074.00,97.52
2073.00,97.48
2072.00,97.43
2071.00,97.41
2070.00,97.43
2069.00,97.45
2068.00,97.46
2067.00,97.45
2066.00,97.44
2065.00,97.42
2064.00,97.40
2063.00,97.36
2062.00,97.31
2061.00,97.27
2060.00,97.24
2059.00,97.23
2058.00,97.22
2057.00,97.20
2056.00,97.18
2055.00,97.19
2054.00,97.19
2053.00,97.17
2052.00,97.10
2051.00,97.00
2050.00,96.90
2049.00,96.83
2048.00,96.79
2047.00,96.78
2046.00,96.79
2045.00,96.78
2044.00,96.76
2043.00,96.73
2042.00,96.72
2041.00,96.71
2040.00,96.68
2039.00,96.61
2038.00,96.53
2037.00,96.44
2036.00,96.37
2035.00,96.33
2034.00,96.32
2033.00,96.35
2032.00,96.39
2031.00,96.44
2030.00,96.51
2029.00,96.58
2028.00,96.61
2027.00,96.59
2026.00,96.58
2025.00,96.61
2024.00,96.69
2023.00,96.76
2022.00,96.78
2021.00,96.72
2020.00,96.62
2019.00,96.50
2018.00,96.44
2017.00,96.44
2016.00,96.49
2015.00,96.55
2014.00,96.58
2013.00,96.62
2012.00,96.66
2011.00,96.69
2010.00,96.70
2009.00,96.70
2008.00,96.72
2007.00,96.78
2006.00,96.84
2005.00,96.88
2004.00,96.89
2003.00,96.91
2002.00,96.95
2001.00,97.02
2000.00,97.07
1999.00,97.09
1998.00,97.07
1997.00,97.03
1996.00,97.01
1995.00,97.00
1994.00,97.02
1993.00,97.03
1992.00,97.02
1991.00,96.98
1990.00,96.94
1989.00,96.92
1988.00,96.92
1987.00,96.92
1986.00,96.91
1985.00,96.87
1984.00,96.81
1983.00,96.75
1982.00,96.70
1981.00,96.67
1980.00,96.68
1979.00,96.70
1978.00,96.72
1977.00,96.73
1976.00,96.74
1975.00,96.77
1974.00,96.84
1973.00,96.90
1972.00,96.91
1971.00,96.88
1970.00,96.86
1969.00,96.86
1968.00,96.88
1967.00,96.92
1966.00,96.96
1965.00,97.02
1964.00,97.08
1963.00,97.14
1962.00,97.19
1961.00,97.21
1960.00,97.22
1959.00,97.23
1958.00,97.26
1957.00,97.30
1956.00,97.35
1955.00,97.39
1954.00,97.40
1953.00,97.40
1952.00,97.40
1951.00,97.41
1950.00,97.44
1949.00,97.48
1948.00,97.53
1947.00,97.58
1946.00,97.60
1945.00,97.60
1944.00,97.60
1943.00,97.61
1942.00,97.62
1941.00,97.63
1940.00,97.63
1939.00,97.65
1938.00,97.68
1937.00,97.72
1936.00,97.76
1935.00,97.79
1934.00,97.82
1933.00,97.85
1932.00,97.88
1931.00,97.89
1930.00,97.88
1929.00,97.87
1928.00,97.88
1927.00,97.90
1926.00,97.93
1925.00,97.94
1924.00,97.95
1923.00,97.96
1922.00,98.00
1921.00,98.05
1920.00,98.09
1919.00,98.11
1918.00,98.10
1917.00,98.07
1916.00,98.04
1915.00,98.04
1914.00,98.05
1913.00,98.08
1912.00,98.10
1911.00,98.13
1910.00,98.15
1909.00,98.16
1908.00,98.17
1907.00,98.17
1906.00,98.18
1905.00,98.19
1904.00,98.19
1903.00,98.19
1902.00,98.19
1901.00,98.20
1900.00,98.22
1899.00,98.26
1898.00,98.29
1897.00,98.31
1896.00,98.31
1895.00,98.30
1894.00,98.29
1893.00,98.31
1892.00,98.33
1891.00,98.35
1890.00,98.34
1889.00,98.32
1888.00,98.29
1887.00,98.27
1886.00,98.25
1885.00,98.25
1884.00,98.28
1883.00,98.31
1882.00,98.34
1881.00,98.36
1880.00,98.37
1879.00,98.36
1878.00,98.35
1877.00,98.34
1876.00,98.34
1875.00,98.34
1874.00,98.35
1873.00,98.37
1872.00,98.40
1871.00,98.43
1870.00,98.45
1869.00,98.46
1868.00,98.45
1867.00,98.44
1866.00,98.44
1865.00,98.46
1864.00,98.48
1863.00,98.49
1862.00,98.49
1861.00,98.49
1860.00,98.50
1859.00,98.51
1858.00,98.51
1857.00,98.51
1856.00,98.51
1855.00,98.52
1854.00,98.53
1853.00,98.54
1852.00,98.55
1851.00,98.56
1850.00,98.56
1849.00,98.56
1848.00,98.58
1847.00,98.60
1846.00,98.60
1845.00,98.58
1844.00,98.57
1843.00,98.57
1842.00,98.57
1841.00,98.56
1840.00,98.56
1839.00,98.56
1838.00,98.57
1837.00,98.58
1836.00,98.59
1835.00,98.60
1834.00,98.61
1833.00,98.61
1832.00,98.62
1831.00,98.64
1830.00,98.67
1829.00,98.70
1828.00,98.69
1827.00,98.67
1826.00,98.65
1825.00,98.65
1824.00,98.66
1823.00,98.66
1822.00,98.64
1821.00,98.63
1820.00,98.64
1819.00,98.66
1818.00,98.70
1817.00,98.72
1816.00,98.74
1815.00,98.75
1814.00,98.75
1813.00,98.74
1812.00,98.74
1811.00,98.74
1810.00,98.74
1809.00,98.75
1808.00,98.76
1807.00,98.77
1806.00,98.77
1805.00,98.77
1804.00,98.77
1803.00,98.78
1802.00,98.79
1801.00,98.80
1800.00,98.79
1799.00,98.77
1798.00,98.76
1797.00,98.76
1796.00,98.77
1795.00,98.79
1794.00,98.82
1793.00,98.84
1792.00,98.85
1791.00,98.85
1790.00,98.83
1789.00,98.81
1788.00,98.79
1787.00,98.78
1786.00,98.77
1785.00,98.77
1784.00,98.77
1783.00,98.79
1782.00,98.81
1781.00,98.83
1780.00,98.84
1779.00,98.85
1778.00,98.86
1777.00,98.87
1776.00,98.87
1775.00,98.88
1774.00,98.89
1773.00,98.88
1772.00,98.86
1771.00,98.84
1770.00,98.83
1769.00,98.81
1768.00,98.79
1767.00,98.80
1766.00,98.82
1765.00,98.84
1764.00,98.86
1763.00,98.85
1762.00,98.84
1761.00,98.83
1760.00,98.82
1759.00,98.81
1758.00,98.80
1757.00,98.79
1756.00,98.79
1755.00,98.80
1754.00,98.80
1753.00,98.80
1752.00,98.79
1751.00,98.77
1750.00,98.77
1749.00,98.77
1748.00,98.79
1747.00,98.79
1746.00,98.78
1745.00,98.77
1744.00,98.75
1743.00,98.74
1742.00,98.73
1741.00,98.72
1740.00,98.70
1739.00,98.70
1738.00,98.71
1737.00,98.72
1736.00,98.72
1735.00,98.72
1734.00,98.71
1733.00,98.71
1732.00,98.71
1731.00,98.71
1730.00,98.70
1729.00,98.70
1728.00,98.70
1727.00,98.70
1726.00,98.70
1725.00,98.70
1724.00,98.70
1723.00,98.69
1722.00,98.68
1721.00,98.67
1720.00,98.67
1719.00,98.69
1718.00,98.71
1717.00,98.72
1716.00,98.70
1715.00,98.68
1714.00,98.67
1713.00,98.66
1712.00,98.67
1711.00,98.67
1710.00,98.66
1709.00,98.65
1708.00,98.64
1707.00,98.64
1706.00,98.65
1705.00,98.65
1704.00,98.64
1703.00,98.62
1702.00,98.59
1701.00,98.56
1700.00,98.55
1699.00,98.58
1698.00,98.60
1697.00,98.59
1696.00,98.57
1695.00,98.57
1694.00,98.58
1693.00,98.57
1692.00,98.55
1691.00,98.53
1690.00,98.51
1689.00,98.49
1688.00,98.47
1687.00,98.45
1686.00,98.43
1685.00,98.41
1684.00,98.41
1683.00,98.41
1682.00,98.39
1681.00,98.34
1680.00,98.31
1679.00,98.29
1678.00,98.26
1677.00,98.24
1676.00,98.21
1675.00,98.18
1674.00,98.16
1673.00,98.15
1672.00,98.14
1671.00,98.13
1670.00,98.12
1669.00,98.10
1668.00,98.07
1667.00,98.04
1666.00,98.01
1665.00,97.98
1664.00,97.96
1663.00,97.95
1662.00,97.95
1661.00,97.94
1660.00,97.93
1659.00,97.91
1658.00,97.89
1657.00,97.86
1656.00,97.84
1655.00,97.81
1654.00,97.77
1653.00,97.75
1652.00,97.75
1651.00,97.75
1650.00,97.73
1649.00,97.72
1648.00,97.72
1647.00,97.72
1646.00,97.71
1645.00,97.69
1644.00,97.67
1643.00,97.65
1642.00,97.65
1641.00,97.66
1640.00,97.66
1639.00,97.66
1638.00,97.67
1637.00,97.67
1636.00,97.66
1635.00,97.65
1634.00,97.65
1633.00,97.66
1632.00,97.67
1631.00,97.68
1630.00,97.70
1629.00,97.71
1628.00,97.72
1627.00,97.73
1626.00,97.74
1625.00,97.76
1624.00,97.76
1623.00,97.76
1622.00,97.75
1621.00,97.75
1620.00,97.74
1619.00,97.73
1618.00,97.73
1617.00,97.74
1616.00,97.76
1615.00,97.79
1614.00,97.81
1613.00,97.82
1612.00,97.83
1611.00,97.84
1610.00,97.85
1609.00,97.86
1608.00,97.86
1607.00,97.86
1606.00,97.87
1605.00,97.87
1604.00,97.89
1603.00,97.90
1602.00,97.89
1601.00,97.89
1600.00,97.89
1599.00,97.90
1598.00,97.93
1597.00,97.95
1596.00,97.98
1595.00,98.01
1594.00,98.04
1593.00,98.06
1592.00,98.07
1591.00,98.06
1590.00,98.06
1589.00,98.06
1588.00,98.08
1587.00,98.10
1586.00,98.11
1585.00,98.12
1584.00,98.12
1583.00,98.13
1582.00,98.14
1581.00,98.15
1580.00,98.18
1579.00,98.20
1578.00,98.21
1577.00,98.22
1576.00,98.24
1575.00,98.27
1574.00,98.28
1573.00,98.28
1572.00,98.29
1571.00,98.31
1570.00,98.34
1569.00,98.38
1568.00,98.40
1567.00,98.41
1566.00,98.41
1565.00,98.43
1564.00,98.46
1563.00,98.48
1562.00,98.50
1561.00,98.53
1560.00,98.55
1559.00,98.55
1558.00,98.55
1557.00,98.53
1556.00,98.50
1555.00,98.49
1554.00,98.49
1553.00,98.50
1552.00,98.51
1551.00,98.51
1550.00,98.51
1549.00,98.51
1548.00,98.50
1547.00,98.50
1546.00,98.50
1545.00,98.50
1544.00,98.50
1543.00,98.49
1542.00,98.48
1541.00,98.49
1540.00,98.52
1539.00,98.55
1538.00,98.56
1537.00,98.55
1536.00,98.54
1535.00,98.54
1534.00,98.55
1533.00,98.55
1532.00,98.53
1531.00,98.53
1530.00,98.53
1529.00,98.54
1528.00,98.55
1527.00,98.56
1526.00,98.56
1525.00,98.57
1524.00,98.58
1523.00,98.58
1522.00,98.58
1521.00,98.58
1520.00,98.57
1519.00,98.57
1518.00,98.57
1517.00,98.58
1516.00,98.58
1515.00,98.58
1514.00,98.58
1513.00,98.58
1512.00,98.58
1511.00,98.58
1510.00,98.59
1509.00,98.58
1508.00,98.57
1507.00,98.57
1506.00,98.59
1505.00,98.60
1504.00,98.60
1503.00,98.61
1502.00,98.62
1501.00,98.64
1500.00,98.65
1499.00,98.67
1498.00,98.68
1497.00,98.69
1496.00,98.68
1495.00,98.65
1494.00,98.64
1493.00,98.63
1492.00,98.63
1491.00,98.61
1490.00,98.59
1489.00,98.57
1488.00,98.54
1487.00,98.50
1486.00,98.45
1485.00,98.40
1484.00,98.35
1483.00,98.31
1482.00,98.27
1481.00,98.24
1480.00,98.22
1479.00,98.22
1478.00,98.22
1477.00,98.22
1476.00,98.21
1475.00,98.18
1474.00,98.14
1473.00,98.10
1472.00,98.06
1471.00,98.04
1470.00,98.01
1469.00,97.98
1468.00,97.93
1467.00,97.88
1466.00,97.81
1465.00,97.75
1464.00,97.68
1463.00,97.64
1462.00,97.61
1461.00,97.58
1460.00,97.56
1459.00,97.52
1458.00,97.45
1457.00,97.37
1456.00,97.31
1455.00,97.29
1454.00,97.29
1453.00,97.29
1452.00,97.28
1451.00,97.27
1450.00,97.25
1449.00,97.22
1448.00,97.19
1447.00,97.18
1446.00,97.18
1445.00,97.18
1444.00,97.16
1443.00,97.15
1442.00,97.13
1441.00,97.11
1440.00,97.07
1439.00,97.02
1438.00,96.95
1437.00,96.86
1436.00,96.76
1435.00,96.68
1434.00,96.59
1433.00,96.50
1432.00,96.41
1431.00,96.33
1430.00,96.27
1429.00,96.23
1428.00,96.20
1427.00,96.19
1426.00,96.19
1425.00,96.22
1424.00,96.27
1423.00,96.33
1422.00,96.40
1421.00,96.46
1420.00,96.54
1419.00,96.66
1418.00,96.78
1417.00,96.88
1416.00,96.95
1415.00,97.02
1414.00,97.07
1413.00,97.11
1412.00,97.16
1411.00,97.20
1410.00,97.24
1409.00,97.27
1408.00,97.29
1407.00,97.31
1406.00,97.33
1405.00,97.36
1404.00,97.39
1403.00,97.42
1402.00,97.45
1401.00,97.47
1400.00,97.48
1399.00,97.50
1398.00,97.52
1397.00,97.54
1396.00,97.57
1395.00,97.60
1394.00,97.62
1393.00,97.63
1392.00,97.62
1391.00,97.60
1390.00,97.57
1389.00,97.54
1388.00,97.51
1387.00,97.47
1386.00,97.41
1385.00,97.34
1384.00,97.26
1383.00,97.16
1382.00,97.06
1381.00,96.96
1380.00,96.84
1379.00,96.73
1378.00,96.63
1377.00,96.53
1376.00,96.42
1375.00,96.29
1374.00,96.15
1373.00,96.01
1372.00,95.90
1371.00,95.83
1370.00,95.81
1369.00,95.82
1368.00,95.84
1367.00,95.86
1366.00,95.87
1365.00,95.86
1364.00,95.85
1363.00,95.84
1362.00,95.83
1361.00,95.83
1360.00,95.83
1359.00,95.84
1358.00,95.86
1357.00,95.86
1356.00,95.88
1355.00,95.89
1354.00,95.93
1353.00,95.97
1352.00,96.03
1351.00,96.08
1350.00,96.14
1349.00,96.16
1348.00,96.16
1347.00,96.12
1346.00,96.05
1345.00,95.97
1344.00,95.87
1343.00,95.78
1342.00,95.69
1341.00,95.59
1340.00,95.49
1339.00,95.39
1338.00,95.30
1337.00,95.24
1336.00,95.18
1335.00,95.15
1334.00,95.15
1333.00,95.18
1332.00,95.24
1331.00,95.30
1330.00,95.37
1329.00,95.44
1328.00,95.49
1327.00,95.52
1326.00,95.51
1325.00,95.47
1324.00,95.41
1323.00,95.32
1322.00,95.22
1321.00,95.10
1320.00,94.97
1319.00,94.82
1318.00,94.69
1317.00,94.59
1316.00,94.53
1315.00,94.52
1314.00,94.56
1313.00,94.63
1312.00,94.72
1311.00,94.82
1310.00,94.94
1309.00,95.07
1308.00,95.21
1307.00,95.37
1306.00,95.53
1305.00,95.67
1304.00,95.81
1303.00,95.93
1302.00,96.05
1301.00,96.16
1300.00,96.27
1299.00,96.38
1298.00,96.46
1297.00,96.52
1296.00,96.56
1295.00,96.59
1294.00,96.60
1293.00,96.60
1292.00,96.59
1291.00,96.59
1290.00,96.59
1289.00,96.60
1288.00,96.59
1287.00,96.58
1286.00,96.54
1285.00,96.48
1284.00,96.41
1283.00,96.35
1282.00,96.29
1281.00,96.27
1280.00,96.27
1279.00,96.30
1278.00,96.35
1277.00,96.40
1276.00,96.46
1275.00,96.51
1274.00,96.56
1273.00,96.61
1272.00,96.66
1271.00,96.70
1270.00,96.75
1269.00,96.79
1268.00,96.82
1267.00,96.85
1266.00,96.88
1265.00,96.91
1264.00,96.94
1263.00,96.97
1262.00,97.01
1261.00,97.03
1260.00,97.05
1259.00,97.07
1258.00,97.10
1257.00,97.12
1256.00,97.13
1255.00,97.13
1254.00,97.13
1253.00,97.12
1252.00,97.10
1251.00,97.08
1250.00,97.06
1249.00,97.04
1248.00,97.03
1247.00,97.03
1246.00,97.06
1245.00,97.09
1244.00,97.12
1243.00,97.15
1242.00,97.17
1241.00,97.18
1240.00,97.19
1239.00,97.20
1238.00,97.20
1237.00,97.20
1236.00,97.20
1235.00,97.20
1234.00,97.23
1233.00,97.28
1232.00,97.35
1231.00,97.41
1230.00,97.46
1229.00,97.51
1228.00,97.56
1227.00,97.62
1226.00,97.68
1225.00,97.74
1224.00,97.81
1223.00,97.87
1222.00,97.92
1221.00,97.96
1220.00,98.00
1219.00,98.04
1218.00,98.08
1217.00,98.10
1216.00,98.12
1215.00,98.12
1214.00,98.11
1213.00,98.08
1212.00,98.00
1211.00,97.88
1210.00,97.74
1209.00,97.61
1208.00,97.51
1207.00,97.43
1206.00,97.38
1205.00,97.34
1204.00,97.33
1203.00,97.33
1202.00,97.36
1201.00,97.39
1200.00,97.42
1199.00,97.47
1198.00,97.53
1197.00,97.60
1196.00,97.69
1195.00,97.79
1194.00,97.90
1193.00,97.99
1192.00,98.07
1191.00,98.13
1190.00,98.17
1189.00,98.21
1188.00,98.22
1187.00,98.21
1186.00,98.20
1185.00,98.18
1184.00,98.15
1183.00,98.10
1182.00,98.02
1181.00,97.94
1180.00,97.85
1179.00,97.76
1178.00,97.67
1177.00,97.57
1176.00,97.45
1175.00,97.29
1174.00,97.09
1173.00,96.85
1172.00,96.58
1171.00,96.26
1170.00,95.90
1169.00,95.51
1168.00,95.09
1167.00,94.67
1166.00,94.27
1165.00,93.90
1164.00,93.57
1163.00,93.32
1162.00,93.14
1161.00,93.05
1160.00,93.03
1159.00,93.08
1158.00,93.18
1157.00,93.32
1156.00,93.46
1155.00,93.58
1154.00,93.68
1153.00,93.77
1152.00,93.87
1151.00,93.99
1150.00,94.11
1149.00,94.25
1148.00,94.39
1147.00,94.53
1146.00,94.69
1145.00,94.87
1144.00,95.07
1143.00,95.25
1142.00,95.42
1141.00,95.54
1140.00,95.63
1139.00,95.68
1138.00,95.72
1137.00,95.73
1136.00,95.69
1135.00,95.62
1134.00,95.51
1133.00,95.37
1132.00,95.20
1131.00,95.01
1130.00,94.82
1129.00,94.61
1128.00,94.38
1127.00,94.14
1126.00,93.90
1125.00,93.65
1124.00,93.41
1123.00,93.21
1122.00,93.04
1121.00,92.85
1120.00,92.60
1119.00,92.28
1118.00,91.92
1117.00,91.54
1116.00,91.14
1115.00,90.72
1114.00,90.30
1113.00,89.92
1112.00,89.62
1111.00,89.43
1110.00,89.32
1109.00,89.27
1108.00,89.26
1107.00,89.27
1106.00,89.30
1105.00,89.34
1104.00,89.40
1103.00,89.50
1102.00,89.64
1101.00,89.80
1100.00,89.98
1099.00,90.19
1098.00,90.40
1097.00,90.61
1096.00,90.79
1095.00,90.96
1094.00,91.13
1093.00,91.28
1092.00,91.41
1091.00,91.51
1090.00,91.59
1089.00,91.64
1088.00,91.68
1087.00,91.71
1086.00,91.74
1085.00,91.75
1084.00,91.76
1083.00,91.74
1082.00,91.69
1081.00,91.57
1080.00,91.39
1079.00,91.18
1078.00,90.95
1077.00,90.74
1076.00,90.54
1075.00,90.37
1074.00,90.21
1073.00,90.04
1072.00,89.83
1071.00,89.58
1070.00,89.31
1069.00,88.99
1068.00,88.61
1067.00,88.18
1066.00,87.70
1065.00,87.20
1064.00,86.66
1063.00,86.10
1062.00,85.52
1061.00,84.96
1060.00,84.45
1059.00,84.03
1058.00,83.72
1057.00,83.49
1056.00,83.31
1055.00,83.18
1054.00,83.10
1053.00,83.08
1052.00,83.11
1051.00,83.23
1050.00,83.43
1049.00,83.68
1048.00,83.95
1047.00,84.24
1046.00,84.54
1045.00,84.84
1044.00,85.09
1043.00,85.27
1042.00,85.33
1041.00,85.25
1040.00,85.04
1039.00,84.75
1038.00,84.41
1037.00,84.03
1036.00,83.63
1035.00,83.25
1034.00,82.92
1033.00,82.65
1032.00,82.46
1031.00,82.35
1030.00,82.30
1029.00,82.31
1028.00,82.37
1027.00,82.48
1026.00,82.61
1025.00,82.77
1024.00,82.91
1023.00,83.06
1022.00,83.20
1021.00,83.33
1020.00,83.46
1019.00,83.59
1018.00,83.71
1017.00,83.80
1016.00,83.85
1015.00,83.86
1014.00,83.85
1013.00,83.85
1012.00,83.86
1011.00,83.89
1010.00,83.93
1009.00,83.96
1008.00,83.96
1007.00,83.95
1006.00,83.94
1005.00,83.92
1004.00,83.91
1003.00,83.88
1002.00,83.85
1001.00,83.84
1000.00,83.84
999.00,83.87
998.00,83.92
997.00,83.99
996.00,84.06
995.00,84.16
994.00,84.29
993.00,84.43
992.00,84.56
991.00,84.65
990.00,84.70
989.00,84.69
988.00,84.64
987.00,84.58
986.00,84.52
985.00,84.49
984.00,84.53
983.00,84.64
982.00,84.84
981.00,85.12
980.00,85.44
979.00,85.79
978.00,86.15
977.00,86.50
976.00,86.83
975.00,87.14
974.00,87.45
973.00,87.73
972.00,87.99
971.00,88.23
970.00,88.43
969.00,88.60
968.00,88.77
967.00,88.93
966.00,89.11
965.00,89.28
964.00,89.45
963.00,89.60
962.00,89.76
961.00,89.90
960.00,90.06
959.00,90.21
958.00,90.37
957.00,90.52
956.00,90.66
955.00,90.80
954.00,90.94
953.00,91.09
952.00,91.23
951.00,91.36
950.00,91.48
949.00,91.60
948.00,91.73
947.00,91.84
946.00,91.95
945.00,92.05
944.00,92.15
943.00,92.25
942.00,92.36
941.00,92.46
940.00,92.56
939.00,92.64
938.00,92.71
937.00,92.76
936.00,92.81
935.00,92.88
934.00,92.95
933.00,93.02
932.00,93.07
931.00,93.10
930.00,93.13
929.00,93.19
928.00,93.26
927.00,93.34
926.00,93.41
925.00,93.47
924.00,93.51
923.00,93.56
922.00,93.63
921.00,93.69
920.00,93.75
919.00,93.78
918.00,93.79
917.00,93.78
916.00,93.78
915.00,93.80
914.00,93.83
913.00,93.85
912.00,93.85
911.00,93.83
910.00,93.81
909.00,93.81
908.00,93.82
907.00,93.82
906.00,93.80
905.00,93.75
904.00,93.70
903.00,93.65
902.00,93.62
901.00,93.58
900.00,93.55
899.00,93.53
898.00,93.54
897.00,93.56
896.00,93.57
895.00,93.60
894.00,93.63
893.00,93.67
892.00,93.72
891.00,93.78
890.00,93.85
889.00,93.94
888.00,94.03
887.00,94.11
886.00,94.18
885.00,94.26
884.00,94.35
883.00,94.43
882.00,94.49
881.00,94.55
880.00,94.60
879.00,94.67
878.00,94.75
877.00,94.83
876.00,94.90
875.00,94.96
874.00,95.01
873.00,95.03
872.00,95.04
871.00,95.05
870.00,95.08
869.00,95.13
868.00,95.21
867.00,95.29
866.00,95.36
865.00,95.41
864.00,95.43
863.00,95.44
862.00,95.44
861.00,95.45
860.00,95.46
859.00,95.49
858.00,95.52
857.00,95.55
856.00,95.59
855.00,95.64
854.00,95.67
853.00,95.68
852.00,95.66
851.00,95.66
850.00,95.66
849.00,95.67
848.00,95.66
847.00,95.66
846.00,95.68
845.00,95.70
844.00,95.71
843.00,95.71
842.00,95.71
841.00,95.72
840.00,95.74
839.00,95.74
838.00,95.75
837.00,95.77
836.00,95.80
835.00,95.83
834.00,95.87
833.00,95.90
832.00,95.91
831.00,95.91
830.00,95.91
829.00,95.92
828.00,95.93
827.00,95.91
826.00,95.90
825.00,95.89
824.00,95.90
823.00,95.91
822.00,95.93
821.00,95.94
820.00,95.93
819.00,95.89
818.00,95.85
817.00,95.84
816.00,95.84
815.00,95.87
814.00,95.89
813.00,95.90
812.00,95.89
811.00,95.89
810.00,95.91
809.00,95.93
808.00,95.95
807.00,95.94
806.00,95.93
805.00,95.92
804.00,95.92
803.00,95.93
802.00,95.94
801.00,95.95
800.00,95.94
799.00,95.93
798.00,95.93
797.00,95.92
796.00,95.92
795.00,95.92
794.00,95.94
793.00,95.98
792.00,96.00
791.00,95.98
790.00,95.93
789.00,95.89
788.00,95.89
787.00,95.90
786.00,95.91
785.00,95.91
784.00,95.88
783.00,95.84
782.00,95.80
781.00,95.78
780.00,95.78
779.00,95.79
778.00,95.81
777.00,95.82
776.00,95.80
775.00,95.76
774.00,95.71
773.00,95.68
772.00,95.68
771.00,95.69
770.00,95.70
769.00,95.71
768.00,95.69
767.00,95.67
766.00,95.65
765.00,95.64
764.00,95.64
763.00,95.64
762.00,95.62
761.00,95.59
760.00,95.54
759.00,95.51
758.00,95.49
757.00,95.47
756.00,95.45
755.00,95.41
754.00,95.36
753.00,95.32
752.00,95.30
751.00,95.30
750.00,95.29
749.00,95.28
748.00,95.27
747.00,95.25
746.00,95.21
745.00,95.13
744.00,95.04
743.00,94.98
742.00,94.96
741.00,94.95
740.00,94.93
739.00,94.91
738.00,94.90
737.00,94.89
736.00,94.86
735.00,94.83
734.00,94.80
733.00,94.77
732.00,94.74
731.00,94.68
730.00,94.57
729.00,94.42
728.00,94.26
727.00,94.12
726.00,93.98
725.00,93.85
724.00,93.72
723.00,93.61
722.00,93.51
721.00,93.39
720.00,93.26
719.00,93.13
718.00,92.99
717.00,92.85
716.00,92.67
715.00,92.47
714.00,92.31
713.00,92.19
712.00,92.12
711.00,92.07
710.00,92.01
709.00,91.95
708.00,91.89
707.00,91.83
706.00,91.79
705.00,91.74
704.00,91.70
703.00,91.67
702.00,91.66
701.00,91.66
700.00,91.65
699.00,91.63
698.00,91.60
697.00,91.57
696.00,91.58
695.00,91.61
694.00,91.66
693.00,91.69
692.00,91.69
691.00,91.67
690.00,91.67
689.00,91.69
688.00,91.73
687.00,91.76
686.00,91.76
685.00,91.71
684.00,91.62
683.00,91.50
682.00,91.38
681.00,91.27
680.00,91.17
679.00,91.06
678.00,90.93
677.00,90.79
676.00,90.62
675.00,90.41
674.00,90.19
673.00,89.99
672.00,89.83
671.00,89.72
670.00,89.58
669.00,89.30
668.00,88.87
667.00,88.54
666.00,88.44
665.00,88.48
664.00,88.55
663.00,88.62
662.00,88.69
661.00,88.76
660.00,88.80
659.00,88.84
658.00,88.90
657.00,88.99
656.00,89.11
655.00,89.28
654.00,89.48
653.00,89.69
652.00,89.89
651.00,90.05
650.00,90.16
649.00,90.19
648.00,90.14
647.00,90.01
646.00,89.84
645.00,89.68
644.00,89.60
643.00,89.60
642.00,89.59
641.00,89.50
640.00,89.37
639.00,89.29
638.00,89.28
637.00,89.25
636.00,89.10
635.00,88.87
634.00,88.70
633.00,88.66
632.00,88.77
631.00,88.95
630.00,89.07
629.00,89.00
628.00,88.73
627.00,88.43
626.00,88.20
625.00,88.03
624.00,87.84
623.00,87.58
622.00,87.28
621.00,86.98
620.00,86.83
619.00,86.93
618.00,87.16
617.00,87.20
616.00,86.87
615.00,86.32
614.00,85.92
613.00,85.84
612.00,86.06
611.00,86.44
610.00,86.78
609.00,86.93
608.00,86.93
607.00,86.95
606.00,87.05
605.00,87.16
604.00,87.24
603.00,87.34
602.00,87.46
601.00,87.47
600.00,87.23
599.00,86.78
598.00,86.31
597.00,86.03
596.00,86.06
595.00,86.36
594.00,86.67
593.00,86.71
592.00,86.44
591.00,86.15
590.00,86.09
589.00,86.22
588.00,86.33
587.00,86.33
586.00,86.31
585.00,86.44
584.00,86.80
583.00,87.33
582.00,87.83
581.00,88.10
580.00,88.05
579.00,87.69
578.00,87.04
577.00,86.29
576.00,85.82
575.00,85.93
574.00,86.33
573.00,86.46
572.00,86.25
571.00,86.08
570.00,86.14
569.00,86.22
568.00,86.13
567.00,85.91
566.00,85.58
565.00,85.03
564.00,84.39
563.00,84.09
562.00,84.31
561.00,84.73
560.00,84.98
559.00,85.00
558.00,84.71
557.00,84.01
556.00,83.09
555.00,82.59
554.00,82.98
553.00,83.91
552.00,84.75
551.00,85.19
550.00,85.37
