Created as New Dataset,Natural, 11.3
cm-1,%T
4000.00,98.47
3999.00,98.48
3998.00,98.50
3997.00,98.50
3996.00,98.50
3995.00,98.50
3994.00,98.50
3993.00,98.50
3992.00,98.49
3991.00,98.48
3990.00,98.47
3989.00,98.46
3988.00,98.45
3987.00,98.45
3986.00,98.44
3985.00,98.42
3984.00,98.42
3983.00,98.42
3982.00,98.43
3981.00,98.43
3980.00,98.43
3979.00,98.44
3978.00,98.45
3977.00,98.48
3976.00,98.50
3975.00,98.51
3974.00,98.51
3973.00,98.49
3972.00,98.48
3971.00,98.48
3970.00,98.49
3969.00,98.50
3968.00,98.51
3967.00,98.49
3966.00,98.47
3965.00,98.44
3964.00,98.43
3963.00,98.43
3962.00,98.43
3961.00,98.44
3960.00,98.44
3959.00,98.44
3958.00,98.45
3957.00,98.47
3956.00,98.47
3955.00,98.47
3954.00,98.46
3953.00,98.46
3952.00,98.46
3951.00,98.46
3950.00,98.46
3949.00,98.46
3948.00,98.45
3947.00,98.44
3946.00,98.44
3945.00,98.44
3944.00,98.45
3943.00,98.45
3942.00,98.45
3941.00,98.45
3940.00,98.45
3939.00,98.44
3938.00,98.43
3937.00,98.43
3936.00,98.44
3935.00,98.44
3934.00,98.44
3933.00,98.43
3932.00,98.42
3931.00,98.42
3930.00,98.42
3929.00,98.42
3928.00,98.43
3927.00,98.43
3926.00,98.43
3925.00,98.44
3924.00,98.45
3923.00,98.45
3922.00,98.44
3921.00,98.42
3920.00,98.40
3919.00,98.40
3918.00,98.42
3917.00,98.45
3916.00,98.48
3915.00,98.49
3914.00,98.48
3913.00,98.46
3912.00,98.45
3911.00,98.44
3910.00,98.43
3909.00,98.42
3908.00,98.41
3907.00,98.39
3906.00,98.37
3905.00,98.37
3904.00,98.38
3903.00,98.41
3902.00,98.43
3901.00,98.44
3900.00,98.44
3899.00,98.44
3898.00,98.43
3897.00,98.43
3896.00,98.43
3895.00,98.45
3894.00,98.47
3893.00,98.48
3892.00,98.47
3891.00,98.46
3890.00,98.44
3889.00,98.43
3888.00,98.43
3887.00,98.44
3886.00,98.44
3885.00,98.45
3884.00,98.44
3883.00,98.42
3882.00,98.38
3881.00,98.35
3880.00,98.35
3879.00,98.37
3878.00,98.42
3877.00,98.45
3876.00,98.46
3875.00,98.45
3874.00,98.42
3873.00,98.39
3872.00,98.37
3871.00,98.39
3870.00,98.41
3869.00,98.42
3868.00,98.43
3867.00,98.42
3866.00,98.42
3865.00,98.43
3864.00,98.44
3863.00,98.45
3862.00,98.46
3861.00,98.46
3860.00,98.45
3859.00,98.44
3858.00,98.43
3857.00,98.44
3856.00,98.47
3855.00,98.51
3854.00,98.53
3853.00,98.51
3852.00,98.49
3851.00,98.48
3850.00,98.48
3849.00,98.48
3848.00,98.47
3847.00,98.46
3846.00,98.46
3845.00,98.45
3844.00,98.45
3843.00,98.46
3842.00,98.47
3841.00,98.48
3840.00,98.50
3839.00,98.50
3838.00,98.49
3837.00,98.46
3836.00,98.44
3835.00,98.43
3834.00,98.44
3833.00,98.44
3832.00,98.44
3831.00,98.42
3830.00,98.41
3829.00,98.40
3828.00,98.39
3827.00,98.39
3826.00,98.39
3825.00,98.38
3824.00,98.36
3823.00,98.33
3822.00,98.28
3821.00,98.25
3820.00,98.25
3819.00,98.27
3818.00,98.31
3817.00,98.35
3816.00,98.37
3815.00,98.37
3814.00,98.37
3813.00,98.36
3812.00,98.35
3811.00,98.34
3810.00,98.33
3809.00,98.33
3808.00,98.34
3807.00,98.35
3806.00,98.36
3805.00,98.37
3804.00,98.36
3803.00,98.35
3802.00,98.33
3801.00,98.32
3800.00,98.34
3799.00,98.37
3798.00,98.39
3797.00,98.39
3796.00,98.38
3795.00,98.38
3794.00,98.38
3793.00,98.38
3792.00,98.36
3791.00,98.34
3790.00,98.32
3789.00,98.30
3788.00,98.30
3787.00,98.32
3786.00,98.34
3785.00,98.36
3784.00,98.37
3783.00,98.37
3782.00,98.35
3781.00,98.32
3780.00,98.30
3779.00,98.29
3778.00,98.30
3777.00,98.31
3776.00,98.31
3775.00,98.31
3774.00,98.29
3773.00,98.29
3772.00,98.30
3771.00,98.32
3770.00,98.33
3769.00,98.33
3768.00,98.31
3767.00,98.29
3766.00,98.27
3765.00,98.26
3764.00,98.26
3763.00,98.26
3762.00,98.25
3761.00,98.23
3760.00,98.22
3759.00,98.22
3758.00,98.23
3757.00,98.23
3756.00,98.23
3755.00,98.21
3754.00,98.19
3753.00,98.17
3752.00,98.16
3751.00,98.18
3750.00,98.20
3749.00,98.22
3748.00,98.22
3747.00,98.21
3746.00,98.18
3745.00,98.17
3744.00,98.16
3743.00,98.17
3742.00,98.18
3741.00,98.18
3740.00,98.16
3739.00,98.15
3738.00,98.15
3737.00,98.17
3736.00,98.19
3735.00,98.19
3734.00,98.18
3733.00,98.17
3732.00,98.16
3731.00,98.17
3730.00,98.17
3729.00,98.16
3728.00,98.15
3727.00,98.15
3726.00,98.15
3725.00,98.15
3724.00,98.14
3723.00,98.13
3722.00,98.11
3721.00,98.10
3720.00,98.11
3719.00,98.12
3718.00,98.14
3717.00,98.14
3716.00,98.14
3715.00,98.12
3714.00,98.11
3713.00,98.11
3712.00,98.10
3711.00,98.09
3710.00,98.07
3709.00,98.06
3708.00,98.07
3707.00,98.07
3706.00,98.08
3705.00,98.09
3704.00,98.08
3703.00,98.06
3702.00,98.03
3701.00,98.00
3700.00,97.99
3699.00,97.99
3698.00,97.99
3697.00,98.00
3696.00,97.99
3695.00,97.98
3694.00,97.97
3693.00,97.96
3692.00,97.95
3691.00,97.92
3690.00,97.90
3689.00,97.90
3688.00,97.93
3687.00,97.95
3686.00,97.97
3685.00,97.97
3684.00,97.97
3683.00,97.95
3682.00,97.94
3681.00,97.93
3680.00,97.92
3679.00,97.92
3678.00,97.91
3677.00,97.89
3676.00,97.87
3675.00,97.84
3674.00,97.83
3673.00,97.82
3672.00,97.81
3671.00,97.79
3670.00,97.77
3669.00,97.75
3668.00,97.74
3667.00,97.74
3666.00,97.73
3665.00,97.71
3664.00,97.69
3663.00,97.66
3662.00,97.65
3661.00,97.65
3660.00,97.63
3659.00,97.60
3658.00,97.55
3657.00,97.50
3656.00,97.45
3655.00,97.43
3654.00,97.41
3653.00,97.40
3652.00,97.39
3651.00,97.40
3650.00,97.41
3649.00,97.38
3648.00,97.34
3647.00,97.30
3646.00,97.29
3645.00,97.29
3644.00,97.30
3643.00,97.30
3642.00,97.28
3641.00,97.24
3640.00,97.20
3639.00,97.16
3638.00,97.13
3637.00,97.09
3636.00,97.05
3635.00,97.00
3634.00,96.94
3633.00,96.89
3632.00,96.86
3631.00,96.84
3630.00,96.84
3629.00,96.84
3628.00,96.84
3627.00,96.82
3626.00,96.80
3625.00,96.76
3624.00,96.71
3623.00,96.67
3622.00,96.63
3621.00,96.60
3620.00,96.59
3619.00,96.59
3618.00,96.57
3617.00,96.55
3616.00,96.53
3615.00,96.50
3614.00,96.48
3613.00,96.45
3612.00,96.43
3611.00,96.40
3610.00,96.36
3609.00,96.31
3608.00,96.28
3607.00,96.25
3606.00,96.23
3605.00,96.21
3604.00,96.19
3603.00,96.17
3602.00,96.16
3601.00,96.13
3600.00,96.08
3599.00,96.04
3598.00,96.00
3597.00,95.97
3596.00,95.95
3595.00,95.92
3594.00,95.86
3593.00,95.80
3592.00,95.75
3591.00,95.72
3590.00,95.71
3589.00,95.71
3588.00,95.71
3587.00,95.68
3586.00,95.65
3585.00,95.62
3584.00,95.60
3583.00,95.57
3582.00,95.54
3581.00,95.50
3580.00,95.45
3579.00,95.40
3578.00,95.36
3577.00,95.33
3576.00,95.31
3575.00,95.29
3574.00,95.26
3573.00,95.22
3572.00,95.17
3571.00,95.12
3570.00,95.07
3569.00,95.04
3568.00,95.00
3567.00,94.97
3566.00,94.94
3565.00,94.92
3564.00,94.90
3563.00,94.88
3562.00,94.85
3561.00,94.82
3560.00,94.79
3559.00,94.74
3558.00,94.70
3557.00,94.65
3556.00,94.61
3555.00,94.56
3554.00,94.52
3553.00,94.49
3552.00,94.45
3551.00,94.41
3550.00,94.37
3549.00,94.34
3548.00,94.31
3547.00,94.28
3546.00,94.25
3545.00,94.21
3544.00,94.18
3543.00,94.15
3542.00,94.13
3541.00,94.10
3540.00,94.06
3539.00,94.00
3538.00,93.95
3537.00,93.91
3536.00,93.90
3535.00,93.89
3534.00,93.88
3533.00,93.85
3532.00,93.81
3531.00,93.78
3530.00,93.75
3529.00,93.73
3528.00,93.70
3527.00,93.66
3526.00,93.63
3525.00,93.59
3524.00,93.56
3523.00,93.53
3522.00,93.50
3521.00,93.47
3520.00,93.43
3519.00,93.38
3518.00,93.33
3517.00,93.29
3516.00,93.27
3515.00,93.25
3514.00,93.23
3513.00,93.21
3512.00,93.18
3511.00,93.15
3510.00,93.12
3509.00,93.07
3508.00,93.03
3507.00,92.99
3506.00,92.97
3505.00,92.94
3504.00,92.91
3503.00,92.89
3502.00,92.87
3501.00,92.84
3500.00,92.82
3499.00,92.79
3498.00,92.78
3497.00,92.77
3496.00,92.77
3495.00,92.74
3494.00,92.70
3493.00,92.66
3492.00,92.62
3491.00,92.61
3490.00,92.59
3489.00,92.56
3488.00,92.53
3487.00,92.49
3486.00,92.46
3485.00,92.43
3484.00,92.42
3483.00,92.41
3482.00,92.39
3481.00,92.36
3480.00,92.32
3479.00,92.27
3478.00,92.22
3477.00,92.19
3476.00,92.17
3475.00,92.15
3474.00,92.14
3473.00,92.12
3472.00,92.09
3471.00,92.07
3470.00,92.03
3469.00,91.99
3468.00,91.95
3467.00,91.91
3466.00,91.88
3465.00,91.86
3464.00,91.85
3463.00,91.84
3462.00,91.82
3461.00,91.80
3460.00,91.77
3459.00,91.75
3458.00,91.73
3457.00,91.71
3456.00,91.67
3455.00,91.63
3454.00,91.59
3453.00,91.57
3452.00,91.56
3451.00,91.55
3450.00,91.54
3449.00,91.51
3448.00,91.47
3447.00,91.43
3446.00,91.39
3445.00,91.36
3444.00,91.33
3443.00,91.31
3442.00,91.29
3441.00,91.27
3440.00,91.25
3439.00,91.23
3438.00,91.21
3437.00,91.17
3436.00,91.12
3435.00,91.09
3434.00,91.08
3433.00,91.07
3432.00,91.05
3431.00,91.01
3430.00,90.96
3429.00,90.92
3428.00,90.89
3427.00,90.87
3426.00,90.84
3425.00,90.81
3424.00,90.78
3423.00,90.74
3422.00,90.72
3421.00,90.69
3420.00,90.66
3419.00,90.63
3418.00,90.59
3417.00,90.54
3416.00,90.50
3415.00,90.46
3414.00,90.44
3413.00,90.42
3412.00,90.39
3411.00,90.36
3410.00,90.33
3409.00,90.29
3408.00,90.25
3407.00,90.21
3406.00,90.18
3405.00,90.17
3404.00,90.16
3403.00,90.15
3402.00,90.12
3401.00,90.08
3400.00,90.04
3399.00,90.00
3398.00,89.98
3397.00,89.97
3396.00,89.96
3395.00,89.96
3394.00,89.94
3393.00,89.91
3392.00,89.88
3391.00,89.85
3390.00,89.82
3389.00,89.80
3388.00,89.78
3387.00,89.76
3386.00,89.74
3385.00,89.72
3384.00,89.68
3383.00,89.65
3382.00,89.61
3381.00,89.57
3380.00,89.54
3379.00,89.51
3378.00,89.48
3377.00,89.46
3376.00,89.43
3375.00,89.40
3374.00,89.38
3373.00,89.36
3372.00,89.34
3371.00,89.31
3370.00,89.28
3369.00,89.25
3368.00,89.22
3367.00,89.20
3366.00,89.17
3365.00,89.15
3364.00,89.12
3363.00,89.10
3362.00,89.07
3361.00,89.04
3360.00,89.00
3359.00,88.95
3358.00,88.90
3357.00,88.85
3356.00,88.82
3355.00,88.80
3354.00,88.77
3353.00,88.75
3352.00,88.71
3351.00,88.68
3350.00,88.65
3349.00,88.62
3348.00,88.60
3347.00,88.58
3346.00,88.55
3345.00,88.52
3344.00,88.48
3343.00,88.44
3342.00,88.38
3341.00,88.34
3340.00,88.32
3339.00,88.30
3338.00,88.29
3337.00,88.26
3336.00,88.23
3335.00,88.20
3334.00,88.17
3333.00,88.13
3332.00,88.08
3331.00,88.04
3330.00,88.01
3329.00,87.98
3328.00,87.95
3327.00,87.92
3326.00,87.88
3325.00,87.83
3324.00,87.78
3323.00,87.72
3322.00,87.67
3321.00,87.62
3320.00,87.59
3319.00,87.58
3318.00,87.56
3317.00,87.53
3316.00,87.49
3315.00,87.44
3314.00,87.39
3313.00,87.34
3312.00,87.30
3311.00,87.26
3310.00,87.24
3309.00,87.22
3308.00,87.20
3307.00,87.18
3306.00,87.14
3305.00,87.10
3304.00,87.06
3303.00,87.03
3302.00,87.01
3301.00,86.98
3300.00,86.96
3299.00,86.93
3298.00,86.91
3297.00,86.88
3296.00,86.85
3295.00,86.82
3294.00,86.79
3293.00,86.76
3292.00,86.72
3291.00,86.69
3290.00,86.66
3289.00,86.65
3288.00,86.63
3287.00,86.62
3286.00,86.61
3285.00,86.59
3284.00,86.56
3283.00,86.53
3282.00,86.51
3281.00,86.51
3280.00,86.52
3279.00,86.55
3278.00,86.57
3277.00,86.58
3276.00,86.58
3275.00,86.57
3274.00,86.57
3273.00,86.59
3272.00,86.61
3271.00,86.63
3270.00,86.64
3269.00,86.65
3268.00,86.65
3267.00,86.65
3266.00,86.67
3265.00,86.70
3264.00,86.75
3263.00,86.80
3262.00,86.83
3261.00,86.87
3260.00,86.91
3259.00,86.95
3258.00,87.00
3257.00,87.04
3256.00,87.07
3255.00,87.10
3254.00,87.12
3253.00,87.15
3252.00,87.18
3251.00,87.22
3250.00,87.28
3249.00,87.34
3248.00,87.38
3247.00,87.42
3246.00,87.44
3245.00,87.48
3244.00,87.51
3243.00,87.56
3242.00,87.59
3241.00,87.62
3240.00,87.64
3239.00,87.67
3238.00,87.71
3237.00,87.75
3236.00,87.79
3235.00,87.82
3234.00,87.84
3233.00,87.86
3232.00,87.88
3231.00,87.90
3230.00,87.93
3229.00,87.98
3228.00,88.02
3227.00,88.04
3226.00,88.05
3225.00,88.06
3224.00,88.07
3223.00,88.10
3222.00,88.14
3221.00,88.19
3220.00,88.23
3219.00,88.25
3218.00,88.25
3217.00,88.24
3216.00,88.24
3215.00,88.26
3214.00,88.31
3213.00,88.37
3212.00,88.41
3211.00,88.45
3210.00,88.47
3209.00,88.50
3208.00,88.53
3207.00,88.55
3206.00,88.57
3205.00,88.59
3204.00,88.63
3203.00,88.68
3202.00,88.73
3201.00,88.77
3200.00,88.79
3199.00,88.81
3198.00,88.82
3197.00,88.84
3196.00,88.87
3195.00,88.91
3194.00,88.95
3193.00,88.99
3192.00,89.02
3191.00,89.05
3190.00,89.08
3189.00,89.12
3188.00,89.16
3187.00,89.21
3186.00,89.25
3185.00,89.29
3184.00,89.34
3183.00,89.38
3182.00,89.42
3181.00,89.48
3180.00,89.53
3179.00,89.59
3178.00,89.63
3177.00,89.66
3176.00,89.69
3175.00,89.73
3174.00,89.78
3173.00,89.83
3172.00,89.87
3171.00,89.91
3170.00,89.95
3169.00,89.99
3168.00,90.05
3167.00,90.11
3166.00,90.16
3165.00,90.21
3164.00,90.25
3163.00,90.29
3162.00,90.33
3161.00,90.38
3160.00,90.44
3159.00,90.49
3158.00,90.55
3157.00,90.59
3156.00,90.63
3155.00,90.68
3154.00,90.75
3153.00,90.80
3152.00,90.84
3151.00,90.87
3150.00,90.89
3149.00,90.92
3148.00,90.96
3147.00,91.00
3146.00,91.05
3145.00,91.11
3144.00,91.16
3143.00,91.21
3142.00,91.23
3141.00,91.26
3140.00,91.29
3139.00,91.32
3138.00,91.36
3137.00,91.40
3136.00,91.43
3135.00,91.46
3134.00,91.49
3133.00,91.52
3132.00,91.54
3131.00,91.57
3130.00,91.59
3129.00,91.61
3128.00,91.65
3127.00,91.68
3126.00,91.70
3125.00,91.72
3124.00,91.74
3123.00,91.76
3122.00,91.79
3121.00,91.82
3120.00,91.85
3119.00,91.86
3118.00,91.88
3117.00,91.90
3116.00,91.92
3115.00,91.94
3114.00,91.95
3113.00,91.94
3112.00,91.93
3111.00,91.94
3110.00,91.96
3109.00,91.98
3108.00,91.99
3107.00,91.99
3106.00,91.99
3105.00,91.99
3104.00,91.99
3103.00,92.00
3102.00,92.01
3101.00,92.01
3100.00,92.00
3099.00,91.99
3098.00,91.98
3097.00,91.98
3096.00,92.00
3095.00,92.01
3094.00,92.02
3093.00,92.02
3092.00,92.01
3091.00,92.00
3090.00,91.98
3089.00,91.96
3088.00,91.95
3087.00,91.95
3086.00,91.95
3085.00,91.93
3084.00,91.92
3083.00,91.92
3082.00,91.92
3081.00,91.91
3080.00,91.90
3079.00,91.88
3078.00,91.86
3077.00,91.84
3076.00,91.84
3075.00,91.84
3074.00,91.85
3073.00,91.87
3072.00,91.89
3071.00,91.90
3070.00,91.91
3069.00,91.92
3068.00,91.92
3067.00,91.91
3066.00,91.91
3065.00,91.92
3064.00,91.94
3063.00,91.95
3062.00,91.97
3061.00,91.98
3060.00,91.99
3059.00,92.00
3058.00,92.02
3057.00,92.04
3056.00,92.08
3055.00,92.12
3054.00,92.16
3053.00,92.18
3052.00,92.20
3051.00,92.22
3050.00,92.25
3049.00,92.28
3048.00,92.31
3047.00,92.33
3046.00,92.36
3045.00,92.40
3044.00,92.45
3043.00,92.50
3042.00,92.54
3041.00,92.56
3040.00,92.57
3039.00,92.59
3038.00,92.63
3037.00,92.66
3036.00,92.70
3035.00,92.72
3034.00,92.75
3033.00,92.77
3032.00,92.80
3031.00,92.84
3030.00,92.87
3029.00,92.90
3028.00,92.93
3027.00,92.96
3026.00,92.99
3025.00,93.03
3024.00,93.07
3023.00,93.10
3022.00,93.14
3021.00,93.17
3020.00,93.18
3019.00,93.19
3018.00,93.20
3017.00,93.22
3016.00,93.25
3015.00,93.28
3014.00,93.31
3013.00,93.34
3012.00,93.36
3011.00,93.37
3010.00,93.38
3009.00,93.39
3008.00,93.39
3007.00,93.41
3006.00,93.43
3005.00,93.45
3004.00,93.46
3003.00,93.46
3002.00,93.45
3001.00,93.43
3000.00,93.41
2999.00,93.39
2998.00,93.37
2997.00,93.34
2996.00,93.32
2995.00,93.30
2994.00,93.28
2993.00,93.25
2992.00,93.22
2991.00,93.19
2990.00,93.14
2989.00,93.09
2988.00,93.04
2987.00,92.98
2986.00,92.92
2985.00,92.85
2984.00,92.78
2983.00,92.72
2982.00,92.65
2981.00,92.57
2980.00,92.49
2979.00,92.40
2978.00,92.33
2977.00,92.27
2976.00,92.20
2975.00,92.12
2974.00,92.02
2973.00,91.91
2972.00,91.81
2971.00,91.71
2970.00,91.63
2969.00,91.55
2968.00,91.48
2967.00,91.43
2966.00,91.37
2965.00,91.31
2964.00,91.25
2963.00,91.18
2962.00,91.12
2961.00,91.08
2960.00,91.05
2959.00,91.03
2958.00,91.03
2957.00,91.04
2956.00,91.07
2955.00,91.09
2954.00,91.12
2953.00,91.14
2952.00,91.17
2951.00,91.19
2950.00,91.20
2949.00,91.20
2948.00,91.21
2947.00,91.21
2946.00,91.20
2945.00,91.17
2944.00,91.12
2943.00,91.06
2942.00,91.00
2941.00,90.92
2940.00,90.83
2939.00,90.74
2938.00,90.63
2937.00,90.51
2936.00,90.40
2935.00,90.29
2934.00,90.19
2933.00,90.09
2932.00,89.99
2931.00,89.87
2930.00,89.76
2929.00,89.64
2928.00,89.52
2927.00,89.40
2926.00,89.27
2925.00,89.15
2924.00,89.03
2923.00,88.92
2922.00,88.82
2921.00,88.75
2920.00,88.71
2919.00,88.73
2918.00,88.81
2917.00,88.97
2916.00,89.20
2915.00,89.48
2914.00,89.81
2913.00,90.14
2912.00,90.45
2911.00,90.72
2910.00,90.95
2909.00,91.15
2908.00,91.32
2907.00,91.48
2906.00,91.62
2905.00,91.74
2904.00,91.84
2903.00,91.91
2902.00,91.98
2901.00,92.05
2900.00,92.12
2899.00,92.20
2898.00,92.28
2897.00,92.34
2896.00,92.40
2895.00,92.44
2894.00,92.48
2893.00,92.54
2892.00,92.59
2891.00,92.65
2890.00,92.69
2889.00,92.72
2888.00,92.75
2887.00,92.77
2886.00,92.78
2885.00,92.80
2884.00,92.82
2883.00,92.85
2882.00,92.87
2881.00,92.87
2880.00,92.86
2879.00,92.83
2878.00,92.80
2877.00,92.77
2876.00,92.76
2875.00,92.76
2874.00,92.77
2873.00,92.78
2872.00,92.79
2871.00,92.82
2870.00,92.86
2869.00,92.90
2868.00,92.94
2867.00,92.98
2866.00,93.01
2865.00,93.05
2864.00,93.08
2863.00,93.09
2862.00,93.08
2861.00,93.06
2860.00,93.01
2859.00,92.93
2858.00,92.83
2857.00,92.70
2856.00,92.54
2855.00,92.37
2854.00,92.18
2853.00,92.01
2852.00,91.88
2851.00,91.83
2850.00,91.88
2849.00,92.06
2848.00,92.33
2847.00,92.66
2846.00,93.00
2845.00,93.32
2844.00,93.59
2843.00,93.81
2842.00,93.99
2841.00,94.13
2840.00,94.25
2839.00,94.35
2838.00,94.44
2837.00,94.51
2836.00,94.59
2835.00,94.66
2834.00,94.71
2833.00,94.75
2832.00,94.78
2831.00,94.81
2830.00,94.85
2829.00,94.88
2828.00,94.91
2827.00,94.95
2826.00,95.00
2825.00,95.05
2824.00,95.09
2823.00,95.13
2822.00,95.16
2821.00,95.18
2820.00,95.19
2819.00,95.20
2818.00,95.21
2817.00,95.22
2816.00,95.23
2815.00,95.24
2814.00,95.27
2813.00,95.29
2812.00,95.31
2811.00,95.33
2810.00,95.34
2809.00,95.36
2808.00,95.38
2807.00,95.39
2806.00,95.41
2805.00,95.42
2804.00,95.43
2803.00,95.44
2802.00,95.44
2801.00,95.45
2800.00,95.46
2799.00,95.49
2798.00,95.52
2797.00,95.54
2796.00,95.57
2795.00,95.59
2794.00,95.60
2793.00,95.61
2792.00,95.62
2791.00,95.62
2790.00,95.63
2789.00,95.65
2788.00,95.67
2787.00,95.68
2786.00,95.69
2785.00,95.70
2784.00,95.72
2783.00,95.74
2782.00,95.76
2781.00,95.77
2780.00,95.78
2779.00,95.79
2778.00,95.81
2777.00,95.83
2776.00,95.84
2775.00,95.85
2774.00,95.87
2773.00,95.89
2772.00,95.90
2771.00,95.91
2770.00,95.92
2769.00,95.92
2768.00,95.93
2767.00,95.94
2766.00,95.94
2765.00,95.94
2764.00,95.96
2763.00,95.98
2762.00,95.99
2761.00,95.99
2760.00,96.00
2759.00,96.00
2758.00,96.01
2757.00,96.02
2756.00,96.03
2755.00,96.05
2754.00,96.08
2753.00,96.10
2752.00,96.11
2751.00,96.10
2750.00,96.10
2749.00,96.10
2748.00,96.11
2747.00,96.12
2746.00,96.13
2745.00,96.14
2744.00,96.16
2743.00,96.16
2742.00,96.17
2741.00,96.17
2740.00,96.17
2739.00,96.18
2738.00,96.19
2737.00,96.20
2736.00,96.22
2735.00,96.25
2734.00,96.28
2733.00,96.30
2732.00,96.31
2731.00,96.31
2730.00,96.31
2729.00,96.32
2728.00,96.32
2727.00,96.32
2726.00,96.32
2725.00,96.32
2724.00,96.33
2723.00,96.35
2722.00,96.37
2721.00,96.39
2720.00,96.41
2719.00,96.43
2718.00,96.44
2717.00,96.44
2716.00,96.44
2715.00,96.45
2714.00,96.46
2713.00,96.47
2712.00,96.48
2711.00,96.49
2710.00,96.51
2709.00,96.52
2708.00,96.53
2707.00,96.54
2706.00,96.54
2705.00,96.54
2704.00,96.54
2703.00,96.54
2702.00,96.55
2701.00,96.55
2700.00,96.56
2699.00,96.57
2698.00,96.58
2697.00,96.60
2696.00,96.61
2695.00,96.61
2694.00,96.62
2693.00,96.63
2692.00,96.63
2691.00,96.63
2690.00,96.62
2689.00,96.61
2688.00,96.61
2687.00,96.61
2686.00,96.62
2685.00,96.62
2684.00,96.63
2683.00,96.64
2682.00,96.64
2681.00,96.65
2680.00,96.65
2679.00,96.66
2678.00,96.67
2677.00,96.68
2676.00,96.69
2675.00,96.70
2674.00,96.71
2673.00,96.72
2672.00,96.73
2671.00,96.74
2670.00,96.75
2669.00,96.75
2668.00,96.76
2667.00,96.76
2666.00,96.75
2665.00,96.75
2664.00,96.75
2663.00,96.75
2662.00,96.75
2661.00,96.75
2660.00,96.76
2659.00,96.76
2658.00,96.75
2657.00,96.73
2656.00,96.70
2655.00,96.68
2654.00,96.67
2653.00,96.66
2652.00,96.67
2651.00,96.68
2650.00,96.69
2649.00,96.70
2648.00,96.70
2647.00,96.70
2646.00,96.69
2645.00,96.68
2644.00,96.65
2643.00,96.63
2642.00,96.61
2641.00,96.60
2640.00,96.60
2639.00,96.60
2638.00,96.60
2637.00,96.61
2636.00,96.61
2635.00,96.60
2634.00,96.58
2633.00,96.55
2632.00,96.54
2631.00,96.54
2630.00,96.56
2629.00,96.58
2628.00,96.60
2627.00,96.60
2626.00,96.58
2625.00,96.56
2624.00,96.56
2623.00,96.57
2622.00,96.58
2621.00,96.59
2620.00,96.60
2619.00,96.60
2618.00,96.58
2617.00,96.56
2616.00,96.54
2615.00,96.54
2614.00,96.54
2613.00,96.56
2612.00,96.57
2611.00,96.58
2610.00,96.58
2609.00,96.59
2608.00,96.59
2607.00,96.59
2606.00,96.58
2605.00,96.57
2604.00,96.55
2603.00,96.52
2602.00,96.49
2601.00,96.48
2600.00,96.49
2599.00,96.51
2598.00,96.54
2597.00,96.54
2596.00,96.54
2595.00,96.54
2594.00,96.54
2593.00,96.54
2592.00,96.53
2591.00,96.52
2590.00,96.51
2589.00,96.51
2588.00,96.51
2587.00,96.52
2586.00,96.52
2585.00,96.51
2584.00,96.49
2583.00,96.48
2582.00,96.47
2581.00,96.47
2580.00,96.49
2579.00,96.52
2578.00,96.55
2577.00,96.56
2576.00,96.55
2575.00,96.54
2574.00,96.52
2573.00,96.52
2572.00,96.52
2571.00,96.52
2570.00,96.51
2569.00,96.50
2568.00,96.50
2567.00,96.52
2566.00,96.54
2565.00,96.54
2564.00,96.54
2563.00,96.55
2562.00,96.56
2561.00,96.56
2560.00,96.55
2559.00,96.54
2558.00,96.52
2557.00,96.52
2556.00,96.52
2555.00,96.53
2554.00,96.54
2553.00,96.54
2552.00,96.53
2551.00,96.53
2550.00,96.54
2549.00,96.56
2548.00,96.57
2547.00,96.58
2546.00,96.60
2545.00,96.62
2544.00,96.62
2543.00,96.61
2542.00,96.57
2541.00,96.52
2540.00,96.49
2539.00,96.49
2538.00,96.49
2537.00,96.51
2536.00,96.53
2535.00,96.55
2534.00,96.57
2533.00,96.58
2532.00,96.58
2531.00,96.59
2530.00,96.60
2529.00,96.61
2528.00,96.61
2527.00,96.60
2526.00,96.58
2525.00,96.57
2524.00,96.57
2523.00,96.57
2522.00,96.59
2521.00,96.61
2520.00,96.63
2519.00,96.64
2518.00,96.65
2517.00,96.65
2516.00,96.65
2515.00,96.65
2514.00,96.65
2513.00,96.63
2512.00,96.61
2511.00,96.59
2510.00,96.60
2509.00,96.63
2508.00,96.66
2507.00,96.67
2506.00,96.67
2505.00,96.68
2504.00,96.69
2503.00,96.70
2502.00,96.68
2501.00,96.64
2500.00,96.62
2499.00,96.62
2498.00,96.64
2497.00,96.66
2496.00,96.68
2495.00,96.70
2494.00,96.71
2493.00,96.69
2492.00,96.67
2491.00,96.65
2490.00,96.64
2489.00,96.64
2488.00,96.65
2487.00,96.65
2486.00,96.66
2485.00,96.67
2484.00,96.68
2483.00,96.70
2482.00,96.70
2481.00,96.68
2480.00,96.66
2479.00,96.66
2478.00,96.68
2477.00,96.71
2476.00,96.74
2475.00,96.73
2474.00,96.71
2473.00,96.68
2472.00,96.67
2471.00,96.67
2470.00,96.69
2469.00,96.70
2468.00,96.71
2467.00,96.72
2466.00,96.72
2465.00,96.74
2464.00,96.75
2463.00,96.76
2462.00,96.76
2461.00,96.76
2460.00,96.76
2459.00,96.75
2458.00,96.75
2457.00,96.73
2456.00,96.71
2455.00,96.70
2454.00,96.70
2453.00,96.70
2452.00,96.70
2451.00,96.70
2450.00,96.72
2449.00,96.74
2448.00,96.77
2447.00,96.78
2446.00,96.78
2445.00,96.78
2444.00,96.79
2443.00,96.81
2442.00,96.82
2441.00,96.84
2440.00,96.84
2439.00,96.85
2438.00,96.84
2437.00,96.83
2436.00,96.82
2435.00,96.81
2434.00,96.81
2433.00,96.80
2432.00,96.80
2431.00,96.82
2430.00,96.85
2429.00,96.89
2428.00,96.92
2427.00,96.93
2426.00,96.92
2425.00,96.91
2424.00,96.91
2423.00,96.91
2422.00,96.91
2421.00,96.92
2420.00,96.92
2419.00,96.91
2418.00,96.91
2417.00,96.89
2416.00,96.88
2415.00,96.88
2414.00,96.89
2413.00,96.91
2412.00,96.92
2411.00,96.93
2410.00,96.94
2409.00,96.94
2408.00,96.96
2407.00,96.97
2406.00,96.97
2405.00,96.98
2404.00,96.99
2403.00,97.00
2402.00,97.01
2401.00,97.03
2400.00,97.06
2399.00,97.08
2398.00,97.10
2397.00,97.10
2396.00,97.10
2395.00,97.10
2394.00,97.11
2393.00,97.11
2392.00,97.11
2391.00,97.10
2390.00,97.11
2389.00,97.11
2388.00,97.12
2387.00,97.14
2386.00,97.16
2385.00,97.17
2384.00,97.16
2383.00,97.15
2382.00,97.14
2381.00,97.12
2380.00,97.12
2379.00,97.12
2378.00,97.13
2377.00,97.15
2376.00,97.17
2375.00,97.20
2374.00,97.22
2373.00,97.23
2372.00,97.23
2371.00,97.21
2370.00,97.20
2369.00,97.20
2368.00,97.18
2367.00,97.16
2366.00,97.15
2365.00,97.17
2364.00,97.21
2363.00,97.25
2362.00,97.26
2361.00,97.24
2360.00,97.22
2359.00,97.21
2358.00,97.19
2357.00,97.18
2356.00,97.18
2355.00,97.21
2354.00,97.24
2353.00,97.25
2352.00,97.25
2351.00,97.23
2350.00,97.24
2349.00,97.27
2348.00,97.31
2347.00,97.32
2346.00,97.29
2345.00,97.23
2344.00,97.17
2343.00,97.16
2342.00,97.17
2341.00,97.18
2340.00,97.19
2339.00,97.18
2338.00,97.17
2337.00,97.17
2336.00,97.19
2335.00,97.22
2334.00,97.24
2333.00,97.24
2332.00,97.21
2331.00,97.19
2330.00,97.17
2329.00,97.17
2328.00,97.18
2327.00,97.18
2326.00,97.17
2325.00,97.13
2324.00,97.06
2323.00,96.99
2322.00,96.94
2321.00,96.91
2320.00,96.93
2319.00,96.99
2318.00,97.05
2317.00,97.08
2316.00,97.06
2315.00,97.01
2314.00,96.96
2313.00,96.90
2312.00,96.87
2311.00,96.85
2310.00,96.84
2309.00,96.83
2308.00,96.83
2307.00,96.83
2306.00,96.85
2305.00,96.85
2304.00,96.85
2303.00,96.83
2302.00,96.80
2301.00,96.77
2300.00,96.75
2299.00,96.74
2298.00,96.75
2297.00,96.75
2296.00,96.75
2295.00,96.74
2294.00,96.72
2293.00,96.70
2292.00,96.66
2291.00,96.61
2290.00,96.56
2289.00,96.52
2288.00,96.50
2287.00,96.49
2286.00,96.48
2285.00,96.45
2284.00,96.41
2283.00,96.36
2282.00,96.32
2281.00,96.31
2280.00,96.33
2279.00,96.37
2278.00,96.39
2277.00,96.39
2276.00,96.38
2275.00,96.36
2274.00,96.35
2273.00,96.34
2272.00,96.33
2271.00,96.32
2270.00,96.31
2269.00,96.28
2268.00,96.24
2267.00,96.21
2266.00,96.17
2265.00,96.15
2264.00,96.15
2263.00,96.16
2262.00,96.17
2261.00,96.15
2260.00,96.11
2259.00,96.07
2258.00,96.04
2257.00,96.03
2256.00,96.03
2255.00,96.05
2254.00,96.07
2253.00,96.09
2252.00,96.10
2251.00,96.10
2250.00,96.08
2249.00,96.04
2248.00,96.01
2247.00,95.98
2246.00,95.95
2245.00,95.92
2244.00,95.89
2243.00,95.87
2242.00,95.85
2241.00,95.82
2240.00,95.80
2239.00,95.80
2238.00,95.81
2237.00,95.81
2236.00,95.80
2235.00,95.78
2234.00,95.76
2233.00,95.73
2232.00,95.70
2231.00,95.68
2230.00,95.66
2229.00,95.63
2228.00,95.60
2227.00,95.58
2226.00,95.56
2225.00,95.55
2224.00,95.54
2223.00,95.55
2222.00,95.59
2221.00,95.61
2220.00,95.60
2219.00,95.56
2218.00,95.51
2217.00,95.47
2216.00,95.46
2215.00,95.45
2214.00,95.46
2213.00,95.47
2212.00,95.50
2211.00,95.54
2210.00,95.56
2209.00,95.55
2208.00,95.49
2207.00,95.42
2206.00,95.34
2205.00,95.26
2204.00,95.21
2203.00,95.20
2202.00,95.23
2201.00,95.28
2200.00,95.31
2199.00,95.29
2198.00,95.23
2197.00,95.14
2196.00,95.09
2195.00,95.08
2194.00,95.13
2193.00,95.20
2192.00,95.25
2191.00,95.26
2190.00,95.20
2189.00,95.08
2188.00,94.98
2187.00,94.94
2186.00,94.96
2185.00,94.99
2184.00,94.99
2183.00,94.96
2182.00,94.90
2181.00,94.84
2180.00,94.81
2179.00,94.82
2178.00,94.85
2177.00,94.88
2176.00,94.88
2175.00,94.86
2174.00,94.83
2173.00,94.80
2172.00,94.79
2171.00,94.78
2170.00,94.73
2169.00,94.62
2168.00,94.50
2167.00,94.40
2166.00,94.36
2165.00,94.32
2164.00,94.27
2163.00,94.21
2162.00,94.17
2161.00,94.19
2160.00,94.29
2159.00,94.44
2158.00,94.59
2157.00,94.70
2156.00,94.77
2155.00,94.85
2154.00,94.93
2153.00,94.96
2152.00,94.97
2151.00,94.99
2150.00,95.05
2149.00,95.14
2148.00,95.21
2147.00,95.26
2146.00,95.29
2145.00,95.33
2144.00,95.38
2143.00,95.44
2142.00,95.50
2141.00,95.55
2140.00,95.59
2139.00,95.64
2138.00,95.69
2137.00,95.75
2136.00,95.81
2135.00,95.88
2134.00,95.95
2133.00,96.03
2132.00,96.10
2131.00,96.16
2130.00,96.20
2129.00,96.20
2128.00,96.21
2127.00,96.23
2126.00,96.27
2125.00,96.28
2124.00,96.27
2123.00,96.25
2122.00,96.24
2121.00,96.24
2120.00,96.24
2119.00,96.24
2118.00,96.23
2117.00,96.21
2116.00,96.19
2115.00,96.17
2114.00,96.15
2113.00,96.13
2112.00,96.13
2111.00,96.14
2110.00,96.17
2109.00,96.20
2108.00,96.22
2107.00,96.23
2106.00,96.21
2105.00,96.19
2104.00,96.17
2103.00,96.15
2102.00,96.15
2101.00,96.14
2100.00,96.13
2099.00,96.12
2098.00,96.12
2097.00,96.12
2096.00,96.16
2095.00,96.21
2094.00,96.26
2093.00,96.27
2092.00,96.26
2091.00,96.25
2090.00,96.24
2089.00,96.25
2088.00,96.27
2087.00,96.28
2086.00,96.27
2085.00,96.22
2084.00,96.15
2083.00,96.10
2082.00,96.06
2081.00,96.03
2080.00,96.00
2079.00,96.00
2078.00,96.03
2077.00,96.06
2076.00,96.09
2075.00,96.10
2074.00,96.08
2073.00,96.03
2072.00,95.97
2071.00,95.94
2070.00,95.95
2069.00,95.97
2068.00,95.97
2067.00,95.95
2066.00,95.92
2065.00,95.89
2064.00,95.87
2063.00,95.86
2062.00,95.85
2061.00,95.83
2060.00,95.81
2059.00,95.81
2058.00,95.81
2057.00,95.79
2056.00,95.77
2055.00,95.76
2054.00,95.75
2053.00,95.72
2052.00,95.66
2051.00,95.58
2050.00,95.51
2049.00,95.45
2048.00,95.41
2047.00,95.37
2046.00,95.31
2045.00,95.23
2044.00,95.20
2043.00,95.24
2042.00,95.31
2041.00,95.32
2040.00,95.25
2039.00,95.11
2038.00,94.97
2037.00,94.86
2036.00,94.79
2035.00,94.76
2034.00,94.76
2033.00,94.78
2032.00,94.83
2031.00,94.91
2030.00,95.00
2029.00,95.07
2028.00,95.08
2027.00,95.04
2026.00,95.01
2025.00,95.02
2024.00,95.08
2023.00,95.15
2022.00,95.19
2021.00,95.19
2020.00,95.17
2019.00,95.17
2018.00,95.18
2017.00,95.18
2016.00,95.15
2015.00,95.10
2014.00,95.07
2013.00,95.07
2012.00,95.12
2011.00,95.19
2010.00,95.27
2009.00,95.33
2008.00,95.39
2007.00,95.44
2006.00,95.46
2005.00,95.46
2004.00,95.45
2003.00,95.45
2002.00,95.48
2001.00,95.52
2000.00,95.57
1999.00,95.62
1998.00,95.63
1997.00,95.60
1996.00,95.56
1995.00,95.52
1994.00,95.51
1993.00,95.51
1992.00,95.52
1991.00,95.53
1990.00,95.54
1989.00,95.53
1988.00,95.52
1987.00,95.51
1986.00,95.50
1985.00,95.48
1984.00,95.44
1983.00,95.38
1982.00,95.30
1981.00,95.21
1980.00,95.15
1979.00,95.17
1978.00,95.23
1977.00,95.28
1976.00,95.30
1975.00,95.29
1974.00,95.30
1973.00,95.34
1972.00,95.39
1971.00,95.42
1970.00,95.42
1969.00,95.42
1968.00,95.44
1967.00,95.50
1966.00,95.58
1965.00,95.65
1964.00,95.71
1963.00,95.76
1962.00,95.81
1961.00,95.86
1960.00,95.90
1959.00,95.96
1958.00,96.00
1957.00,96.03
1956.00,96.05
1955.00,96.09
1954.00,96.14
1953.00,96.17
1952.00,96.17
1951.00,96.16
1950.00,96.18
1949.00,96.25
1948.00,96.34
1947.00,96.41
1946.00,96.43
1945.00,96.42
1944.00,96.40
1943.00,96.43
1942.00,96.48
1941.00,96.50
1940.00,96.50
1939.00,96.50
1938.00,96.51
1937.00,96.53
1936.00,96.57
1935.00,96.63
1934.00,96.68
1933.00,96.71
1932.00,96.71
1931.00,96.72
1930.00,96.73
1929.00,96.74
1928.00,96.77
1927.00,96.79
1926.00,96.80
1925.00,96.79
1924.00,96.80
1923.00,96.84
1922.00,96.91
1921.00,96.98
1920.00,97.03
1919.00,97.06
1918.00,97.07
1917.00,97.04
1916.00,97.02
1915.00,97.01
1914.00,97.02
1913.00,97.02
1912.00,97.02
1911.00,97.02
1910.00,97.03
1909.00,97.04
1908.00,97.06
1907.00,97.08
1906.00,97.10
1905.00,97.10
1904.00,97.10
1903.00,97.11
1902.00,97.13
1901.00,97.14
1900.00,97.16
1899.00,97.19
1898.00,97.24
1897.00,97.26
1896.00,97.27
1895.00,97.25
1894.00,97.22
1893.00,97.19
1892.00,97.18
1891.00,97.20
1890.00,97.22
1889.00,97.22
1888.00,97.20
1887.00,97.18
1886.00,97.19
1885.00,97.20
1884.00,97.23
1883.00,97.26
1882.00,97.29
1881.00,97.30
1880.00,97.31
1879.00,97.31
1878.00,97.31
1877.00,97.31
1876.00,97.32
1875.00,97.33
1874.00,97.35
1873.00,97.36
1872.00,97.36
1871.00,97.37
1870.00,97.38
1869.00,97.39
1868.00,97.40
1867.00,97.41
1866.00,97.41
1865.00,97.42
1864.00,97.43
1863.00,97.45
1862.00,97.47
1861.00,97.48
1860.00,97.49
1859.00,97.50
1858.00,97.50
1857.00,97.51
1856.00,97.51
1855.00,97.52
1854.00,97.53
1853.00,97.53
1852.00,97.52
1851.00,97.53
1850.00,97.54
1849.00,97.54
1848.00,97.54
1847.00,97.54
1846.00,97.53
1845.00,97.52
1844.00,97.52
1843.00,97.53
1842.00,97.54
1841.00,97.53
1840.00,97.53
1839.00,97.56
1838.00,97.60
1837.00,97.63
1836.00,97.63
1835.00,97.63
1834.00,97.62
1833.00,97.61
1832.00,97.61
1831.00,97.64
1830.00,97.69
1829.00,97.71
1828.00,97.69
1827.00,97.66
1826.00,97.64
1825.00,97.63
1824.00,97.63
1823.00,97.63
1822.00,97.63
1821.00,97.64
1820.00,97.65
1819.00,97.68
1818.00,97.72
1817.00,97.74
1816.00,97.75
1815.00,97.75
1814.00,97.74
1813.00,97.73
1812.00,97.72
1811.00,97.72
1810.00,97.72
1809.00,97.73
1808.00,97.74
1807.00,97.76
1806.00,97.77
1805.00,97.77
1804.00,97.76
1803.00,97.75
1802.00,97.76
1801.00,97.74
1800.00,97.72
1799.00,97.69
1798.00,97.69
1797.00,97.70
1796.00,97.72
1795.00,97.75
1794.00,97.77
1793.00,97.78
1792.00,97.79
1791.00,97.78
1790.00,97.77
1789.00,97.74
1788.00,97.70
1787.00,97.69
1786.00,97.68
1785.00,97.67
1784.00,97.66
1783.00,97.65
1782.00,97.64
1781.00,97.64
1780.00,97.64
1779.00,97.64
1778.00,97.63
1777.00,97.62
1776.00,97.60
1775.00,97.61
1774.00,97.62
1773.00,97.63
1772.00,97.63
1771.00,97.62
1770.00,97.61
1769.00,97.58
1768.00,97.56
1767.00,97.55
1766.00,97.55
1765.00,97.55
1764.00,97.54
1763.00,97.52
1762.00,97.50
1761.00,97.47
1760.00,97.44
1759.00,97.43
1758.00,97.43
1757.00,97.43
1756.00,97.42
1755.00,97.38
1754.00,97.34
1753.00,97.29
1752.00,97.24
1751.00,97.21
1750.00,97.20
1749.00,97.18
1748.00,97.13
1747.00,97.08
1746.00,97.04
1745.00,96.99
1744.00,96.95
1743.00,96.91
1742.00,96.87
1741.00,96.80
1740.00,96.72
1739.00,96.66
1738.00,96.61
1737.00,96.54
1736.00,96.45
1735.00,96.37
1734.00,96.32
1733.00,96.28
1732.00,96.25
1731.00,96.23
1730.00,96.21
1729.00,96.18
1728.00,96.13
1727.00,96.07
1726.00,96.03
1725.00,95.97
1724.00,95.91
1723.00,95.86
1722.00,95.81
1721.00,95.75
1720.00,95.65
1719.00,95.55
1718.00,95.48
1717.00,95.40
1716.00,95.30
1715.00,95.21
1714.00,95.11
1713.00,94.97
1712.00,94.81
1711.00,94.66
1710.00,94.52
1709.00,94.36
1708.00,94.17
1707.00,93.96
1706.00,93.70
1705.00,93.41
1704.00,93.14
1703.00,92.93
1702.00,92.71
1701.00,92.30
1700.00,91.73
1699.00,91.24
1698.00,90.87
1697.00,90.50
1696.00,90.06
1695.00,89.65
1694.00,89.33
1693.00,89.02
1692.00,88.67
1691.00,88.29
1690.00,87.88
1689.00,87.46
1688.00,87.05
1687.00,86.68
1686.00,86.35
1685.00,85.94
1684.00,85.45
1683.00,85.03
1682.00,84.72
1681.00,84.41
1680.00,84.09
1679.00,83.79
1678.00,83.52
1677.00,83.23
1676.00,82.85
1675.00,82.41
1674.00,82.02
1673.00,81.71
1672.00,81.43
1671.00,81.12
1670.00,80.74
1669.00,80.31
1668.00,79.91
1667.00,79.59
1666.00,79.33
1665.00,79.06
1664.00,78.71
1663.00,78.29
1662.00,77.87
1661.00,77.47
1660.00,77.10
1659.00,76.76
1658.00,76.44
1657.00,76.15
1656.00,75.86
1655.00,75.54
1654.00,75.08
1653.00,74.46
1652.00,74.01
1651.00,73.83
1650.00,73.74
1649.00,73.58
1648.00,73.34
1647.00,73.05
1646.00,72.82
1645.00,72.67
1644.00,72.56
1643.00,72.48
1642.00,72.42
1641.00,72.36
1640.00,72.29
1639.00,72.23
1638.00,72.19
1637.00,72.14
1636.00,72.05
1635.00,71.94
1634.00,71.91
1633.00,71.92
1632.00,71.95
1631.00,72.00
1630.00,72.08
1629.00,72.16
1628.00,72.24
1627.00,72.34
1626.00,72.46
1625.00,72.60
1624.00,72.76
1623.00,72.96
1622.00,73.19
1621.00,73.42
1620.00,73.64
1619.00,73.87
1618.00,74.17
1617.00,74.59
1616.00,75.03
1615.00,75.42
1614.00,75.77
1613.00,76.11
1612.00,76.48
1611.00,76.87
1610.00,77.26
1609.00,77.65
1608.00,78.05
1607.00,78.43
1606.00,78.80
1605.00,79.16
1604.00,79.51
1603.00,79.85
1602.00,80.17
1601.00,80.46
1600.00,80.74
1599.00,81.00
1598.00,81.24
1597.00,81.47
1596.00,81.70
1595.00,81.93
1594.00,82.11
1593.00,82.27
1592.00,82.43
1591.00,82.56
1590.00,82.68
1589.00,82.77
1588.00,82.86
1587.00,82.93
1586.00,82.97
1585.00,83.01
1584.00,83.02
1583.00,83.01
1582.00,82.96
1581.00,82.91
1580.00,82.85
1579.00,82.76
1578.00,82.65
1577.00,82.53
1576.00,82.43
1575.00,82.36
1574.00,82.31
1573.00,82.26
1572.00,82.21
1571.00,82.11
1570.00,81.94
1569.00,81.74
1568.00,81.56
1567.00,81.40
1566.00,81.23
1565.00,81.04
1564.00,80.85
1563.00,80.68
1562.00,80.55
1561.00,80.42
1560.00,80.17
1559.00,79.71
1558.00,79.22
1557.00,78.89
1556.00,78.63
1555.00,78.37
1554.00,78.08
1553.00,77.79
1552.00,77.52
1551.00,77.23
1550.00,76.91
1549.00,76.61
1548.00,76.36
1547.00,76.13
1546.00,75.87
1545.00,75.60
1544.00,75.34
1543.00,75.12
1542.00,74.89
1541.00,74.62
1540.00,74.38
1539.00,74.22
1538.00,74.18
1537.00,74.18
1536.00,74.18
1535.00,74.14
1534.00,74.07
1533.00,73.99
1532.00,73.93
1531.00,73.90
1530.00,73.89
1529.00,73.88
1528.00,73.87
1527.00,73.87
1526.00,73.89
1525.00,73.91
1524.00,73.93
1523.00,73.93
1522.00,73.92
1521.00,73.91
1520.00,73.90
1519.00,73.91
1518.00,73.91
1517.00,73.91
1516.00,73.95
1515.00,74.01
1514.00,74.11
1513.00,74.24
1512.00,74.41
1511.00,74.59
1510.00,74.75
1509.00,74.92
1508.00,75.19
1507.00,75.60
1506.00,76.02
1505.00,76.36
1504.00,76.66
1503.00,76.95
1502.00,77.27
1501.00,77.61
1500.00,77.96
1499.00,78.31
1498.00,78.69
1497.00,79.12
1496.00,79.57
1495.00,79.99
1494.00,80.38
1493.00,80.74
1492.00,81.11
1491.00,81.50
1490.00,81.93
1489.00,82.35
1488.00,82.72
1487.00,83.04
1486.00,83.33
1485.00,83.59
1484.00,83.82
1483.00,84.01
1482.00,84.18
1481.00,84.32
1480.00,84.42
1479.00,84.49
1478.00,84.52
1477.00,84.50
1476.00,84.42
1475.00,84.30
1474.00,84.12
1473.00,83.90
1472.00,83.66
1471.00,83.48
1470.00,83.37
1469.00,83.29
1468.00,83.22
1467.00,83.16
1466.00,83.10
1465.00,83.04
1464.00,82.98
1463.00,82.93
1462.00,82.91
1461.00,82.89
1460.00,82.85
1459.00,82.77
1458.00,82.65
1457.00,82.48
1456.00,82.32
1455.00,82.24
1454.00,82.20
1453.00,82.17
1452.00,82.15
1451.00,82.15
1450.00,82.16
1449.00,82.17
1448.00,82.16
1447.00,82.17
1446.00,82.20
1445.00,82.25
1444.00,82.31
1443.00,82.39
1442.00,82.48
1441.00,82.57
1440.00,82.66
1439.00,82.75
1438.00,82.87
1437.00,83.00
1436.00,83.14
1435.00,83.27
1434.00,83.40
1433.00,83.54
1432.00,83.69
1431.00,83.83
1430.00,83.96
1429.00,84.06
1428.00,84.12
1427.00,84.15
1426.00,84.17
1425.00,84.19
1424.00,84.20
1423.00,84.19
1422.00,84.18
1421.00,84.16
1420.00,84.10
1419.00,84.03
1418.00,83.98
1417.00,83.95
1416.00,83.93
1415.00,83.88
1414.00,83.82
1413.00,83.76
1412.00,83.69
1411.00,83.62
1410.00,83.55
1409.00,83.49
1408.00,83.41
1407.00,83.33
1406.00,83.23
1405.00,83.13
1404.00,83.03
1403.00,82.95
1402.00,82.89
1401.00,82.83
1400.00,82.75
1399.00,82.67
1398.00,82.60
1397.00,82.54
1396.00,82.48
1395.00,82.43
1394.00,82.40
1393.00,82.38
1392.00,82.37
1391.00,82.36
1390.00,82.36
1389.00,82.37
1388.00,82.38
1387.00,82.42
1386.00,82.46
1385.00,82.52
1384.00,82.58
1383.00,82.67
1382.00,82.77
1381.00,82.88
1380.00,83.00
1379.00,83.12
1378.00,83.25
1377.00,83.37
1376.00,83.48
1375.00,83.58
1374.00,83.69
1373.00,83.79
1372.00,83.87
1371.00,83.95
1370.00,84.04
1369.00,84.14
1368.00,84.25
1367.00,84.36
1366.00,84.46
1365.00,84.57
1364.00,84.68
1363.00,84.82
1362.00,84.95
1361.00,85.07
1360.00,85.16
1359.00,85.23
1358.00,85.30
1357.00,85.36
1356.00,85.42
1355.00,85.47
1354.00,85.50
1353.00,85.52
1352.00,85.52
1351.00,85.53
1350.00,85.55
1349.00,85.57
1348.00,85.58
1347.00,85.59
1346.00,85.58
1345.00,85.58
1344.00,85.57
1343.00,85.55
1342.00,85.54
1341.00,85.52
1340.00,85.52
1339.00,85.54
1338.00,85.57
1337.00,85.60
1336.00,85.62
1335.00,85.64
1334.00,85.65
1333.00,85.66
1332.00,85.66
1331.00,85.66
1330.00,85.66
1329.00,85.66
1328.00,85.66
1327.00,85.65
1326.00,85.64
1325.00,85.61
1324.00,85.58
1323.00,85.54
1322.00,85.50
1321.00,85.46
1320.00,85.42
1319.00,85.38
1318.00,85.35
1317.00,85.32
1316.00,85.29
1315.00,85.27
1314.00,85.26
1313.00,85.26
1312.00,85.26
1311.00,85.25
1310.00,85.25
1309.00,85.24
1308.00,85.23
1307.00,85.22
1306.00,85.23
1305.00,85.23
1304.00,85.23
1303.00,85.23
1302.00,85.23
1301.00,85.24
1300.00,85.26
1299.00,85.27
1298.00,85.28
1297.00,85.30
1296.00,85.32
1295.00,85.33
1294.00,85.33
1293.00,85.32
1292.00,85.30
1291.00,85.27
1290.00,85.27
1289.00,85.28
1288.00,85.28
1287.00,85.28
1286.00,85.27
1285.00,85.25
1284.00,85.23
1283.00,85.21
1282.00,85.20
1281.00,85.20
1280.00,85.18
1279.00,85.16
1278.00,85.14
1277.00,85.13
1276.00,85.12
1275.00,85.11
1274.00,85.08
1273.00,85.05
1272.00,85.01
1271.00,84.96
1270.00,84.92
1269.00,84.88
1268.00,84.85
1267.00,84.82
1266.00,84.78
1265.00,84.74
1264.00,84.68
1263.00,84.62
1262.00,84.56
1261.00,84.50
1260.00,84.42
1259.00,84.35
1258.00,84.27
1257.00,84.19
1256.00,84.11
1255.00,84.04
1254.00,83.97
1253.00,83.89
1252.00,83.80
1251.00,83.71
1250.00,83.61
1249.00,83.52
1248.00,83.43
1247.00,83.35
1246.00,83.28
1245.00,83.20
1244.00,83.12
1243.00,83.04
1242.00,82.97
1241.00,82.91
1240.00,82.86
1239.00,82.83
1238.00,82.82
1237.00,82.80
1236.00,82.78
1235.00,82.76
1234.00,82.76
1233.00,82.77
1232.00,82.79
1231.00,82.80
1230.00,82.82
1229.00,82.86
1228.00,82.91
1227.00,82.97
1226.00,83.04
1225.00,83.11
1224.00,83.18
1223.00,83.25
1222.00,83.33
1221.00,83.41
1220.00,83.50
1219.00,83.58
1218.00,83.66
1217.00,83.73
1216.00,83.80
1215.00,83.88
1214.00,83.98
1213.00,84.06
1212.00,84.12
1211.00,84.16
1210.00,84.19
1209.00,84.23
1208.00,84.28
1207.00,84.33
1206.00,84.38
1205.00,84.43
1204.00,84.47
1203.00,84.51
1202.00,84.54
1201.00,84.57
1200.00,84.60
1199.00,84.63
1198.00,84.67
1197.00,84.72
1196.00,84.77
1195.00,84.82
1194.00,84.86
1193.00,84.91
1192.00,84.95
1191.00,84.99
1190.00,85.04
1189.00,85.10
1188.00,85.16
1187.00,85.21
1186.00,85.26
1185.00,85.30
1184.00,85.34
1183.00,85.38
1182.00,85.42
1181.00,85.45
1180.00,85.45
1179.00,85.44
1178.00,85.43
1177.00,85.42
1176.00,85.39
1175.00,85.36
1174.00,85.34
1173.00,85.35
1172.00,85.38
1171.00,85.43
1170.00,85.49
1169.00,85.54
1168.00,85.58
1167.00,85.62
1166.00,85.67
1165.00,85.73
1164.00,85.78
1163.00,85.81
1162.00,85.85
1161.00,85.90
1160.00,85.96
1159.00,86.02
1158.00,86.08
1157.00,86.14
1156.00,86.21
1155.00,86.27
1154.00,86.32
1153.00,86.37
1152.00,86.42
1151.00,86.50
1150.00,86.58
1149.00,86.67
1148.00,86.74
1147.00,86.81
1146.00,86.89
1145.00,86.97
1144.00,87.04
1143.00,87.10
1142.00,87.16
1141.00,87.20
1140.00,87.22
1139.00,87.22
1138.00,87.22
1137.00,87.21
1136.00,87.21
1135.00,87.21
1134.00,87.21
1133.00,87.19
1132.00,87.14
1131.00,87.09
1130.00,87.04
1129.00,87.01
1128.00,86.98
1127.00,86.96
1126.00,86.94
1125.00,86.93
1124.00,86.92
1123.00,86.90
1122.00,86.89
1121.00,86.88
1120.00,86.85
1119.00,86.82
1118.00,86.80
1117.00,86.79
1116.00,86.78
1115.00,86.77
1114.00,86.75
1113.00,86.74
1112.00,86.73
1111.00,86.73
1110.00,86.72
1109.00,86.72
1108.00,86.70
1107.00,86.67
1106.00,86.65
1105.00,86.63
1104.00,86.62
1103.00,86.61
1102.00,86.62
1101.00,86.64
1100.00,86.65
1099.00,86.65
1098.00,86.64
1097.00,86.63
1096.00,86.62
1095.00,86.60
1094.00,86.55
1093.00,86.48
1092.00,86.40
1091.00,86.33
1090.00,86.29
1089.00,86.26
1088.00,86.22
1087.00,86.16
1086.00,86.09
1085.00,86.02
1084.00,85.96
1083.00,85.89
1082.00,85.83
1081.00,85.76
1080.00,85.72
1079.00,85.69
1078.00,85.67
1077.00,85.65
1076.00,85.62
1075.00,85.61
1074.00,85.63
1073.00,85.67
1072.00,85.70
1071.00,85.72
1070.00,85.76
1069.00,85.80
1068.00,85.83
1067.00,85.84
1066.00,85.85
1065.00,85.90
1064.00,85.98
1063.00,86.08
1062.00,86.14
1061.00,86.17
1060.00,86.15
1059.00,86.13
1058.00,86.12
1057.00,86.11
1056.00,86.10
1055.00,86.09
1054.00,86.08
1053.00,86.09
1052.00,86.08
1051.00,86.03
1050.00,85.95
1049.00,85.86
1048.00,85.77
1047.00,85.67
1046.00,85.57
1045.00,85.49
1044.00,85.43
1043.00,85.39
1042.00,85.38
1041.00,85.41
1040.00,85.46
1039.00,85.54
1038.00,85.65
1037.00,85.76
1036.00,85.89
1035.00,86.02
1034.00,86.14
1033.00,86.26
1032.00,86.36
1031.00,86.45
1030.00,86.55
1029.00,86.64
1028.00,86.71
1027.00,86.76
1026.00,86.81
1025.00,86.88
1024.00,86.97
1023.00,87.09
1022.00,87.23
1021.00,87.39
1020.00,87.55
1019.00,87.71
1018.00,87.85
1017.00,87.99
1016.00,88.11
1015.00,88.21
1014.00,88.29
1013.00,88.38
1012.00,88.47
1011.00,88.57
1010.00,88.69
1009.00,88.79
1008.00,88.89
1007.00,88.98
1006.00,89.05
1005.00,89.13
1004.00,89.21
1003.00,89.28
1002.00,89.35
1001.00,89.41
1000.00,89.49
999.00,89.56
998.00,89.63
997.00,89.69
996.00,89.73
995.00,89.76
994.00,89.80
993.00,89.84
992.00,89.88
991.00,89.91
990.00,89.95
989.00,89.99
988.00,90.03
987.00,90.06
986.00,90.08
985.00,90.10
984.00,90.13
983.00,90.17
982.00,90.22
981.00,90.27
980.00,90.31
979.00,90.34
978.00,90.36
977.00,90.38
976.00,90.40
975.00,90.42
974.00,90.45
973.00,90.49
972.00,90.54
971.00,90.58
970.00,90.60
969.00,90.61
968.00,90.62
967.00,90.66
966.00,90.69
965.00,90.72
964.00,90.74
963.00,90.74
962.00,90.75
961.00,90.75
960.00,90.77
959.00,90.79
958.00,90.82
957.00,90.85
956.00,90.86
955.00,90.87
954.00,90.89
953.00,90.93
952.00,90.98
951.00,91.01
950.00,91.03
949.00,91.02
948.00,91.01
947.00,91.00
946.00,90.99
945.00,90.99
944.00,90.97
943.00,90.96
942.00,90.93
941.00,90.91
940.00,90.89
939.00,90.87
938.00,90.84
937.00,90.81
936.00,90.79
935.00,90.77
934.00,90.76
933.00,90.74
932.00,90.72
931.00,90.70
930.00,90.69
929.00,90.71
928.00,90.73
927.00,90.75
926.00,90.76
925.00,90.76
924.00,90.76
923.00,90.76
922.00,90.77
921.00,90.80
920.00,90.83
919.00,90.86
918.00,90.87
917.00,90.88
916.00,90.91
915.00,90.96
914.00,91.02
913.00,91.05
912.00,91.06
911.00,91.06
910.00,91.06
909.00,91.08
908.00,91.12
907.00,91.15
906.00,91.17
905.00,91.15
904.00,91.12
903.00,91.10
902.00,91.09
901.00,91.09
900.00,91.10
899.00,91.11
898.00,91.12
897.00,91.14
896.00,91.15
895.00,91.16
894.00,91.16
893.00,91.15
892.00,91.13
891.00,91.09
890.00,91.08
889.00,91.08
888.00,91.08
887.00,91.07
886.00,91.04
885.00,91.02
884.00,91.01
883.00,91.01
882.00,90.99
881.00,90.96
880.00,90.94
879.00,90.93
878.00,90.92
877.00,90.90
876.00,90.89
875.00,90.87
874.00,90.84
873.00,90.81
872.00,90.78
871.00,90.76
870.00,90.75
869.00,90.74
868.00,90.72
867.00,90.70
866.00,90.69
865.00,90.68
864.00,90.66
863.00,90.64
862.00,90.62
861.00,90.60
860.00,90.58
859.00,90.56
858.00,90.54
857.00,90.53
856.00,90.53
855.00,90.51
854.00,90.47
853.00,90.41
852.00,90.34
851.00,90.29
850.00,90.25
849.00,90.21
848.00,90.16
847.00,90.11
846.00,90.07
845.00,90.02
844.00,89.96
843.00,89.89
842.00,89.85
841.00,89.82
840.00,89.79
839.00,89.76
838.00,89.71
837.00,89.66
836.00,89.60
835.00,89.54
834.00,89.49
833.00,89.43
832.00,89.38
831.00,89.36
830.00,89.36
829.00,89.37
828.00,89.34
827.00,89.28
826.00,89.21
825.00,89.17
824.00,89.14
823.00,89.11
822.00,89.09
821.00,89.05
820.00,89.00
819.00,88.94
818.00,88.88
817.00,88.82
816.00,88.78
815.00,88.74
814.00,88.70
813.00,88.64
812.00,88.57
811.00,88.49
810.00,88.43
809.00,88.39
808.00,88.35
807.00,88.30
806.00,88.23
805.00,88.17
804.00,88.11
803.00,88.07
802.00,88.02
801.00,87.96
800.00,87.90
799.00,87.83
798.00,87.77
797.00,87.71
796.00,87.63
795.00,87.53
794.00,87.46
793.00,87.42
792.00,87.39
791.00,87.35
790.00,87.28
789.00,87.19
788.00,87.12
787.00,87.06
786.00,87.02
785.00,86.99
784.00,86.94
783.00,86.86
782.00,86.75
781.00,86.65
780.00,86.57
779.00,86.53
778.00,86.50
777.00,86.47
776.00,86.42
775.00,86.35
774.00,86.27
773.00,86.17
772.00,86.07
771.00,85.96
770.00,85.86
769.00,85.79
768.00,85.75
767.00,85.73
766.00,85.72
765.00,85.69
764.00,85.62
763.00,85.53
762.00,85.43
761.00,85.34
760.00,85.26
759.00,85.19
758.00,85.13
757.00,85.08
756.00,85.03
755.00,84.95
754.00,84.86
753.00,84.78
752.00,84.72
751.00,84.67
750.00,84.61
749.00,84.54
748.00,84.45
747.00,84.39
746.00,84.33
745.00,84.29
744.00,84.23
743.00,84.18
742.00,84.14
741.00,84.11
740.00,84.07
739.00,84.03
738.00,84.00
737.00,83.97
736.00,83.92
735.00,83.86
734.00,83.81
733.00,83.76
732.00,83.71
731.00,83.64
730.00,83.55
729.00,83.43
728.00,83.31
727.00,83.19
726.00,83.09
725.00,82.98
724.00,82.87
723.00,82.76
722.00,82.67
721.00,82.57
720.00,82.48
719.00,82.42
718.00,82.39
717.00,82.35
716.00,82.27
715.00,82.15
714.00,82.03
713.00,81.91
712.00,81.81
711.00,81.72
710.00,81.63
709.00,81.53
708.00,81.41
707.00,81.29
706.00,81.18
705.00,81.08
704.00,80.98
703.00,80.87
702.00,80.77
701.00,80.65
700.00,80.53
699.00,80.42
698.00,80.35
697.00,80.32
696.00,80.30
695.00,80.28
694.00,80.23
693.00,80.16
692.00,80.06
691.00,79.97
690.00,79.91
689.00,79.87
688.00,79.84
687.00,79.78
686.00,79.70
685.00,79.60
684.00,79.49
683.00,79.42
682.00,79.37
681.00,79.32
680.00,79.23
679.00,79.13
678.00,79.05
677.00,78.98
676.00,78.90
675.00,78.80
674.00,78.68
673.00,78.61
672.00,78.61
671.00,78.67
670.00,78.73
669.00,78.68
668.00,78.43
667.00,78.15
666.00,77.97
665.00,77.88
664.00,77.83
663.00,77.79
662.00,77.74
661.00,77.67
660.00,77.58
659.00,77.50
658.00,77.43
657.00,77.36
656.00,77.28
655.00,77.20
654.00,77.14
653.00,77.09
652.00,77.04
651.00,77.00
650.00,76.99
649.00,76.99
648.00,76.99
647.00,76.95
646.00,76.89
645.00,76.84
644.00,76.80
643.00,76.78
642.00,76.73
641.00,76.63
640.00,76.48
639.00,76.33
638.00,76.22
637.00,76.13
636.00,76.03
635.00,75.95
634.00,75.90
633.00,75.88
632.00,75.92
631.00,76.03
630.00,76.14
629.00,76.11
628.00,75.86
627.00,75.50
626.00,75.19
625.00,75.02
624.00,74.97
623.00,74.96
622.00,74.89
621.00,74.73
620.00,74.54
619.00,74.48
618.00,74.60
617.00,74.76
616.00,74.82
615.00,74.75
614.00,74.59
613.00,74.40
612.00,74.24
611.00,74.18
610.00,74.14
609.00,74.03
608.00,73.91
607.00,73.90
606.00,73.98
605.00,74.05
604.00,74.17
603.00,74.54
602.00,75.13
601.00,75.61
600.00,75.59
599.00,75.02
598.00,74.16
597.00,73.41
596.00,73.04
595.00,73.14
594.00,73.50
593.00,73.73
592.00,73.66
591.00,73.48
590.00,73.35
589.00,73.24
588.00,73.12
587.00,73.15
586.00,73.44
585.00,73.80
584.00,73.94
583.00,73.82
582.00,73.62
581.00,73.45
580.00,73.35
579.00,73.43
578.00,73.74
577.00,74.13
576.00,74.41
575.00,74.44
574.00,74.06
573.00,73.17
572.00,72.05
571.00,71.31
570.00,71.29
569.00,71.63
568.00,71.71
567.00,71.41
566.00,71.07
565.00,71.11
564.00,71.68
563.00,72.54
562.00,73.17
561.00,73.29
560.00,73.11
559.00,72.95
558.00,72.66
557.00,71.93
556.00,71.01
555.00,70.58
554.00,70.88
553.00,71.35
552.00,71.45
551.00,71.25
550.00,71.07
