Created as New Dataset,Natural, 11.3
cm-1,%T
4000.00,99.51
3999.00,99.50
3998.00,99.49
3997.00,99.49
3996.00,99.48
3995.00,99.48
3994.00,99.49
3993.00,99.49
3992.00,99.48
3991.00,99.48
3990.00,99.47
3989.00,99.47
3988.00,99.47
3987.00,99.45
3986.00,99.44
3985.00,99.43
3984.00,99.43
3983.00,99.45
3982.00,99.46
3981.00,99.47
3980.00,99.46
3979.00,99.46
3978.00,99.45
3977.00,99.45
3976.00,99.46
3975.00,99.46
3974.00,99.47
3973.00,99.47
3972.00,99.47
3971.00,99.48
3970.00,99.48
3969.00,99.48
3968.00,99.48
3967.00,99.47
3966.00,99.45
3965.00,99.44
3964.00,99.44
3963.00,99.45
3962.00,99.46
3961.00,99.48
3960.00,99.49
3959.00,99.50
3958.00,99.50
3957.00,99.50
3956.00,99.49
3955.00,99.48
3954.00,99.47
3953.00,99.46
3952.00,99.48
3951.00,99.49
3950.00,99.51
3949.00,99.51
3948.00,99.50
3947.00,99.48
3946.00,99.46
3945.00,99.45
3944.00,99.45
3943.00,99.47
3942.00,99.49
3941.00,99.50
3940.00,99.50
3939.00,99.50
3938.00,99.49
3937.00,99.47
3936.00,99.47
3935.00,99.47
3934.00,99.47
3933.00,99.47
3932.00,99.47
3931.00,99.46
3930.00,99.45
3929.00,99.46
3928.00,99.46
3927.00,99.47
3926.00,99.47
3925.00,99.46
3924.00,99.45
3923.00,99.45
3922.00,99.45
3921.00,99.46
3920.00,99.46
3919.00,99.45
3918.00,99.43
3917.00,99.42
3916.00,99.43
3915.00,99.43
3914.00,99.43
3913.00,99.43
3912.00,99.43
3911.00,99.43
3910.00,99.43
3909.00,99.45
3908.00,99.46
3907.00,99.46
3906.00,99.46
3905.00,99.44
3904.00,99.44
3903.00,99.44
3902.00,99.45
3901.00,99.45
3900.00,99.45
3899.00,99.45
3898.00,99.45
3897.00,99.46
3896.00,99.47
3895.00,99.47
3894.00,99.46
3893.00,99.45
3892.00,99.44
3891.00,99.43
3890.00,99.43
3889.00,99.43
3888.00,99.43
3887.00,99.44
3886.00,99.44
3885.00,99.45
3884.00,99.46
3883.00,99.45
3882.00,99.45
3881.00,99.44
3880.00,99.45
3879.00,99.45
3878.00,99.46
3877.00,99.46
3876.00,99.46
3875.00,99.46
3874.00,99.47
3873.00,99.47
3872.00,99.47
3871.00,99.47
3870.00,99.47
3869.00,99.47
3868.00,99.46
3867.00,99.45
3866.00,99.45
3865.00,99.45
3864.00,99.44
3863.00,99.43
3862.00,99.43
3861.00,99.43
3860.00,99.43
3859.00,99.44
3858.00,99.44
3857.00,99.45
3856.00,99.45
3855.00,99.47
3854.00,99.49
3853.00,99.49
3852.00,99.48
3851.00,99.47
3850.00,99.47
3849.00,99.46
3848.00,99.46
3847.00,99.46
3846.00,99.46
3845.00,99.46
3844.00,99.46
3843.00,99.45
3842.00,99.45
3841.00,99.46
3840.00,99.47
3839.00,99.49
3838.00,99.51
3837.00,99.51
3836.00,99.50
3835.00,99.48
3834.00,99.45
3833.00,99.43
3832.00,99.43
3831.00,99.43
3830.00,99.44
3829.00,99.43
3828.00,99.43
3827.00,99.42
3826.00,99.42
3825.00,99.42
3824.00,99.42
3823.00,99.43
3822.00,99.45
3821.00,99.46
3820.00,99.47
3819.00,99.46
3818.00,99.44
3817.00,99.43
3816.00,99.42
3815.00,99.41
3814.00,99.40
3813.00,99.40
3812.00,99.39
3811.00,99.39
3810.00,99.38
3809.00,99.39
3808.00,99.40
3807.00,99.42
3806.00,99.44
3805.00,99.44
3804.00,99.43
3803.00,99.41
3802.00,99.40
3801.00,99.39
3800.00,99.40
3799.00,99.40
3798.00,99.41
3797.00,99.40
3796.00,99.39
3795.00,99.38
3794.00,99.38
3793.00,99.39
3792.00,99.40
3791.00,99.40
3790.00,99.40
3789.00,99.40
3788.00,99.41
3787.00,99.42
3786.00,99.43
3785.00,99.42
3784.00,99.41
3783.00,99.39
3782.00,99.39
3781.00,99.39
3780.00,99.39
3779.00,99.37
3778.00,99.35
3777.00,99.34
3776.00,99.34
3775.00,99.35
3774.00,99.36
3773.00,99.36
3772.00,99.36
3771.00,99.34
3770.00,99.33
3769.00,99.32
3768.00,99.31
3767.00,99.32
3766.00,99.34
3765.00,99.36
3764.00,99.36
3763.00,99.35
3762.00,99.33
3761.00,99.31
3760.00,99.30
3759.00,99.30
3758.00,99.31
3757.00,99.32
3756.00,99.32
3755.00,99.33
3754.00,99.34
3753.00,99.37
3752.00,99.39
3751.00,99.39
3750.00,99.37
3749.00,99.35
3748.00,99.32
3747.00,99.28
3746.00,99.24
3745.00,99.24
3744.00,99.25
3743.00,99.26
3742.00,99.27
3741.00,99.28
3740.00,99.29
3739.00,99.30
3738.00,99.30
3737.00,99.28
3736.00,99.26
3735.00,99.23
3734.00,99.22
3733.00,99.23
3732.00,99.25
3731.00,99.26
3730.00,99.24
3729.00,99.22
3728.00,99.21
3727.00,99.21
3726.00,99.23
3725.00,99.24
3724.00,99.25
3723.00,99.25
3722.00,99.25
3721.00,99.25
3720.00,99.24
3719.00,99.23
3718.00,99.21
3717.00,99.20
3716.00,99.19
3715.00,99.19
3714.00,99.19
3713.00,99.18
3712.00,99.17
3711.00,99.17
3710.00,99.17
3709.00,99.18
3708.00,99.18
3707.00,99.16
3706.00,99.14
3705.00,99.13
3704.00,99.11
3703.00,99.08
3702.00,99.04
3701.00,99.01
3700.00,99.00
3699.00,99.00
3698.00,99.02
3697.00,99.03
3696.00,99.04
3695.00,99.04
3694.00,99.04
3693.00,99.05
3692.00,99.05
3691.00,99.04
3690.00,99.00
3689.00,98.97
3688.00,98.96
3687.00,98.95
3686.00,98.95
3685.00,98.96
3684.00,98.96
3683.00,98.97
3682.00,98.98
3681.00,98.98
3680.00,98.98
3679.00,98.96
3678.00,98.93
3677.00,98.90
3676.00,98.88
3675.00,98.88
3674.00,98.89
3673.00,98.88
3672.00,98.85
3671.00,98.83
3670.00,98.81
3669.00,98.81
3668.00,98.81
3667.00,98.80
3666.00,98.79
3665.00,98.77
3664.00,98.75
3663.00,98.73
3662.00,98.71
3661.00,98.70
3660.00,98.68
3659.00,98.67
3658.00,98.65
3657.00,98.64
3656.00,98.63
3655.00,98.62
3654.00,98.61
3653.00,98.59
3652.00,98.56
3651.00,98.52
3650.00,98.49
3649.00,98.46
3648.00,98.45
3647.00,98.43
3646.00,98.41
3645.00,98.39
3644.00,98.38
3643.00,98.37
3642.00,98.35
3641.00,98.33
3640.00,98.30
3639.00,98.28
3638.00,98.27
3637.00,98.25
3636.00,98.22
3635.00,98.20
3634.00,98.17
3633.00,98.14
3632.00,98.11
3631.00,98.09
3630.00,98.06
3629.00,98.03
3628.00,97.99
3627.00,97.96
3626.00,97.93
3625.00,97.92
3624.00,97.91
3623.00,97.90
3622.00,97.88
3621.00,97.86
3620.00,97.82
3619.00,97.78
3618.00,97.74
3617.00,97.71
3616.00,97.69
3615.00,97.66
3614.00,97.63
3613.00,97.61
3612.00,97.59
3611.00,97.59
3610.00,97.58
3609.00,97.55
3608.00,97.51
3607.00,97.47
3606.00,97.43
3605.00,97.40
3604.00,97.37
3603.00,97.36
3602.00,97.34
3601.00,97.33
3600.00,97.32
3599.00,97.30
3598.00,97.28
3597.00,97.26
3596.00,97.21
3595.00,97.15
3594.00,97.09
3593.00,97.04
3592.00,97.02
3591.00,97.01
3590.00,97.01
3589.00,97.01
3588.00,96.99
3587.00,96.96
3586.00,96.93
3585.00,96.90
3584.00,96.87
3583.00,96.84
3582.00,96.80
3581.00,96.76
3580.00,96.72
3579.00,96.68
3578.00,96.65
3577.00,96.63
3576.00,96.62
3575.00,96.60
3574.00,96.58
3573.00,96.54
3572.00,96.50
3571.00,96.45
3570.00,96.40
3569.00,96.37
3568.00,96.33
3567.00,96.30
3566.00,96.25
3565.00,96.21
3564.00,96.18
3563.00,96.15
3562.00,96.13
3561.00,96.11
3560.00,96.09
3559.00,96.06
3558.00,96.02
3557.00,95.97
3556.00,95.94
3555.00,95.92
3554.00,95.90
3553.00,95.88
3552.00,95.84
3551.00,95.79
3550.00,95.74
3549.00,95.70
3548.00,95.67
3547.00,95.64
3546.00,95.61
3545.00,95.57
3544.00,95.53
3543.00,95.49
3542.00,95.47
3541.00,95.46
3540.00,95.45
3539.00,95.44
3538.00,95.41
3537.00,95.36
3536.00,95.31
3535.00,95.26
3534.00,95.23
3533.00,95.21
3532.00,95.20
3531.00,95.18
3530.00,95.16
3529.00,95.13
3528.00,95.10
3527.00,95.06
3526.00,95.03
3525.00,95.00
3524.00,94.98
3523.00,94.95
3522.00,94.93
3521.00,94.91
3520.00,94.89
3519.00,94.86
3518.00,94.84
3517.00,94.82
3516.00,94.79
3515.00,94.76
3514.00,94.73
3513.00,94.69
3512.00,94.67
3511.00,94.65
3510.00,94.62
3509.00,94.59
3508.00,94.55
3507.00,94.52
3506.00,94.48
3505.00,94.44
3504.00,94.40
3503.00,94.36
3502.00,94.34
3501.00,94.32
3500.00,94.31
3499.00,94.29
3498.00,94.27
3497.00,94.23
3496.00,94.20
3495.00,94.18
3494.00,94.16
3493.00,94.14
3492.00,94.12
3491.00,94.09
3490.00,94.06
3489.00,94.02
3488.00,94.00
3487.00,93.98
3486.00,93.97
3485.00,93.95
3484.00,93.92
3483.00,93.89
3482.00,93.85
3481.00,93.83
3480.00,93.81
3479.00,93.78
3478.00,93.76
3477.00,93.74
3476.00,93.72
3475.00,93.71
3474.00,93.69
3473.00,93.66
3472.00,93.62
3471.00,93.58
3470.00,93.56
3469.00,93.54
3468.00,93.53
3467.00,93.52
3466.00,93.50
3465.00,93.46
3464.00,93.42
3463.00,93.39
3462.00,93.37
3461.00,93.34
3460.00,93.31
3459.00,93.27
3458.00,93.23
3457.00,93.21
3456.00,93.19
3455.00,93.18
3454.00,93.18
3453.00,93.17
3452.00,93.16
3451.00,93.15
3450.00,93.13
3449.00,93.10
3448.00,93.07
3447.00,93.02
3446.00,92.98
3445.00,92.94
3444.00,92.91
3443.00,92.89
3442.00,92.87
3441.00,92.85
3440.00,92.83
3439.00,92.80
3438.00,92.77
3437.00,92.73
3436.00,92.69
3435.00,92.66
3434.00,92.64
3433.00,92.62
3432.00,92.61
3431.00,92.60
3430.00,92.59
3429.00,92.57
3428.00,92.55
3427.00,92.52
3426.00,92.50
3425.00,92.47
3424.00,92.44
3423.00,92.41
3422.00,92.37
3421.00,92.34
3420.00,92.31
3419.00,92.28
3418.00,92.25
3417.00,92.23
3416.00,92.21
3415.00,92.18
3414.00,92.15
3413.00,92.12
3412.00,92.10
3411.00,92.08
3410.00,92.07
3409.00,92.05
3408.00,92.03
3407.00,91.99
3406.00,91.94
3405.00,91.89
3404.00,91.86
3403.00,91.85
3402.00,91.83
3401.00,91.82
3400.00,91.80
3399.00,91.77
3398.00,91.74
3397.00,91.71
3396.00,91.68
3395.00,91.67
3394.00,91.67
3393.00,91.66
3392.00,91.64
3391.00,91.60
3390.00,91.56
3389.00,91.53
3388.00,91.52
3387.00,91.50
3386.00,91.49
3385.00,91.46
3384.00,91.43
3383.00,91.39
3382.00,91.36
3381.00,91.33
3380.00,91.31
3379.00,91.28
3378.00,91.26
3377.00,91.24
3376.00,91.22
3375.00,91.20
3374.00,91.17
3373.00,91.14
3372.00,91.11
3371.00,91.07
3370.00,91.02
3369.00,90.98
3368.00,90.95
3367.00,90.91
3366.00,90.88
3365.00,90.86
3364.00,90.85
3363.00,90.83
3362.00,90.82
3361.00,90.79
3360.00,90.76
3359.00,90.73
3358.00,90.69
3357.00,90.66
3356.00,90.64
3355.00,90.62
3354.00,90.60
3353.00,90.57
3352.00,90.55
3351.00,90.52
3350.00,90.50
3349.00,90.47
3348.00,90.43
3347.00,90.39
3346.00,90.36
3345.00,90.33
3344.00,90.30
3343.00,90.26
3342.00,90.23
3341.00,90.20
3340.00,90.18
3339.00,90.15
3338.00,90.12
3337.00,90.09
3336.00,90.04
3335.00,90.00
3334.00,89.96
3333.00,89.93
3332.00,89.91
3331.00,89.89
3330.00,89.86
3329.00,89.82
3328.00,89.79
3327.00,89.75
3326.00,89.72
3325.00,89.68
3324.00,89.65
3323.00,89.62
3322.00,89.60
3321.00,89.57
3320.00,89.55
3319.00,89.51
3318.00,89.47
3317.00,89.43
3316.00,89.38
3315.00,89.34
3314.00,89.30
3313.00,89.26
3312.00,89.24
3311.00,89.22
3310.00,89.20
3309.00,89.17
3308.00,89.13
3307.00,89.09
3306.00,89.05
3305.00,89.00
3304.00,88.95
3303.00,88.92
3302.00,88.88
3301.00,88.85
3300.00,88.82
3299.00,88.80
3298.00,88.77
3297.00,88.75
3296.00,88.73
3295.00,88.71
3294.00,88.68
3293.00,88.64
3292.00,88.61
3291.00,88.59
3290.00,88.57
3289.00,88.55
3288.00,88.53
3287.00,88.52
3286.00,88.50
3285.00,88.48
3284.00,88.47
3283.00,88.46
3282.00,88.45
3281.00,88.45
3280.00,88.45
3279.00,88.45
3278.00,88.45
3277.00,88.45
3276.00,88.45
3275.00,88.45
3274.00,88.45
3273.00,88.46
3272.00,88.47
3271.00,88.49
3270.00,88.50
3269.00,88.51
3268.00,88.53
3267.00,88.55
3266.00,88.59
3265.00,88.63
3264.00,88.68
3263.00,88.72
3262.00,88.75
3261.00,88.79
3260.00,88.83
3259.00,88.88
3258.00,88.91
3257.00,88.95
3256.00,88.97
3255.00,89.00
3254.00,89.03
3253.00,89.06
3252.00,89.10
3251.00,89.13
3250.00,89.17
3249.00,89.21
3248.00,89.25
3247.00,89.29
3246.00,89.33
3245.00,89.37
3244.00,89.40
3243.00,89.44
3242.00,89.49
3241.00,89.52
3240.00,89.55
3239.00,89.57
3238.00,89.59
3237.00,89.62
3236.00,89.66
3235.00,89.70
3234.00,89.74
3233.00,89.76
3232.00,89.78
3231.00,89.80
3230.00,89.82
3229.00,89.84
3228.00,89.87
3227.00,89.91
3226.00,89.94
3225.00,89.97
3224.00,89.99
3223.00,90.01
3222.00,90.03
3221.00,90.05
3220.00,90.07
3219.00,90.10
3218.00,90.13
3217.00,90.17
3216.00,90.21
3215.00,90.25
3214.00,90.29
3213.00,90.32
3212.00,90.35
3211.00,90.37
3210.00,90.38
3209.00,90.40
3208.00,90.43
3207.00,90.47
3206.00,90.50
3205.00,90.54
3204.00,90.57
3203.00,90.60
3202.00,90.63
3201.00,90.65
3200.00,90.68
3199.00,90.70
3198.00,90.74
3197.00,90.78
3196.00,90.82
3195.00,90.87
3194.00,90.90
3193.00,90.93
3192.00,90.95
3191.00,90.97
3190.00,91.00
3189.00,91.04
3188.00,91.08
3187.00,91.12
3186.00,91.16
3185.00,91.19
3184.00,91.23
3183.00,91.28
3182.00,91.34
3181.00,91.40
3180.00,91.46
3179.00,91.51
3178.00,91.55
3177.00,91.60
3176.00,91.64
3175.00,91.67
3174.00,91.70
3173.00,91.73
3172.00,91.77
3171.00,91.82
3170.00,91.88
3169.00,91.94
3168.00,91.99
3167.00,92.02
3166.00,92.06
3165.00,92.10
3164.00,92.14
3163.00,92.18
3162.00,92.23
3161.00,92.27
3160.00,92.31
3159.00,92.35
3158.00,92.39
3157.00,92.43
3156.00,92.47
3155.00,92.52
3154.00,92.57
3153.00,92.62
3152.00,92.67
3151.00,92.71
3150.00,92.74
3149.00,92.78
3148.00,92.82
3147.00,92.84
3146.00,92.86
3145.00,92.88
3144.00,92.90
3143.00,92.93
3142.00,92.97
3141.00,93.01
3140.00,93.04
3139.00,93.07
3138.00,93.10
3137.00,93.14
3136.00,93.17
3135.00,93.20
3134.00,93.23
3133.00,93.26
3132.00,93.28
3131.00,93.31
3130.00,93.33
3129.00,93.35
3128.00,93.37
3127.00,93.40
3126.00,93.42
3125.00,93.44
3124.00,93.46
3123.00,93.48
3122.00,93.50
3121.00,93.52
3120.00,93.53
3119.00,93.55
3118.00,93.56
3117.00,93.58
3116.00,93.59
3115.00,93.60
3114.00,93.61
3113.00,93.61
3112.00,93.62
3111.00,93.62
3110.00,93.62
3109.00,93.63
3108.00,93.64
3107.00,93.66
3106.00,93.67
3105.00,93.66
3104.00,93.66
3103.00,93.65
3102.00,93.65
3101.00,93.64
3100.00,93.64
3099.00,93.64
3098.00,93.63
3097.00,93.63
3096.00,93.62
3095.00,93.62
3094.00,93.62
3093.00,93.62
3092.00,93.62
3091.00,93.61
3090.00,93.59
3089.00,93.58
3088.00,93.57
3087.00,93.57
3086.00,93.56
3085.00,93.55
3084.00,93.54
3083.00,93.54
3082.00,93.54
3081.00,93.55
3080.00,93.55
3079.00,93.54
3078.00,93.53
3077.00,93.52
3076.00,93.51
3075.00,93.51
3074.00,93.51
3073.00,93.53
3072.00,93.55
3071.00,93.56
3070.00,93.57
3069.00,93.56
3068.00,93.56
3067.00,93.55
3066.00,93.55
3065.00,93.55
3064.00,93.55
3063.00,93.57
3062.00,93.58
3061.00,93.59
3060.00,93.60
3059.00,93.62
3058.00,93.65
3057.00,93.69
3056.00,93.72
3055.00,93.74
3054.00,93.76
3053.00,93.77
3052.00,93.80
3051.00,93.83
3050.00,93.85
3049.00,93.87
3048.00,93.90
3047.00,93.94
3046.00,93.98
3045.00,94.02
3044.00,94.05
3043.00,94.08
3042.00,94.11
3041.00,94.14
3040.00,94.16
3039.00,94.18
3038.00,94.20
3037.00,94.22
3036.00,94.25
3035.00,94.28
3034.00,94.31
3033.00,94.34
3032.00,94.37
3031.00,94.41
3030.00,94.44
3029.00,94.47
3028.00,94.50
3027.00,94.52
3026.00,94.55
3025.00,94.57
3024.00,94.60
3023.00,94.64
3022.00,94.67
3021.00,94.69
3020.00,94.71
3019.00,94.73
3018.00,94.76
3017.00,94.78
3016.00,94.81
3015.00,94.85
3014.00,94.87
3013.00,94.89
3012.00,94.90
3011.00,94.90
3010.00,94.90
3009.00,94.91
3008.00,94.91
3007.00,94.91
3006.00,94.91
3005.00,94.90
3004.00,94.89
3003.00,94.89
3002.00,94.89
3001.00,94.90
3000.00,94.91
2999.00,94.91
2998.00,94.90
2997.00,94.88
2996.00,94.86
2995.00,94.84
2994.00,94.81
2993.00,94.79
2992.00,94.75
2991.00,94.71
2990.00,94.65
2989.00,94.59
2988.00,94.52
2987.00,94.47
2986.00,94.41
2985.00,94.36
2984.00,94.31
2983.00,94.25
2982.00,94.20
2981.00,94.14
2980.00,94.07
2979.00,94.00
2978.00,93.93
2977.00,93.85
2976.00,93.77
2975.00,93.68
2974.00,93.60
2973.00,93.52
2972.00,93.44
2971.00,93.36
2970.00,93.28
2969.00,93.20
2968.00,93.12
2967.00,93.04
2966.00,92.95
2965.00,92.87
2964.00,92.79
2963.00,92.74
2962.00,92.70
2961.00,92.67
2960.00,92.64
2959.00,92.62
2958.00,92.60
2957.00,92.59
2956.00,92.58
2955.00,92.59
2954.00,92.61
2953.00,92.63
2952.00,92.65
2951.00,92.67
2950.00,92.68
2949.00,92.69
2948.00,92.70
2947.00,92.69
2946.00,92.66
2945.00,92.62
2944.00,92.57
2943.00,92.52
2942.00,92.47
2941.00,92.41
2940.00,92.35
2939.00,92.26
2938.00,92.16
2937.00,92.04
2936.00,91.91
2935.00,91.80
2934.00,91.68
2933.00,91.57
2932.00,91.45
2931.00,91.33
2930.00,91.21
2929.00,91.10
2928.00,90.99
2927.00,90.88
2926.00,90.77
2925.00,90.66
2924.00,90.53
2923.00,90.40
2922.00,90.28
2921.00,90.17
2920.00,90.10
2919.00,90.08
2918.00,90.14
2917.00,90.28
2916.00,90.50
2915.00,90.77
2914.00,91.08
2913.00,91.39
2912.00,91.69
2911.00,91.97
2910.00,92.20
2909.00,92.40
2908.00,92.56
2907.00,92.71
2906.00,92.83
2905.00,92.93
2904.00,93.01
2903.00,93.10
2902.00,93.18
2901.00,93.25
2900.00,93.33
2899.00,93.40
2898.00,93.46
2897.00,93.52
2896.00,93.57
2895.00,93.63
2894.00,93.68
2893.00,93.73
2892.00,93.78
2891.00,93.83
2890.00,93.87
2889.00,93.91
2888.00,93.94
2887.00,93.97
2886.00,93.98
2885.00,93.98
2884.00,93.99
2883.00,94.00
2882.00,94.02
2881.00,94.04
2880.00,94.06
2879.00,94.06
2878.00,94.06
2877.00,94.06
2876.00,94.06
2875.00,94.07
2874.00,94.07
2873.00,94.08
2872.00,94.08
2871.00,94.09
2870.00,94.11
2869.00,94.15
2868.00,94.19
2867.00,94.23
2866.00,94.26
2865.00,94.29
2864.00,94.31
2863.00,94.32
2862.00,94.31
2861.00,94.28
2860.00,94.22
2859.00,94.14
2858.00,94.02
2857.00,93.86
2856.00,93.68
2855.00,93.47
2854.00,93.26
2853.00,93.07
2852.00,92.92
2851.00,92.85
2850.00,92.89
2849.00,93.05
2848.00,93.31
2847.00,93.65
2846.00,94.00
2845.00,94.33
2844.00,94.61
2843.00,94.85
2842.00,95.04
2841.00,95.20
2840.00,95.33
2839.00,95.44
2838.00,95.54
2837.00,95.64
2836.00,95.72
2835.00,95.79
2834.00,95.84
2833.00,95.88
2832.00,95.93
2831.00,95.98
2830.00,96.01
2829.00,96.04
2828.00,96.05
2827.00,96.06
2826.00,96.08
2825.00,96.11
2824.00,96.14
2823.00,96.17
2822.00,96.20
2821.00,96.23
2820.00,96.26
2819.00,96.29
2818.00,96.31
2817.00,96.33
2816.00,96.35
2815.00,96.36
2814.00,96.37
2813.00,96.38
2812.00,96.40
2811.00,96.41
2810.00,96.44
2809.00,96.46
2808.00,96.47
2807.00,96.48
2806.00,96.49
2805.00,96.51
2804.00,96.54
2803.00,96.56
2802.00,96.58
2801.00,96.59
2800.00,96.61
2799.00,96.62
2798.00,96.63
2797.00,96.64
2796.00,96.65
2795.00,96.65
2794.00,96.66
2793.00,96.67
2792.00,96.69
2791.00,96.70
2790.00,96.71
2789.00,96.72
2788.00,96.73
2787.00,96.74
2786.00,96.76
2785.00,96.77
2784.00,96.79
2783.00,96.81
2782.00,96.83
2781.00,96.84
2780.00,96.85
2779.00,96.86
2778.00,96.87
2777.00,96.88
2776.00,96.89
2775.00,96.90
2774.00,96.91
2773.00,96.92
2772.00,96.94
2771.00,96.96
2770.00,96.98
2769.00,96.98
2768.00,96.98
2767.00,96.98
2766.00,96.99
2765.00,97.00
2764.00,97.02
2763.00,97.03
2762.00,97.05
2761.00,97.06
2760.00,97.06
2759.00,97.06
2758.00,97.07
2757.00,97.07
2756.00,97.09
2755.00,97.10
2754.00,97.11
2753.00,97.11
2752.00,97.12
2751.00,97.13
2750.00,97.14
2749.00,97.15
2748.00,97.16
2747.00,97.17
2746.00,97.18
2745.00,97.17
2744.00,97.17
2743.00,97.17
2742.00,97.19
2741.00,97.21
2740.00,97.22
2739.00,97.22
2738.00,97.22
2737.00,97.22
2736.00,97.23
2735.00,97.24
2734.00,97.26
2733.00,97.27
2732.00,97.28
2731.00,97.30
2730.00,97.31
2729.00,97.33
2728.00,97.34
2727.00,97.35
2726.00,97.35
2725.00,97.35
2724.00,97.34
2723.00,97.34
2722.00,97.34
2721.00,97.35
2720.00,97.36
2719.00,97.38
2718.00,97.40
2717.00,97.41
2716.00,97.42
2715.00,97.42
2714.00,97.42
2713.00,97.43
2712.00,97.45
2711.00,97.47
2710.00,97.49
2709.00,97.50
2708.00,97.49
2707.00,97.49
2706.00,97.49
2705.00,97.49
2704.00,97.50
2703.00,97.50
2702.00,97.50
2701.00,97.51
2700.00,97.51
2699.00,97.51
2698.00,97.52
2697.00,97.53
2696.00,97.54
2695.00,97.54
2694.00,97.55
2693.00,97.55
2692.00,97.56
2691.00,97.57
2690.00,97.57
2689.00,97.57
2688.00,97.57
2687.00,97.57
2686.00,97.56
2685.00,97.56
2684.00,97.55
2683.00,97.56
2682.00,97.57
2681.00,97.59
2680.00,97.60
2679.00,97.60
2678.00,97.61
2677.00,97.61
2676.00,97.61
2675.00,97.61
2674.00,97.61
2673.00,97.62
2672.00,97.63
2671.00,97.65
2670.00,97.65
2669.00,97.66
2668.00,97.66
2667.00,97.66
2666.00,97.66
2665.00,97.67
2664.00,97.67
2663.00,97.66
2662.00,97.66
2661.00,97.65
2660.00,97.64
2659.00,97.63
2658.00,97.63
2657.00,97.63
2656.00,97.63
2655.00,97.63
2654.00,97.64
2653.00,97.64
2652.00,97.63
2651.00,97.63
2650.00,97.62
2649.00,97.61
2648.00,97.61
2647.00,97.60
2646.00,97.60
2645.00,97.60
2644.00,97.59
2643.00,97.59
2642.00,97.58
2641.00,97.56
2640.00,97.55
2639.00,97.53
2638.00,97.52
2637.00,97.51
2636.00,97.51
2635.00,97.52
2634.00,97.53
2633.00,97.54
2632.00,97.53
2631.00,97.52
2630.00,97.51
2629.00,97.50
2628.00,97.50
2627.00,97.50
2626.00,97.49
2625.00,97.49
2624.00,97.48
2623.00,97.47
2622.00,97.48
2621.00,97.49
2620.00,97.49
2619.00,97.49
2618.00,97.48
2617.00,97.48
2616.00,97.48
2615.00,97.47
2614.00,97.46
2613.00,97.46
2612.00,97.46
2611.00,97.47
2610.00,97.48
2609.00,97.49
2608.00,97.49
2607.00,97.49
2606.00,97.49
2605.00,97.48
2604.00,97.47
2603.00,97.47
2602.00,97.47
2601.00,97.47
2600.00,97.47
2599.00,97.48
2598.00,97.47
2597.00,97.47
2596.00,97.47
2595.00,97.47
2594.00,97.46
2593.00,97.46
2592.00,97.45
2591.00,97.45
2590.00,97.46
2589.00,97.46
2588.00,97.47
2587.00,97.47
2586.00,97.47
2585.00,97.47
2584.00,97.46
2583.00,97.45
2582.00,97.44
2581.00,97.43
2580.00,97.43
2579.00,97.43
2578.00,97.44
2577.00,97.45
2576.00,97.46
2575.00,97.46
2574.00,97.47
2573.00,97.48
2572.00,97.49
2571.00,97.48
2570.00,97.47
2569.00,97.45
2568.00,97.44
2567.00,97.44
2566.00,97.44
2565.00,97.45
2564.00,97.46
2563.00,97.47
2562.00,97.47
2561.00,97.47
2560.00,97.46
2559.00,97.45
2558.00,97.45
2557.00,97.46
2556.00,97.47
2555.00,97.48
2554.00,97.48
2553.00,97.48
2552.00,97.47
2551.00,97.45
2550.00,97.44
2549.00,97.44
2548.00,97.45
2547.00,97.45
2546.00,97.46
2545.00,97.46
2544.00,97.46
2543.00,97.48
2542.00,97.50
2541.00,97.51
2540.00,97.52
2539.00,97.52
2538.00,97.51
2537.00,97.51
2536.00,97.51
2535.00,97.51
2534.00,97.51
2533.00,97.52
2532.00,97.52
2531.00,97.52
2530.00,97.52
2529.00,97.52
2528.00,97.51
2527.00,97.50
2526.00,97.49
2525.00,97.49
2524.00,97.49
2523.00,97.50
2522.00,97.51
2521.00,97.52
2520.00,97.53
2519.00,97.55
2518.00,97.56
2517.00,97.55
2516.00,97.54
2515.00,97.52
2514.00,97.52
2513.00,97.53
2512.00,97.54
2511.00,97.55
2510.00,97.55
2509.00,97.54
2508.00,97.54
2507.00,97.54
2506.00,97.55
2505.00,97.55
2504.00,97.55
2503.00,97.55
2502.00,97.56
2501.00,97.58
2500.00,97.59
2499.00,97.60
2498.00,97.60
2497.00,97.58
2496.00,97.56
2495.00,97.55
2494.00,97.54
2493.00,97.55
2492.00,97.57
2491.00,97.60
2490.00,97.62
2489.00,97.63
2488.00,97.62
2487.00,97.61
2486.00,97.60
2485.00,97.59
2484.00,97.58
2483.00,97.59
2482.00,97.59
2481.00,97.59
2480.00,97.59
2479.00,97.59
2478.00,97.60
2477.00,97.61
2476.00,97.62
2475.00,97.64
2474.00,97.65
2473.00,97.66
2472.00,97.65
2471.00,97.65
2470.00,97.66
2469.00,97.66
2468.00,97.66
2467.00,97.66
2466.00,97.65
2465.00,97.65
2464.00,97.65
2463.00,97.66
2462.00,97.66
2461.00,97.66
2460.00,97.65
2459.00,97.63
2458.00,97.62
2457.00,97.62
2456.00,97.62
2455.00,97.63
2454.00,97.66
2453.00,97.68
2452.00,97.69
2451.00,97.68
2450.00,97.66
2449.00,97.65
2448.00,97.65
2447.00,97.67
2446.00,97.70
2445.00,97.72
2444.00,97.72
2443.00,97.73
2442.00,97.74
2441.00,97.75
2440.00,97.75
2439.00,97.74
2438.00,97.73
2437.00,97.72
2436.00,97.72
2435.00,97.73
2434.00,97.73
2433.00,97.73
2432.00,97.73
2431.00,97.72
2430.00,97.72
2429.00,97.72
2428.00,97.73
2427.00,97.74
2426.00,97.74
2425.00,97.75
2424.00,97.75
2423.00,97.75
2422.00,97.76
2421.00,97.78
2420.00,97.79
2419.00,97.80
2418.00,97.81
2417.00,97.80
2416.00,97.80
2415.00,97.81
2414.00,97.82
2413.00,97.83
2412.00,97.83
2411.00,97.82
2410.00,97.80
2409.00,97.80
2408.00,97.80
2407.00,97.82
2406.00,97.84
2405.00,97.85
2404.00,97.87
2403.00,97.87
2402.00,97.88
2401.00,97.88
2400.00,97.89
2399.00,97.90
2398.00,97.92
2397.00,97.94
2396.00,97.95
2395.00,97.97
2394.00,97.98
2393.00,97.98
2392.00,97.98
2391.00,97.98
2390.00,97.99
2389.00,98.00
2388.00,98.02
2387.00,98.03
2386.00,98.05
2385.00,98.06
2384.00,98.06
2383.00,98.06
2382.00,98.07
2381.00,98.10
2380.00,98.13
2379.00,98.16
2378.00,98.18
2377.00,98.19
2376.00,98.19
2375.00,98.18
2374.00,98.16
2373.00,98.14
2372.00,98.13
2371.00,98.14
2370.00,98.16
2369.00,98.18
2368.00,98.18
2367.00,98.18
2366.00,98.17
2365.00,98.18
2364.00,98.19
2363.00,98.19
2362.00,98.18
2361.00,98.16
2360.00,98.13
2359.00,98.12
2358.00,98.11
2357.00,98.13
2356.00,98.16
2355.00,98.20
2354.00,98.23
2353.00,98.22
2352.00,98.16
2351.00,98.10
2350.00,98.09
2349.00,98.14
2348.00,98.20
2347.00,98.25
2346.00,98.24
2345.00,98.21
2344.00,98.18
2343.00,98.18
2342.00,98.19
2341.00,98.20
2340.00,98.18
2339.00,98.17
2338.00,98.16
2337.00,98.15
2336.00,98.14
2335.00,98.15
2334.00,98.18
2333.00,98.20
2332.00,98.20
2331.00,98.19
2330.00,98.18
2329.00,98.17
2328.00,98.16
2327.00,98.14
2326.00,98.10
2325.00,98.04
2324.00,97.98
2323.00,97.94
2322.00,97.93
2321.00,97.94
2320.00,97.94
2319.00,97.94
2318.00,97.94
2317.00,97.94
2316.00,97.94
2315.00,97.95
2314.00,97.97
2313.00,97.97
2312.00,97.96
2311.00,97.94
2310.00,97.92
2309.00,97.90
2308.00,97.89
2307.00,97.89
2306.00,97.89
2305.00,97.89
2304.00,97.88
2303.00,97.87
2302.00,97.85
2301.00,97.83
2300.00,97.80
2299.00,97.76
2298.00,97.73
2297.00,97.70
2296.00,97.67
2295.00,97.65
2294.00,97.63
2293.00,97.62
2292.00,97.62
2291.00,97.61
2290.00,97.59
2289.00,97.56
2288.00,97.52
2287.00,97.48
2286.00,97.46
2285.00,97.45
2284.00,97.44
2283.00,97.43
2282.00,97.41
2281.00,97.40
2280.00,97.39
2279.00,97.38
2278.00,97.37
2277.00,97.35
2276.00,97.34
2275.00,97.34
2274.00,97.34
2273.00,97.32
2272.00,97.28
2271.00,97.25
2270.00,97.22
2269.00,97.20
2268.00,97.18
2267.00,97.16
2266.00,97.15
2265.00,97.14
2264.00,97.15
2263.00,97.16
2262.00,97.17
2261.00,97.17
2260.00,97.15
2259.00,97.12
2258.00,97.08
2257.00,97.03
2256.00,96.99
2255.00,97.00
2254.00,97.03
2253.00,97.07
2252.00,97.09
2251.00,97.06
2250.00,97.01
2249.00,96.97
2248.00,96.95
2247.00,96.96
2246.00,96.97
2245.00,96.96
2244.00,96.94
2243.00,96.92
2242.00,96.92
2241.00,96.91
2240.00,96.89
2239.00,96.87
2238.00,96.84
2237.00,96.83
2236.00,96.83
2235.00,96.84
2234.00,96.84
2233.00,96.81
2232.00,96.78
2231.00,96.76
2230.00,96.75
2229.00,96.73
2228.00,96.68
2227.00,96.63
2226.00,96.59
2225.00,96.59
2224.00,96.61
2223.00,96.65
2222.00,96.67
2221.00,96.67
2220.00,96.67
2219.00,96.65
2218.00,96.63
2217.00,96.59
2216.00,96.57
2215.00,96.55
2214.00,96.55
2213.00,96.56
2212.00,96.56
2211.00,96.56
2210.00,96.55
2209.00,96.53
2208.00,96.51
2207.00,96.49
2206.00,96.46
2205.00,96.42
2204.00,96.39
2203.00,96.40
2202.00,96.43
2201.00,96.44
2200.00,96.43
2199.00,96.40
2198.00,96.37
2197.00,96.34
2196.00,96.31
2195.00,96.28
2194.00,96.25
2193.00,96.21
2192.00,96.16
2191.00,96.13
2190.00,96.10
2189.00,96.10
2188.00,96.10
2187.00,96.11
2186.00,96.11
2185.00,96.09
2184.00,96.07
2183.00,96.07
2182.00,96.10
2181.00,96.14
2180.00,96.13
2179.00,96.08
2178.00,96.01
2177.00,95.96
2176.00,95.94
2175.00,95.94
2174.00,95.93
2173.00,95.92
2172.00,95.91
2171.00,95.90
2170.00,95.87
2169.00,95.83
2168.00,95.77
2167.00,95.73
2166.00,95.69
2165.00,95.65
2164.00,95.61
2163.00,95.56
2162.00,95.50
2161.00,95.46
2160.00,95.49
2159.00,95.61
2158.00,95.78
2157.00,95.96
2156.00,96.09
2155.00,96.18
2154.00,96.22
2153.00,96.23
2152.00,96.23
2151.00,96.25
2150.00,96.28
2149.00,96.33
2148.00,96.38
2147.00,96.43
2146.00,96.48
2145.00,96.53
2144.00,96.58
2143.00,96.63
2142.00,96.66
2141.00,96.68
2140.00,96.68
2139.00,96.67
2138.00,96.69
2137.00,96.72
2136.00,96.78
2135.00,96.85
2134.00,96.92
2133.00,96.99
2132.00,97.03
2131.00,97.07
2130.00,97.09
2129.00,97.11
2128.00,97.14
2127.00,97.17
2126.00,97.19
2125.00,97.18
2124.00,97.17
2123.00,97.18
2122.00,97.20
2121.00,97.21
2120.00,97.22
2119.00,97.21
2118.00,97.20
2117.00,97.17
2116.00,97.13
2115.00,97.10
2114.00,97.09
2113.00,97.09
2112.00,97.10
2111.00,97.09
2110.00,97.07
2109.00,97.05
2108.00,97.05
2107.00,97.06
2106.00,97.06
2105.00,97.06
2104.00,97.04
2103.00,97.03
2102.00,97.03
2101.00,97.03
2100.00,97.04
2099.00,97.06
2098.00,97.08
2097.00,97.10
2096.00,97.13
2095.00,97.14
2094.00,97.14
2093.00,97.14
2092.00,97.12
2091.00,97.10
2090.00,97.10
2089.00,97.11
2088.00,97.12
2087.00,97.11
2086.00,97.09
2085.00,97.07
2084.00,97.06
2083.00,97.06
2082.00,97.06
2081.00,97.05
2080.00,97.03
2079.00,97.02
2078.00,97.01
2077.00,96.99
2076.00,96.97
2075.00,96.96
2074.00,96.95
2073.00,96.94
2072.00,96.93
2071.00,96.93
2070.00,96.91
2069.00,96.89
2068.00,96.87
2067.00,96.87
2066.00,96.89
2065.00,96.91
2064.00,96.91
2063.00,96.91
2062.00,96.90
2061.00,96.88
2060.00,96.85
2059.00,96.82
2058.00,96.77
2057.00,96.73
2056.00,96.71
2055.00,96.71
2054.00,96.71
2053.00,96.67
2052.00,96.58
2051.00,96.50
2050.00,96.45
2049.00,96.45
2048.00,96.46
2047.00,96.45
2046.00,96.41
2045.00,96.36
2044.00,96.31
2043.00,96.26
2042.00,96.20
2041.00,96.15
2040.00,96.11
2039.00,96.08
2038.00,96.06
2037.00,96.03
2036.00,96.02
2035.00,96.05
2034.00,96.11
2033.00,96.16
2032.00,96.17
2031.00,96.15
2030.00,96.11
2029.00,96.08
2028.00,96.08
2027.00,96.10
2026.00,96.13
2025.00,96.16
2024.00,96.19
2023.00,96.22
2022.00,96.21
2021.00,96.18
2020.00,96.16
2019.00,96.17
2018.00,96.20
2017.00,96.23
2016.00,96.25
2015.00,96.25
2014.00,96.25
2013.00,96.23
2012.00,96.20
2011.00,96.19
2010.00,96.22
2009.00,96.28
2008.00,96.36
2007.00,96.44
2006.00,96.48
2005.00,96.50
2004.00,96.52
2003.00,96.58
2002.00,96.64
2001.00,96.66
2000.00,96.64
1999.00,96.59
1998.00,96.54
1997.00,96.51
1996.00,96.51
1995.00,96.52
1994.00,96.52
1993.00,96.49
1992.00,96.48
1991.00,96.49
1990.00,96.54
1989.00,96.58
1988.00,96.61
1987.00,96.62
1986.00,96.61
1985.00,96.56
1984.00,96.48
1983.00,96.41
1982.00,96.35
1981.00,96.31
1980.00,96.28
1979.00,96.27
1978.00,96.27
1977.00,96.28
1976.00,96.30
1975.00,96.35
1974.00,96.39
1973.00,96.42
1972.00,96.44
1971.00,96.48
1970.00,96.52
1969.00,96.57
1968.00,96.61
1967.00,96.65
1966.00,96.67
1965.00,96.67
1964.00,96.69
1963.00,96.74
1962.00,96.81
1961.00,96.88
1960.00,96.94
1959.00,97.00
1958.00,97.05
1957.00,97.07
1956.00,97.08
1955.00,97.09
1954.00,97.10
1953.00,97.11
1952.00,97.12
1951.00,97.15
1950.00,97.18
1949.00,97.19
1948.00,97.19
1947.00,97.19
1946.00,97.21
1945.00,97.22
1944.00,97.23
1943.00,97.25
1942.00,97.28
1941.00,97.31
1940.00,97.33
1939.00,97.35
1938.00,97.39
1937.00,97.43
1936.00,97.48
1935.00,97.52
1934.00,97.54
1933.00,97.55
1932.00,97.56
1931.00,97.58
1930.00,97.61
1929.00,97.62
1928.00,97.60
1927.00,97.58
1926.00,97.57
1925.00,97.57
1924.00,97.58
1923.00,97.60
1922.00,97.62
1921.00,97.63
1920.00,97.65
1919.00,97.69
1918.00,97.72
1917.00,97.73
1916.00,97.74
1915.00,97.75
1914.00,97.76
1913.00,97.76
1912.00,97.76
1911.00,97.77
1910.00,97.79
1909.00,97.81
1908.00,97.81
1907.00,97.82
1906.00,97.81
1905.00,97.81
1904.00,97.82
1903.00,97.85
1902.00,97.89
1901.00,97.90
1900.00,97.90
1899.00,97.90
1898.00,97.90
1897.00,97.91
1896.00,97.92
1895.00,97.93
1894.00,97.94
1893.00,97.94
1892.00,97.93
1891.00,97.93
1890.00,97.95
1889.00,97.97
1888.00,97.98
1887.00,97.99
1886.00,98.00
1885.00,97.99
1884.00,97.98
1883.00,97.99
1882.00,98.02
1881.00,98.03
1880.00,98.03
1879.00,98.03
1878.00,98.05
1877.00,98.06
1876.00,98.06
1875.00,98.05
1874.00,98.02
1873.00,97.99
1872.00,97.98
1871.00,97.99
1870.00,98.02
1869.00,98.04
1868.00,98.05
1867.00,98.06
1866.00,98.06
1865.00,98.06
1864.00,98.06
1863.00,98.07
1862.00,98.08
1861.00,98.08
1860.00,98.08
1859.00,98.09
1858.00,98.12
1857.00,98.14
1856.00,98.15
1855.00,98.16
1854.00,98.16
1853.00,98.16
1852.00,98.14
1851.00,98.14
1850.00,98.16
1849.00,98.17
1848.00,98.18
1847.00,98.19
1846.00,98.21
1845.00,98.22
1844.00,98.24
1843.00,98.24
1842.00,98.24
1841.00,98.23
1840.00,98.23
1839.00,98.23
1838.00,98.24
1837.00,98.24
1836.00,98.23
1835.00,98.23
1834.00,98.23
1833.00,98.23
1832.00,98.23
1831.00,98.24
1830.00,98.26
1829.00,98.27
1828.00,98.26
1827.00,98.27
1826.00,98.29
1825.00,98.30
1824.00,98.29
1823.00,98.28
1822.00,98.28
1821.00,98.27
1820.00,98.27
1819.00,98.29
1818.00,98.32
1817.00,98.34
1816.00,98.33
1815.00,98.33
1814.00,98.32
1813.00,98.31
1812.00,98.30
1811.00,98.29
1810.00,98.30
1809.00,98.30
1808.00,98.30
1807.00,98.32
1806.00,98.34
1805.00,98.35
1804.00,98.35
1803.00,98.34
1802.00,98.34
1801.00,98.34
1800.00,98.33
1799.00,98.33
1798.00,98.33
1797.00,98.33
1796.00,98.33
1795.00,98.33
1794.00,98.33
1793.00,98.34
1792.00,98.34
1791.00,98.34
1790.00,98.33
1789.00,98.31
1788.00,98.29
1787.00,98.29
1786.00,98.29
1785.00,98.28
1784.00,98.26
1783.00,98.25
1782.00,98.24
1781.00,98.23
1780.00,98.21
1779.00,98.19
1778.00,98.18
1777.00,98.17
1776.00,98.14
1775.00,98.13
1774.00,98.14
1773.00,98.17
1772.00,98.19
1771.00,98.18
1770.00,98.17
1769.00,98.15
1768.00,98.13
1767.00,98.12
1766.00,98.10
1765.00,98.09
1764.00,98.07
1763.00,98.08
1762.00,98.08
1761.00,98.06
1760.00,98.02
1759.00,98.00
1758.00,97.99
1757.00,97.97
1756.00,97.92
1755.00,97.86
1754.00,97.81
1753.00,97.76
1752.00,97.71
1751.00,97.67
1750.00,97.63
1749.00,97.59
1748.00,97.54
1747.00,97.49
1746.00,97.43
1745.00,97.36
1744.00,97.28
1743.00,97.21
1742.00,97.14
1741.00,97.06
1740.00,96.96
1739.00,96.86
1738.00,96.78
1737.00,96.70
1736.00,96.63
1735.00,96.59
1734.00,96.58
1733.00,96.57
1732.00,96.57
1731.00,96.58
1730.00,96.59
1729.00,96.58
1728.00,96.54
1727.00,96.50
1726.00,96.47
1725.00,96.44
1724.00,96.40
1723.00,96.36
1722.00,96.33
1721.00,96.27
1720.00,96.18
1719.00,96.08
1718.00,96.04
1717.00,96.03
1716.00,95.99
1715.00,95.93
1714.00,95.84
1713.00,95.71
1712.00,95.56
1711.00,95.43
1710.00,95.30
1709.00,95.17
1708.00,95.01
1707.00,94.84
1706.00,94.64
1705.00,94.41
1704.00,94.18
1703.00,94.02
1702.00,93.87
1701.00,93.53
1700.00,93.00
1699.00,92.55
1698.00,92.23
1697.00,91.92
1696.00,91.54
1695.00,91.13
1694.00,90.79
1693.00,90.50
1692.00,90.20
1691.00,89.86
1690.00,89.50
1689.00,89.12
1688.00,88.77
1687.00,88.48
1686.00,88.22
1685.00,87.87
1684.00,87.40
1683.00,87.00
1682.00,86.72
1681.00,86.47
1680.00,86.19
1679.00,85.93
1678.00,85.70
1677.00,85.44
1676.00,85.09
1675.00,84.67
1674.00,84.30
1673.00,84.02
1672.00,83.77
1671.00,83.49
1670.00,83.15
1669.00,82.75
1668.00,82.36
1667.00,82.06
1666.00,81.81
1665.00,81.56
1664.00,81.23
1663.00,80.84
1662.00,80.45
1661.00,80.11
1660.00,79.79
1659.00,79.49
1658.00,79.22
1657.00,78.97
1656.00,78.73
1655.00,78.47
1654.00,78.07
1653.00,77.47
1652.00,77.01
1651.00,76.85
1650.00,76.77
1649.00,76.64
1648.00,76.41
1647.00,76.14
1646.00,75.90
1645.00,75.75
1644.00,75.65
1643.00,75.58
1642.00,75.52
1641.00,75.44
1640.00,75.36
1639.00,75.29
1638.00,75.26
1637.00,75.23
1636.00,75.14
1635.00,75.03
1634.00,74.96
1633.00,74.94
1632.00,74.94
1631.00,74.95
1630.00,74.97
1629.00,75.00
1628.00,75.03
1627.00,75.08
1626.00,75.16
1625.00,75.28
1624.00,75.42
1623.00,75.58
1622.00,75.78
1621.00,75.99
1620.00,76.20
1619.00,76.42
1618.00,76.71
1617.00,77.10
1616.00,77.52
1615.00,77.90
1614.00,78.26
1613.00,78.61
1612.00,78.98
1611.00,79.37
1610.00,79.76
1609.00,80.16
1608.00,80.58
1607.00,80.99
1606.00,81.38
1605.00,81.76
1604.00,82.12
1603.00,82.47
1602.00,82.80
1601.00,83.12
1600.00,83.42
1599.00,83.70
1598.00,83.94
1597.00,84.18
1596.00,84.41
1595.00,84.64
1594.00,84.85
1593.00,85.04
1592.00,85.23
1591.00,85.40
1590.00,85.54
1589.00,85.67
1588.00,85.79
1587.00,85.89
1586.00,85.97
1585.00,86.02
1584.00,86.07
1583.00,86.09
1582.00,86.08
1581.00,86.04
1580.00,85.98
1579.00,85.90
1578.00,85.80
1577.00,85.70
1576.00,85.61
1575.00,85.54
1574.00,85.46
1573.00,85.40
1572.00,85.32
1571.00,85.21
1570.00,85.01
1569.00,84.79
1568.00,84.60
1567.00,84.43
1566.00,84.24
1565.00,84.02
1564.00,83.81
1563.00,83.64
1562.00,83.53
1561.00,83.41
1560.00,83.13
1559.00,82.64
1558.00,82.16
1557.00,81.87
1556.00,81.65
1555.00,81.41
1554.00,81.13
1553.00,80.86
1552.00,80.62
1551.00,80.38
1550.00,80.10
1549.00,79.83
1548.00,79.61
1547.00,79.43
1546.00,79.24
1545.00,79.02
1544.00,78.80
1543.00,78.62
1542.00,78.41
1541.00,78.17
1540.00,77.92
1539.00,77.74
1538.00,77.66
1537.00,77.65
1536.00,77.66
1535.00,77.63
1534.00,77.53
1533.00,77.42
1532.00,77.34
1531.00,77.32
1530.00,77.32
1529.00,77.32
1528.00,77.31
1527.00,77.30
1526.00,77.29
1525.00,77.28
1524.00,77.29
1523.00,77.29
1522.00,77.28
1521.00,77.25
1520.00,77.23
1519.00,77.23
1518.00,77.22
1517.00,77.20
1516.00,77.22
1515.00,77.29
1514.00,77.40
1513.00,77.54
1512.00,77.69
1511.00,77.85
1510.00,78.00
1509.00,78.15
1508.00,78.40
1507.00,78.77
1506.00,79.14
1505.00,79.43
1504.00,79.69
1503.00,79.95
1502.00,80.23
1501.00,80.52
1500.00,80.81
1499.00,81.11
1498.00,81.43
1497.00,81.82
1496.00,82.23
1495.00,82.61
1494.00,82.97
1493.00,83.30
1492.00,83.63
1491.00,83.97
1490.00,84.34
1489.00,84.70
1488.00,85.03
1487.00,85.31
1486.00,85.57
1485.00,85.79
1484.00,85.98
1483.00,86.16
1482.00,86.31
1481.00,86.43
1480.00,86.53
1479.00,86.59
1478.00,86.61
1477.00,86.56
1476.00,86.46
1475.00,86.32
1474.00,86.15
1473.00,85.94
1472.00,85.69
1471.00,85.48
1470.00,85.33
1469.00,85.23
1468.00,85.14
1467.00,85.07
1466.00,85.00
1465.00,84.91
1464.00,84.82
1463.00,84.77
1462.00,84.76
1461.00,84.75
1460.00,84.72
1459.00,84.66
1458.00,84.58
1457.00,84.45
1456.00,84.30
1455.00,84.21
1454.00,84.16
1453.00,84.13
1452.00,84.12
1451.00,84.13
1450.00,84.15
1449.00,84.17
1448.00,84.17
1447.00,84.19
1446.00,84.22
1445.00,84.27
1444.00,84.33
1443.00,84.41
1442.00,84.49
1441.00,84.59
1440.00,84.69
1439.00,84.81
1438.00,84.95
1437.00,85.09
1436.00,85.21
1435.00,85.31
1434.00,85.43
1433.00,85.56
1432.00,85.69
1431.00,85.82
1430.00,85.93
1429.00,86.03
1428.00,86.10
1427.00,86.16
1426.00,86.20
1425.00,86.23
1424.00,86.24
1423.00,86.24
1422.00,86.25
1421.00,86.28
1420.00,86.27
1419.00,86.23
1418.00,86.18
1417.00,86.14
1416.00,86.12
1415.00,86.10
1414.00,86.08
1413.00,86.06
1412.00,86.03
1411.00,85.98
1410.00,85.93
1409.00,85.88
1408.00,85.84
1407.00,85.79
1406.00,85.74
1405.00,85.68
1404.00,85.62
1403.00,85.57
1402.00,85.54
1401.00,85.52
1400.00,85.47
1399.00,85.41
1398.00,85.36
1397.00,85.33
1396.00,85.31
1395.00,85.28
1394.00,85.24
1393.00,85.21
1392.00,85.19
1391.00,85.18
1390.00,85.19
1389.00,85.19
1388.00,85.18
1387.00,85.17
1386.00,85.18
1385.00,85.21
1384.00,85.25
1383.00,85.30
1382.00,85.36
1381.00,85.43
1380.00,85.51
1379.00,85.60
1378.00,85.69
1377.00,85.79
1376.00,85.87
1375.00,85.96
1374.00,86.04
1373.00,86.12
1372.00,86.18
1371.00,86.24
1370.00,86.30
1369.00,86.37
1368.00,86.44
1367.00,86.53
1366.00,86.62
1365.00,86.74
1364.00,86.86
1363.00,86.99
1362.00,87.10
1361.00,87.18
1360.00,87.25
1359.00,87.30
1358.00,87.35
1357.00,87.39
1356.00,87.42
1355.00,87.44
1354.00,87.46
1353.00,87.48
1352.00,87.50
1351.00,87.51
1350.00,87.51
1349.00,87.50
1348.00,87.50
1347.00,87.49
1346.00,87.49
1345.00,87.47
1344.00,87.45
1343.00,87.43
1342.00,87.41
1341.00,87.39
1340.00,87.38
1339.00,87.38
1338.00,87.39
1337.00,87.40
1336.00,87.41
1335.00,87.41
1334.00,87.41
1333.00,87.42
1332.00,87.42
1331.00,87.43
1330.00,87.43
1329.00,87.43
1328.00,87.40
1327.00,87.37
1326.00,87.34
1325.00,87.31
1324.00,87.28
1323.00,87.25
1322.00,87.21
1321.00,87.18
1320.00,87.14
1319.00,87.11
1318.00,87.09
1317.00,87.06
1316.00,87.03
1315.00,87.01
1314.00,86.99
1313.00,86.98
1312.00,86.98
1311.00,86.97
1310.00,86.97
1309.00,86.97
1308.00,86.97
1307.00,86.98
1306.00,86.99
1305.00,87.00
1304.00,86.99
1303.00,86.99
1302.00,86.99
1301.00,87.00
1300.00,87.01
1299.00,87.02
1298.00,87.02
1297.00,87.03
1296.00,87.04
1295.00,87.04
1294.00,87.04
1293.00,87.05
1292.00,87.04
1291.00,87.04
1290.00,87.03
1289.00,87.01
1288.00,86.99
1287.00,86.98
1286.00,86.96
1285.00,86.94
1284.00,86.91
1283.00,86.88
1282.00,86.86
1281.00,86.84
1280.00,86.82
1279.00,86.80
1278.00,86.78
1277.00,86.75
1276.00,86.71
1275.00,86.67
1274.00,86.63
1273.00,86.60
1272.00,86.57
1271.00,86.53
1270.00,86.50
1269.00,86.46
1268.00,86.42
1267.00,86.37
1266.00,86.32
1265.00,86.27
1264.00,86.20
1263.00,86.14
1262.00,86.07
1261.00,86.00
1260.00,85.92
1259.00,85.85
1258.00,85.78
1257.00,85.71
1256.00,85.64
1255.00,85.56
1254.00,85.48
1253.00,85.39
1252.00,85.30
1251.00,85.22
1250.00,85.14
1249.00,85.06
1248.00,84.98
1247.00,84.91
1246.00,84.84
1245.00,84.77
1244.00,84.70
1243.00,84.63
1242.00,84.56
1241.00,84.50
1240.00,84.45
1239.00,84.41
1238.00,84.38
1237.00,84.37
1236.00,84.36
1235.00,84.35
1234.00,84.36
1233.00,84.37
1232.00,84.38
1231.00,84.40
1230.00,84.43
1229.00,84.47
1228.00,84.52
1227.00,84.58
1226.00,84.65
1225.00,84.73
1224.00,84.81
1223.00,84.89
1222.00,84.98
1221.00,85.08
1220.00,85.18
1219.00,85.28
1218.00,85.37
1217.00,85.45
1216.00,85.53
1215.00,85.60
1214.00,85.67
1213.00,85.73
1212.00,85.77
1211.00,85.81
1210.00,85.85
1209.00,85.90
1208.00,85.94
1207.00,85.97
1206.00,86.00
1205.00,86.03
1204.00,86.06
1203.00,86.09
1202.00,86.15
1201.00,86.21
1200.00,86.28
1199.00,86.34
1198.00,86.41
1197.00,86.48
1196.00,86.53
1195.00,86.59
1194.00,86.63
1193.00,86.67
1192.00,86.70
1191.00,86.73
1190.00,86.76
1189.00,86.80
1188.00,86.83
1187.00,86.86
1186.00,86.89
1185.00,86.91
1184.00,86.94
1183.00,86.95
1182.00,86.95
1181.00,86.93
1180.00,86.90
1179.00,86.87
1178.00,86.85
1177.00,86.83
1176.00,86.80
1175.00,86.77
1174.00,86.74
1173.00,86.72
1172.00,86.72
1171.00,86.73
1170.00,86.76
1169.00,86.80
1168.00,86.84
1167.00,86.86
1166.00,86.88
1165.00,86.90
1164.00,86.94
1163.00,86.98
1162.00,87.02
1161.00,87.06
1160.00,87.08
1159.00,87.12
1158.00,87.16
1157.00,87.21
1156.00,87.27
1155.00,87.33
1154.00,87.39
1153.00,87.45
1152.00,87.52
1151.00,87.59
1150.00,87.66
1149.00,87.74
1148.00,87.81
1147.00,87.89
1146.00,87.96
1145.00,88.04
1144.00,88.12
1143.00,88.17
1142.00,88.21
1141.00,88.23
1140.00,88.25
1139.00,88.27
1138.00,88.29
1137.00,88.29
1136.00,88.28
1135.00,88.24
1134.00,88.19
1133.00,88.14
1132.00,88.07
1131.00,88.00
1130.00,87.94
1129.00,87.89
1128.00,87.86
1127.00,87.83
1126.00,87.81
1125.00,87.77
1124.00,87.74
1123.00,87.70
1122.00,87.67
1121.00,87.63
1120.00,87.59
1119.00,87.54
1118.00,87.50
1117.00,87.45
1116.00,87.40
1115.00,87.34
1114.00,87.30
1113.00,87.25
1112.00,87.21
1111.00,87.16
1110.00,87.13
1109.00,87.09
1108.00,87.06
1107.00,87.03
1106.00,87.01
1105.00,86.98
1104.00,86.96
1103.00,86.93
1102.00,86.90
1101.00,86.88
1100.00,86.86
1099.00,86.84
1098.00,86.83
1097.00,86.82
1096.00,86.80
1095.00,86.77
1094.00,86.74
1093.00,86.71
1092.00,86.67
1091.00,86.63
1090.00,86.59
1089.00,86.55
1088.00,86.50
1087.00,86.42
1086.00,86.33
1085.00,86.24
1084.00,86.15
1083.00,86.07
1082.00,86.00
1081.00,85.94
1080.00,85.88
1079.00,85.83
1078.00,85.79
1077.00,85.74
1076.00,85.70
1075.00,85.66
1074.00,85.62
1073.00,85.59
1072.00,85.57
1071.00,85.55
1070.00,85.54
1069.00,85.54
1068.00,85.56
1067.00,85.58
1066.00,85.60
1065.00,85.60
1064.00,85.57
1063.00,85.53
1062.00,85.50
1061.00,85.48
1060.00,85.48
1059.00,85.49
1058.00,85.50
1057.00,85.51
1056.00,85.50
1055.00,85.49
1054.00,85.49
1053.00,85.50
1052.00,85.51
1051.00,85.51
1050.00,85.51
1049.00,85.49
1048.00,85.46
1047.00,85.41
1046.00,85.38
1045.00,85.35
1044.00,85.33
1043.00,85.33
1042.00,85.34
1041.00,85.36
1040.00,85.40
1039.00,85.45
1038.00,85.51
1037.00,85.56
1036.00,85.60
1035.00,85.66
1034.00,85.73
1033.00,85.81
1032.00,85.89
1031.00,85.95
1030.00,85.99
1029.00,86.01
1028.00,86.05
1027.00,86.10
1026.00,86.18
1025.00,86.27
1024.00,86.37
1023.00,86.46
1022.00,86.55
1021.00,86.66
1020.00,86.78
1019.00,86.91
1018.00,87.04
1017.00,87.17
1016.00,87.29
1015.00,87.39
1014.00,87.48
1013.00,87.55
1012.00,87.63
1011.00,87.71
1010.00,87.80
1009.00,87.87
1008.00,87.94
1007.00,88.02
1006.00,88.10
1005.00,88.19
1004.00,88.28
1003.00,88.38
1002.00,88.46
1001.00,88.55
1000.00,88.63
999.00,88.71
998.00,88.79
997.00,88.86
996.00,88.94
995.00,89.01
994.00,89.08
993.00,89.15
992.00,89.22
991.00,89.28
990.00,89.35
989.00,89.42
988.00,89.49
987.00,89.54
986.00,89.60
985.00,89.64
984.00,89.69
983.00,89.74
982.00,89.80
981.00,89.86
980.00,89.92
979.00,89.98
978.00,90.03
977.00,90.09
976.00,90.14
975.00,90.17
974.00,90.20
973.00,90.24
972.00,90.28
971.00,90.33
970.00,90.38
969.00,90.43
968.00,90.48
967.00,90.52
966.00,90.57
965.00,90.62
964.00,90.67
963.00,90.71
962.00,90.74
961.00,90.76
960.00,90.78
959.00,90.80
958.00,90.83
957.00,90.86
956.00,90.88
955.00,90.90
954.00,90.92
953.00,90.93
952.00,90.94
951.00,90.95
950.00,90.95
949.00,90.95
948.00,90.97
947.00,90.98
946.00,91.01
945.00,91.02
944.00,91.03
943.00,91.03
942.00,91.03
941.00,91.02
940.00,91.00
939.00,90.98
938.00,90.95
937.00,90.94
936.00,90.93
935.00,90.92
934.00,90.91
933.00,90.89
932.00,90.89
931.00,90.90
930.00,90.91
929.00,90.93
928.00,90.94
927.00,90.94
926.00,90.93
925.00,90.91
924.00,90.92
923.00,90.93
922.00,90.94
921.00,90.95
920.00,90.95
919.00,90.96
918.00,90.98
917.00,91.00
916.00,91.03
915.00,91.06
914.00,91.09
913.00,91.12
912.00,91.14
911.00,91.16
910.00,91.17
909.00,91.20
908.00,91.23
907.00,91.25
906.00,91.27
905.00,91.28
904.00,91.28
903.00,91.29
902.00,91.31
901.00,91.33
900.00,91.34
899.00,91.34
898.00,91.33
897.00,91.31
896.00,91.30
895.00,91.30
894.00,91.30
893.00,91.30
892.00,91.31
891.00,91.30
890.00,91.29
889.00,91.29
888.00,91.30
887.00,91.32
886.00,91.33
885.00,91.32
884.00,91.29
883.00,91.26
882.00,91.24
881.00,91.21
880.00,91.19
879.00,91.16
878.00,91.15
877.00,91.14
876.00,91.12
875.00,91.10
874.00,91.08
873.00,91.07
872.00,91.08
871.00,91.10
870.00,91.11
869.00,91.10
868.00,91.09
867.00,91.09
866.00,91.09
865.00,91.10
864.00,91.08
863.00,91.06
862.00,91.02
861.00,91.00
860.00,90.99
859.00,90.98
858.00,90.97
857.00,90.95
856.00,90.91
855.00,90.85
854.00,90.79
853.00,90.75
852.00,90.71
851.00,90.68
850.00,90.66
849.00,90.64
848.00,90.63
847.00,90.60
846.00,90.55
845.00,90.50
844.00,90.46
843.00,90.42
842.00,90.37
841.00,90.30
840.00,90.24
839.00,90.18
838.00,90.14
837.00,90.11
836.00,90.07
835.00,90.01
834.00,89.96
833.00,89.90
832.00,89.83
831.00,89.78
830.00,89.74
829.00,89.73
828.00,89.73
827.00,89.73
826.00,89.69
825.00,89.63
824.00,89.57
823.00,89.53
822.00,89.50
821.00,89.47
820.00,89.44
819.00,89.40
818.00,89.38
817.00,89.36
816.00,89.32
815.00,89.27
814.00,89.21
813.00,89.15
812.00,89.08
811.00,89.01
810.00,88.95
809.00,88.89
808.00,88.82
807.00,88.74
806.00,88.66
805.00,88.58
804.00,88.52
803.00,88.47
802.00,88.42
801.00,88.36
800.00,88.31
799.00,88.27
798.00,88.22
797.00,88.16
796.00,88.09
795.00,88.04
794.00,88.00
793.00,87.97
792.00,87.93
791.00,87.86
790.00,87.78
789.00,87.70
788.00,87.63
787.00,87.56
786.00,87.48
785.00,87.41
784.00,87.35
783.00,87.31
782.00,87.25
781.00,87.18
780.00,87.10
779.00,87.03
778.00,87.00
777.00,86.99
776.00,86.98
775.00,86.93
774.00,86.85
773.00,86.75
772.00,86.67
771.00,86.62
770.00,86.59
769.00,86.57
768.00,86.54
767.00,86.48
766.00,86.41
765.00,86.34
764.00,86.28
763.00,86.21
762.00,86.14
761.00,86.03
760.00,85.90
759.00,85.79
758.00,85.71
757.00,85.65
756.00,85.61
755.00,85.56
754.00,85.51
753.00,85.43
752.00,85.32
751.00,85.22
750.00,85.15
749.00,85.12
748.00,85.09
747.00,85.05
746.00,84.98
745.00,84.91
744.00,84.84
743.00,84.79
742.00,84.75
741.00,84.69
740.00,84.62
739.00,84.53
738.00,84.46
737.00,84.41
736.00,84.38
735.00,84.36
734.00,84.33
733.00,84.29
732.00,84.22
731.00,84.13
730.00,84.04
729.00,83.95
728.00,83.87
727.00,83.79
726.00,83.69
725.00,83.58
724.00,83.46
723.00,83.34
722.00,83.19
721.00,83.04
720.00,82.91
719.00,82.83
718.00,82.82
717.00,82.82
716.00,82.81
715.00,82.76
714.00,82.68
713.00,82.58
712.00,82.49
711.00,82.40
710.00,82.32
709.00,82.23
708.00,82.10
707.00,81.95
706.00,81.79
705.00,81.64
704.00,81.50
703.00,81.38
702.00,81.29
701.00,81.21
700.00,81.15
699.00,81.09
698.00,81.02
697.00,80.94
696.00,80.84
695.00,80.77
694.00,80.71
693.00,80.66
692.00,80.61
691.00,80.57
690.00,80.55
689.00,80.53
688.00,80.49
687.00,80.44
686.00,80.39
685.00,80.34
684.00,80.27
683.00,80.20
682.00,80.11
681.00,80.02
680.00,79.94
679.00,79.89
678.00,79.86
677.00,79.81
676.00,79.73
675.00,79.63
674.00,79.53
673.00,79.43
672.00,79.35
671.00,79.30
670.00,79.27
669.00,79.20
668.00,79.00
667.00,78.78
666.00,78.66
665.00,78.59
664.00,78.53
663.00,78.45
662.00,78.39
661.00,78.32
660.00,78.26
659.00,78.23
658.00,78.21
657.00,78.18
656.00,78.12
655.00,78.07
654.00,78.03
653.00,78.00
652.00,77.96
651.00,77.95
650.00,77.95
649.00,77.90
648.00,77.80
647.00,77.69
646.00,77.65
645.00,77.65
644.00,77.65
643.00,77.65
642.00,77.62
641.00,77.51
640.00,77.34
639.00,77.21
638.00,77.17
637.00,77.16
636.00,77.09
635.00,76.94
634.00,76.79
633.00,76.70
632.00,76.65
631.00,76.59
630.00,76.52
629.00,76.43
628.00,76.39
627.00,76.43
626.00,76.51
625.00,76.53
624.00,76.51
623.00,76.56
622.00,76.72
621.00,76.78
620.00,76.57
619.00,76.15
618.00,75.80
617.00,75.65
616.00,75.64
615.00,75.65
614.00,75.56
613.00,75.35
612.00,75.14
611.00,75.08
610.00,75.18
609.00,75.29
608.00,75.30
607.00,75.27
606.00,75.23
605.00,75.12
604.00,74.97
603.00,74.89
602.00,74.94
601.00,75.03
600.00,75.06
599.00,75.01
598.00,74.90
597.00,74.70
596.00,74.48
595.00,74.40
594.00,74.47
593.00,74.52
592.00,74.43
591.00,74.35
590.00,74.40
589.00,74.45
588.00,74.35
587.00,74.21
586.00,74.20
585.00,74.28
584.00,74.30
583.00,74.24
582.00,74.16
581.00,74.01
580.00,73.75
579.00,73.48
578.00,73.32
577.00,73.17
576.00,73.00
575.00,72.91
574.00,72.95
573.00,72.97
572.00,72.93
571.00,73.01
570.00,73.20
569.00,73.20
568.00,72.88
567.00,72.55
566.00,72.47
565.00,72.49
564.00,72.44
563.00,72.43
562.00,72.61
561.00,72.85
560.00,72.98
559.00,72.97
558.00,72.76
557.00,72.33
556.00,71.92
555.00,72.00
554.00,72.62
553.00,73.25
552.00,73.47
551.00,73.26
550.00,72.84
