Created as New Dataset,Natural, 14.3
cm-1,%T
4000.00,97.92
3999.00,97.92
3998.00,97.92
3997.00,97.91
3996.00,97.89
3995.00,97.88
3994.00,97.88
3993.00,97.89
3992.00,97.89
3991.00,97.89
3990.00,97.87
3989.00,97.85
3988.00,97.83
3987.00,97.82
3986.00,97.81
3985.00,97.82
3984.00,97.83
3983.00,97.85
3982.00,97.86
3981.00,97.87
3980.00,97.86
3979.00,97.85
3978.00,97.85
3977.00,97.85
3976.00,97.87
3975.00,97.88
3974.00,97.89
3973.00,97.89
3972.00,97.88
3971.00,97.89
3970.00,97.89
3969.00,97.89
3968.00,97.89
3967.00,97.87
3966.00,97.84
3965.00,97.83
3964.00,97.84
3963.00,97.86
3962.00,97.88
3961.00,97.88
3960.00,97.87
3959.00,97.87
3958.00,97.87
3957.00,97.87
3956.00,97.87
3955.00,97.85
3954.00,97.83
3953.00,97.83
3952.00,97.84
3951.00,97.86
3950.00,97.86
3949.00,97.85
3948.00,97.83
3947.00,97.80
3946.00,97.79
3945.00,97.79
3944.00,97.80
3943.00,97.83
3942.00,97.86
3941.00,97.88
3940.00,97.88
3939.00,97.88
3938.00,97.86
3937.00,97.84
3936.00,97.81
3935.00,97.79
3934.00,97.79
3933.00,97.79
3932.00,97.79
3931.00,97.78
3930.00,97.77
3929.00,97.76
3928.00,97.77
3927.00,97.78
3926.00,97.80
3925.00,97.82
3924.00,97.82
3923.00,97.83
3922.00,97.83
3921.00,97.83
3920.00,97.83
3919.00,97.82
3918.00,97.81
3917.00,97.81
3916.00,97.80
3915.00,97.80
3914.00,97.80
3913.00,97.80
3912.00,97.80
3911.00,97.81
3910.00,97.82
3909.00,97.81
3908.00,97.80
3907.00,97.78
3906.00,97.75
3905.00,97.73
3904.00,97.70
3903.00,97.68
3902.00,97.68
3901.00,97.68
3900.00,97.70
3899.00,97.71
3898.00,97.72
3897.00,97.75
3896.00,97.77
3895.00,97.79
3894.00,97.79
3893.00,97.79
3892.00,97.78
3891.00,97.77
3890.00,97.75
3889.00,97.73
3888.00,97.72
3887.00,97.73
3886.00,97.75
3885.00,97.76
3884.00,97.76
3883.00,97.74
3882.00,97.74
3881.00,97.74
3880.00,97.75
3879.00,97.75
3878.00,97.74
3877.00,97.74
3876.00,97.75
3875.00,97.77
3874.00,97.76
3873.00,97.74
3872.00,97.73
3871.00,97.75
3870.00,97.76
3869.00,97.75
3868.00,97.72
3867.00,97.70
3866.00,97.71
3865.00,97.74
3864.00,97.76
3863.00,97.77
3862.00,97.77
3861.00,97.77
3860.00,97.77
3859.00,97.75
3858.00,97.73
3857.00,97.70
3856.00,97.70
3855.00,97.74
3854.00,97.78
3853.00,97.77
3852.00,97.72
3851.00,97.70
3850.00,97.70
3849.00,97.72
3848.00,97.75
3847.00,97.78
3846.00,97.80
3845.00,97.80
3844.00,97.79
3843.00,97.76
3842.00,97.73
3841.00,97.70
3840.00,97.70
3839.00,97.72
3838.00,97.74
3837.00,97.75
3836.00,97.76
3835.00,97.75
3834.00,97.75
3833.00,97.76
3832.00,97.77
3831.00,97.78
3830.00,97.76
3829.00,97.73
3828.00,97.71
3827.00,97.71
3826.00,97.69
3825.00,97.65
3824.00,97.60
3823.00,97.60
3822.00,97.64
3821.00,97.69
3820.00,97.70
3819.00,97.68
3818.00,97.67
3817.00,97.68
3816.00,97.71
3815.00,97.71
3814.00,97.70
3813.00,97.69
3812.00,97.70
3811.00,97.72
3810.00,97.73
3809.00,97.75
3808.00,97.76
3807.00,97.75
3806.00,97.71
3805.00,97.65
3804.00,97.60
3803.00,97.60
3802.00,97.61
3801.00,97.61
3800.00,97.60
3799.00,97.61
3798.00,97.64
3797.00,97.69
3796.00,97.73
3795.00,97.74
3794.00,97.74
3793.00,97.75
3792.00,97.77
3791.00,97.77
3790.00,97.77
3789.00,97.77
3788.00,97.77
3787.00,97.78
3786.00,97.78
3785.00,97.77
3784.00,97.74
3783.00,97.72
3782.00,97.73
3781.00,97.75
3780.00,97.78
3779.00,97.77
3778.00,97.75
3777.00,97.72
3776.00,97.71
3775.00,97.70
3774.00,97.70
3773.00,97.69
3772.00,97.69
3771.00,97.68
3770.00,97.68
3769.00,97.66
3768.00,97.65
3767.00,97.67
3766.00,97.70
3765.00,97.72
3764.00,97.70
3763.00,97.66
3762.00,97.61
3761.00,97.59
3760.00,97.57
3759.00,97.56
3758.00,97.54
3757.00,97.52
3756.00,97.50
3755.00,97.49
3754.00,97.49
3753.00,97.51
3752.00,97.55
3751.00,97.57
3750.00,97.57
3749.00,97.54
3748.00,97.49
3747.00,97.44
3746.00,97.44
3745.00,97.48
3744.00,97.50
3743.00,97.49
3742.00,97.48
3741.00,97.49
3740.00,97.51
3739.00,97.52
3738.00,97.50
3737.00,97.47
3736.00,97.41
3735.00,97.37
3734.00,97.37
3733.00,97.40
3732.00,97.45
3731.00,97.48
3730.00,97.48
3729.00,97.47
3728.00,97.46
3727.00,97.47
3726.00,97.48
3725.00,97.49
3724.00,97.50
3723.00,97.51
3722.00,97.52
3721.00,97.52
3720.00,97.53
3719.00,97.54
3718.00,97.55
3717.00,97.55
3716.00,97.53
3715.00,97.51
3714.00,97.48
3713.00,97.45
3712.00,97.42
3711.00,97.39
3710.00,97.39
3709.00,97.41
3708.00,97.45
3707.00,97.48
3706.00,97.49
3705.00,97.49
3704.00,97.48
3703.00,97.46
3702.00,97.43
3701.00,97.41
3700.00,97.40
3699.00,97.41
3698.00,97.45
3697.00,97.49
3696.00,97.51
3695.00,97.50
3694.00,97.48
3693.00,97.46
3692.00,97.44
3691.00,97.41
3690.00,97.37
3689.00,97.33
3688.00,97.30
3687.00,97.29
3686.00,97.29
3685.00,97.31
3684.00,97.32
3683.00,97.33
3682.00,97.34
3681.00,97.34
3680.00,97.32
3679.00,97.29
3678.00,97.24
3677.00,97.21
3676.00,97.19
3675.00,97.15
3674.00,97.10
3673.00,97.04
3672.00,97.01
3671.00,97.02
3670.00,97.04
3669.00,97.06
3668.00,97.06
3667.00,97.06
3666.00,97.06
3665.00,97.06
3664.00,97.05
3663.00,97.03
3662.00,97.00
3661.00,96.98
3660.00,96.95
3659.00,96.92
3658.00,96.90
3657.00,96.89
3656.00,96.88
3655.00,96.85
3654.00,96.81
3653.00,96.76
3652.00,96.73
3651.00,96.69
3650.00,96.64
3649.00,96.59
3648.00,96.57
3647.00,96.57
3646.00,96.58
3645.00,96.59
3644.00,96.60
3643.00,96.60
3642.00,96.59
3641.00,96.56
3640.00,96.52
3639.00,96.48
3638.00,96.44
3637.00,96.40
3636.00,96.37
3635.00,96.35
3634.00,96.32
3633.00,96.28
3632.00,96.23
3631.00,96.19
3630.00,96.18
3629.00,96.16
3628.00,96.11
3627.00,96.07
3626.00,96.04
3625.00,96.03
3624.00,96.02
3623.00,95.99
3622.00,95.94
3621.00,95.88
3620.00,95.83
3619.00,95.78
3618.00,95.73
3617.00,95.70
3616.00,95.67
3615.00,95.65
3614.00,95.64
3613.00,95.62
3612.00,95.60
3611.00,95.58
3610.00,95.56
3609.00,95.54
3608.00,95.51
3607.00,95.48
3606.00,95.45
3605.00,95.42
3604.00,95.39
3603.00,95.36
3602.00,95.34
3601.00,95.31
3600.00,95.29
3599.00,95.26
3598.00,95.23
3597.00,95.20
3596.00,95.16
3595.00,95.12
3594.00,95.07
3593.00,95.01
3592.00,94.96
3591.00,94.92
3590.00,94.90
3589.00,94.89
3588.00,94.87
3587.00,94.83
3586.00,94.79
3585.00,94.76
3584.00,94.73
3583.00,94.70
3582.00,94.67
3581.00,94.63
3580.00,94.59
3579.00,94.54
3578.00,94.51
3577.00,94.50
3576.00,94.49
3575.00,94.47
3574.00,94.45
3573.00,94.41
3572.00,94.35
3571.00,94.28
3570.00,94.21
3569.00,94.15
3568.00,94.12
3567.00,94.09
3566.00,94.05
3565.00,94.00
3564.00,93.96
3563.00,93.92
3562.00,93.89
3561.00,93.85
3560.00,93.81
3559.00,93.76
3558.00,93.72
3557.00,93.68
3556.00,93.64
3555.00,93.60
3554.00,93.58
3553.00,93.55
3552.00,93.51
3551.00,93.46
3550.00,93.40
3549.00,93.35
3548.00,93.32
3547.00,93.30
3546.00,93.26
3545.00,93.21
3544.00,93.16
3543.00,93.12
3542.00,93.09
3541.00,93.06
3540.00,93.04
3539.00,93.02
3538.00,92.99
3537.00,92.96
3536.00,92.93
3535.00,92.89
3534.00,92.84
3533.00,92.80
3532.00,92.76
3531.00,92.74
3530.00,92.71
3529.00,92.68
3528.00,92.62
3527.00,92.57
3526.00,92.52
3525.00,92.48
3524.00,92.47
3523.00,92.47
3522.00,92.46
3521.00,92.44
3520.00,92.41
3519.00,92.37
3518.00,92.35
3517.00,92.34
3516.00,92.33
3515.00,92.31
3514.00,92.27
3513.00,92.21
3512.00,92.16
3511.00,92.12
3510.00,92.08
3509.00,92.05
3508.00,92.02
3507.00,91.97
3506.00,91.91
3505.00,91.85
3504.00,91.80
3503.00,91.75
3502.00,91.73
3501.00,91.72
3500.00,91.71
3499.00,91.69
3498.00,91.66
3497.00,91.63
3496.00,91.59
3495.00,91.55
3494.00,91.51
3493.00,91.48
3492.00,91.45
3491.00,91.43
3490.00,91.41
3489.00,91.38
3488.00,91.35
3487.00,91.32
3486.00,91.30
3485.00,91.26
3484.00,91.22
3483.00,91.17
3482.00,91.11
3481.00,91.05
3480.00,91.00
3479.00,90.97
3478.00,90.96
3477.00,90.96
3476.00,90.97
3475.00,90.96
3474.00,90.95
3473.00,90.92
3472.00,90.89
3471.00,90.84
3470.00,90.80
3469.00,90.78
3468.00,90.77
3467.00,90.77
3466.00,90.75
3465.00,90.71
3464.00,90.66
3463.00,90.62
3462.00,90.59
3461.00,90.57
3460.00,90.53
3459.00,90.49
3458.00,90.44
3457.00,90.39
3456.00,90.35
3455.00,90.32
3454.00,90.29
3453.00,90.28
3452.00,90.27
3451.00,90.27
3450.00,90.25
3449.00,90.21
3448.00,90.16
3447.00,90.11
3446.00,90.06
3445.00,90.01
3444.00,89.98
3443.00,89.96
3442.00,89.94
3441.00,89.93
3440.00,89.89
3439.00,89.85
3438.00,89.81
3437.00,89.77
3436.00,89.74
3435.00,89.72
3434.00,89.69
3433.00,89.66
3432.00,89.63
3431.00,89.61
3430.00,89.59
3429.00,89.57
3428.00,89.54
3427.00,89.50
3426.00,89.46
3425.00,89.42
3424.00,89.37
3423.00,89.33
3422.00,89.28
3421.00,89.24
3420.00,89.21
3419.00,89.19
3418.00,89.18
3417.00,89.15
3416.00,89.12
3415.00,89.07
3414.00,89.03
3413.00,88.98
3412.00,88.94
3411.00,88.91
3410.00,88.88
3409.00,88.85
3408.00,88.82
3407.00,88.76
3406.00,88.70
3405.00,88.63
3404.00,88.58
3403.00,88.55
3402.00,88.53
3401.00,88.50
3400.00,88.47
3399.00,88.45
3398.00,88.42
3397.00,88.40
3396.00,88.37
3395.00,88.35
3394.00,88.33
3393.00,88.32
3392.00,88.29
3391.00,88.24
3390.00,88.19
3389.00,88.14
3388.00,88.12
3387.00,88.10
3386.00,88.08
3385.00,88.05
3384.00,88.01
3383.00,87.96
3382.00,87.91
3381.00,87.86
3380.00,87.81
3379.00,87.78
3378.00,87.75
3377.00,87.73
3376.00,87.70
3375.00,87.67
3374.00,87.63
3373.00,87.60
3372.00,87.56
3371.00,87.51
3370.00,87.45
3369.00,87.39
3368.00,87.32
3367.00,87.27
3366.00,87.22
3365.00,87.19
3364.00,87.17
3363.00,87.15
3362.00,87.13
3361.00,87.10
3360.00,87.07
3359.00,87.02
3358.00,86.97
3357.00,86.92
3356.00,86.88
3355.00,86.84
3354.00,86.80
3353.00,86.76
3352.00,86.72
3351.00,86.69
3350.00,86.66
3349.00,86.62
3348.00,86.57
3347.00,86.52
3346.00,86.48
3345.00,86.44
3344.00,86.39
3343.00,86.35
3342.00,86.30
3341.00,86.25
3340.00,86.21
3339.00,86.17
3338.00,86.13
3337.00,86.07
3336.00,86.00
3335.00,85.93
3334.00,85.87
3333.00,85.83
3332.00,85.79
3331.00,85.73
3330.00,85.67
3329.00,85.61
3328.00,85.56
3327.00,85.52
3326.00,85.47
3325.00,85.42
3324.00,85.37
3323.00,85.32
3322.00,85.27
3321.00,85.22
3320.00,85.15
3319.00,85.08
3318.00,85.00
3317.00,84.91
3316.00,84.84
3315.00,84.78
3314.00,84.73
3313.00,84.70
3312.00,84.67
3311.00,84.64
3310.00,84.59
3309.00,84.53
3308.00,84.47
3307.00,84.40
3306.00,84.33
3305.00,84.27
3304.00,84.21
3303.00,84.15
3302.00,84.09
3301.00,84.03
3300.00,83.95
3299.00,83.89
3298.00,83.84
3297.00,83.81
3296.00,83.79
3295.00,83.75
3294.00,83.70
3293.00,83.64
3292.00,83.59
3291.00,83.55
3290.00,83.51
3289.00,83.48
3288.00,83.44
3287.00,83.40
3286.00,83.38
3285.00,83.36
3284.00,83.34
3283.00,83.33
3282.00,83.31
3281.00,83.29
3280.00,83.28
3279.00,83.28
3278.00,83.27
3277.00,83.26
3276.00,83.24
3275.00,83.22
3274.00,83.21
3273.00,83.21
3272.00,83.23
3271.00,83.25
3270.00,83.26
3269.00,83.27
3268.00,83.28
3267.00,83.28
3266.00,83.30
3265.00,83.34
3264.00,83.39
3263.00,83.45
3262.00,83.52
3261.00,83.58
3260.00,83.64
3259.00,83.69
3258.00,83.74
3257.00,83.78
3256.00,83.84
3255.00,83.90
3254.00,83.97
3253.00,84.02
3252.00,84.05
3251.00,84.08
3250.00,84.11
3249.00,84.15
3248.00,84.21
3247.00,84.26
3246.00,84.32
3245.00,84.37
3244.00,84.42
3243.00,84.47
3242.00,84.52
3241.00,84.57
3240.00,84.61
3239.00,84.65
3238.00,84.69
3237.00,84.74
3236.00,84.78
3235.00,84.82
3234.00,84.84
3233.00,84.86
3232.00,84.87
3231.00,84.90
3230.00,84.94
3229.00,84.99
3228.00,85.05
3227.00,85.10
3226.00,85.15
3225.00,85.20
3224.00,85.24
3223.00,85.27
3222.00,85.29
3221.00,85.30
3220.00,85.32
3219.00,85.34
3218.00,85.37
3217.00,85.41
3216.00,85.47
3215.00,85.52
3214.00,85.57
3213.00,85.61
3212.00,85.63
3211.00,85.65
3210.00,85.67
3209.00,85.70
3208.00,85.72
3207.00,85.76
3206.00,85.79
3205.00,85.82
3204.00,85.85
3203.00,85.88
3202.00,85.92
3201.00,85.96
3200.00,86.01
3199.00,86.05
3198.00,86.09
3197.00,86.13
3196.00,86.18
3195.00,86.23
3194.00,86.28
3193.00,86.31
3192.00,86.34
3191.00,86.38
3190.00,86.41
3189.00,86.44
3188.00,86.47
3187.00,86.52
3186.00,86.57
3185.00,86.62
3184.00,86.67
3183.00,86.72
3182.00,86.78
3181.00,86.84
3180.00,86.90
3179.00,86.96
3178.00,87.02
3177.00,87.07
3176.00,87.12
3175.00,87.17
3174.00,87.21
3173.00,87.25
3172.00,87.29
3171.00,87.35
3170.00,87.42
3169.00,87.49
3168.00,87.54
3167.00,87.59
3166.00,87.62
3165.00,87.66
3164.00,87.70
3163.00,87.75
3162.00,87.81
3161.00,87.87
3160.00,87.92
3159.00,87.97
3158.00,88.02
3157.00,88.08
3156.00,88.15
3155.00,88.21
3154.00,88.27
3153.00,88.31
3152.00,88.35
3151.00,88.39
3150.00,88.44
3149.00,88.49
3148.00,88.55
3147.00,88.59
3146.00,88.62
3145.00,88.64
3144.00,88.65
3143.00,88.69
3142.00,88.73
3141.00,88.77
3140.00,88.82
3139.00,88.86
3138.00,88.90
3137.00,88.93
3136.00,88.97
3135.00,89.00
3134.00,89.03
3133.00,89.06
3132.00,89.08
3131.00,89.11
3130.00,89.15
3129.00,89.19
3128.00,89.24
3127.00,89.28
3126.00,89.31
3125.00,89.32
3124.00,89.33
3123.00,89.35
3122.00,89.37
3121.00,89.40
3120.00,89.41
3119.00,89.43
3118.00,89.44
3117.00,89.46
3116.00,89.47
3115.00,89.49
3114.00,89.51
3113.00,89.52
3112.00,89.53
3111.00,89.53
3110.00,89.53
3109.00,89.54
3108.00,89.56
3107.00,89.58
3106.00,89.58
3105.00,89.57
3104.00,89.55
3103.00,89.53
3102.00,89.51
3101.00,89.50
3100.00,89.49
3099.00,89.49
3098.00,89.49
3097.00,89.50
3096.00,89.51
3095.00,89.52
3094.00,89.51
3093.00,89.50
3092.00,89.49
3091.00,89.46
3090.00,89.43
3089.00,89.41
3088.00,89.41
3087.00,89.40
3086.00,89.39
3085.00,89.36
3084.00,89.32
3083.00,89.30
3082.00,89.30
3081.00,89.31
3080.00,89.31
3079.00,89.31
3078.00,89.29
3077.00,89.28
3076.00,89.26
3075.00,89.24
3074.00,89.24
3073.00,89.24
3072.00,89.25
3071.00,89.25
3070.00,89.25
3069.00,89.24
3068.00,89.23
3067.00,89.22
3066.00,89.22
3065.00,89.22
3064.00,89.23
3063.00,89.25
3062.00,89.27
3061.00,89.28
3060.00,89.29
3059.00,89.30
3058.00,89.32
3057.00,89.35
3056.00,89.38
3055.00,89.41
3054.00,89.45
3053.00,89.49
3052.00,89.52
3051.00,89.54
3050.00,89.55
3049.00,89.57
3048.00,89.60
3047.00,89.65
3046.00,89.70
3045.00,89.75
3044.00,89.78
3043.00,89.82
3042.00,89.86
3041.00,89.91
3040.00,89.95
3039.00,89.97
3038.00,89.99
3037.00,90.02
3036.00,90.05
3035.00,90.09
3034.00,90.12
3033.00,90.14
3032.00,90.17
3031.00,90.21
3030.00,90.25
3029.00,90.28
3028.00,90.32
3027.00,90.36
3026.00,90.40
3025.00,90.44
3024.00,90.49
3023.00,90.53
3022.00,90.56
3021.00,90.59
3020.00,90.60
3019.00,90.63
3018.00,90.65
3017.00,90.69
3016.00,90.74
3015.00,90.78
3014.00,90.82
3013.00,90.85
3012.00,90.87
3011.00,90.89
3010.00,90.91
3009.00,90.93
3008.00,90.94
3007.00,90.95
3006.00,90.95
3005.00,90.95
3004.00,90.96
3003.00,90.96
3002.00,90.98
3001.00,91.00
3000.00,91.01
2999.00,91.02
2998.00,91.02
2997.00,91.01
2996.00,90.99
2995.00,90.97
2994.00,90.95
2993.00,90.93
2992.00,90.91
2991.00,90.87
2990.00,90.83
2989.00,90.78
2988.00,90.73
2987.00,90.68
2986.00,90.64
2985.00,90.59
2984.00,90.54
2983.00,90.49
2982.00,90.42
2981.00,90.34
2980.00,90.26
2979.00,90.18
2978.00,90.11
2977.00,90.03
2976.00,89.96
2975.00,89.89
2974.00,89.83
2973.00,89.77
2972.00,89.71
2971.00,89.64
2970.00,89.58
2969.00,89.51
2968.00,89.45
2967.00,89.38
2966.00,89.30
2965.00,89.23
2964.00,89.17
2963.00,89.13
2962.00,89.12
2961.00,89.13
2960.00,89.14
2959.00,89.16
2958.00,89.18
2957.00,89.19
2956.00,89.21
2955.00,89.24
2954.00,89.27
2953.00,89.31
2952.00,89.34
2951.00,89.37
2950.00,89.39
2949.00,89.40
2948.00,89.42
2947.00,89.43
2946.00,89.42
2945.00,89.40
2944.00,89.37
2943.00,89.35
2942.00,89.32
2941.00,89.30
2940.00,89.26
2939.00,89.22
2938.00,89.16
2937.00,89.10
2936.00,89.06
2935.00,89.02
2934.00,88.99
2933.00,88.97
2932.00,88.95
2931.00,88.93
2930.00,88.92
2929.00,88.92
2928.00,88.93
2927.00,88.96
2926.00,88.98
2925.00,89.01
2924.00,89.03
2923.00,89.06
2922.00,89.09
2921.00,89.12
2920.00,89.15
2919.00,89.20
2918.00,89.26
2917.00,89.35
2916.00,89.45
2915.00,89.57
2914.00,89.70
2913.00,89.82
2912.00,89.93
2911.00,90.03
2910.00,90.11
2909.00,90.18
2908.00,90.24
2907.00,90.31
2906.00,90.37
2905.00,90.43
2904.00,90.49
2903.00,90.54
2902.00,90.60
2901.00,90.64
2900.00,90.68
2899.00,90.71
2898.00,90.74
2897.00,90.78
2896.00,90.81
2895.00,90.85
2894.00,90.87
2893.00,90.89
2892.00,90.91
2891.00,90.92
2890.00,90.92
2889.00,90.93
2888.00,90.93
2887.00,90.91
2886.00,90.89
2885.00,90.87
2884.00,90.87
2883.00,90.87
2882.00,90.88
2881.00,90.89
2880.00,90.88
2879.00,90.87
2878.00,90.85
2877.00,90.83
2876.00,90.83
2875.00,90.84
2874.00,90.85
2873.00,90.87
2872.00,90.89
2871.00,90.91
2870.00,90.95
2869.00,91.00
2868.00,91.06
2867.00,91.13
2866.00,91.19
2865.00,91.26
2864.00,91.32
2863.00,91.38
2862.00,91.42
2861.00,91.46
2860.00,91.48
2859.00,91.49
2858.00,91.48
2857.00,91.48
2856.00,91.47
2855.00,91.47
2854.00,91.47
2853.00,91.48
2852.00,91.51
2851.00,91.55
2850.00,91.61
2849.00,91.68
2848.00,91.77
2847.00,91.87
2846.00,91.97
2845.00,92.06
2844.00,92.15
2843.00,92.23
2842.00,92.29
2841.00,92.33
2840.00,92.37
2839.00,92.41
2838.00,92.45
2837.00,92.49
2836.00,92.51
2835.00,92.54
2834.00,92.57
2833.00,92.60
2832.00,92.64
2831.00,92.69
2830.00,92.71
2829.00,92.72
2828.00,92.72
2827.00,92.71
2826.00,92.72
2825.00,92.74
2824.00,92.76
2823.00,92.78
2822.00,92.80
2821.00,92.82
2820.00,92.84
2819.00,92.86
2818.00,92.89
2817.00,92.91
2816.00,92.93
2815.00,92.94
2814.00,92.94
2813.00,92.95
2812.00,92.95
2811.00,92.96
2810.00,92.98
2809.00,93.00
2808.00,93.01
2807.00,93.03
2806.00,93.05
2805.00,93.07
2804.00,93.09
2803.00,93.10
2802.00,93.11
2801.00,93.12
2800.00,93.14
2799.00,93.16
2798.00,93.19
2797.00,93.21
2796.00,93.23
2795.00,93.25
2794.00,93.27
2793.00,93.28
2792.00,93.29
2791.00,93.29
2790.00,93.28
2789.00,93.29
2788.00,93.31
2787.00,93.34
2786.00,93.36
2785.00,93.38
2784.00,93.40
2783.00,93.41
2782.00,93.43
2781.00,93.44
2780.00,93.46
2779.00,93.47
2778.00,93.48
2777.00,93.48
2776.00,93.48
2775.00,93.48
2774.00,93.49
2773.00,93.49
2772.00,93.51
2771.00,93.53
2770.00,93.57
2769.00,93.59
2768.00,93.59
2767.00,93.60
2766.00,93.61
2765.00,93.63
2764.00,93.66
2763.00,93.68
2762.00,93.69
2761.00,93.70
2760.00,93.70
2759.00,93.70
2758.00,93.70
2757.00,93.71
2756.00,93.71
2755.00,93.71
2754.00,93.72
2753.00,93.73
2752.00,93.76
2751.00,93.78
2750.00,93.80
2749.00,93.80
2748.00,93.80
2747.00,93.81
2746.00,93.82
2745.00,93.82
2744.00,93.82
2743.00,93.82
2742.00,93.83
2741.00,93.85
2740.00,93.87
2739.00,93.87
2738.00,93.88
2737.00,93.88
2736.00,93.89
2735.00,93.90
2734.00,93.92
2733.00,93.94
2732.00,93.95
2731.00,93.96
2730.00,93.98
2729.00,93.99
2728.00,94.00
2727.00,94.01
2726.00,94.01
2725.00,94.01
2724.00,94.01
2723.00,94.02
2722.00,94.03
2721.00,94.03
2720.00,94.04
2719.00,94.05
2718.00,94.08
2717.00,94.11
2716.00,94.13
2715.00,94.13
2714.00,94.13
2713.00,94.13
2712.00,94.15
2711.00,94.17
2710.00,94.19
2709.00,94.20
2708.00,94.21
2707.00,94.21
2706.00,94.21
2705.00,94.21
2704.00,94.21
2703.00,94.21
2702.00,94.22
2701.00,94.23
2700.00,94.23
2699.00,94.24
2698.00,94.24
2697.00,94.25
2696.00,94.26
2695.00,94.26
2694.00,94.27
2693.00,94.28
2692.00,94.29
2691.00,94.30
2690.00,94.30
2689.00,94.29
2688.00,94.28
2687.00,94.27
2686.00,94.27
2685.00,94.27
2684.00,94.26
2683.00,94.27
2682.00,94.28
2681.00,94.29
2680.00,94.31
2679.00,94.32
2678.00,94.33
2677.00,94.32
2676.00,94.32
2675.00,94.32
2674.00,94.32
2673.00,94.32
2672.00,94.33
2671.00,94.34
2670.00,94.34
2669.00,94.35
2668.00,94.36
2667.00,94.36
2666.00,94.37
2665.00,94.38
2664.00,94.38
2663.00,94.38
2662.00,94.36
2661.00,94.35
2660.00,94.34
2659.00,94.33
2658.00,94.32
2657.00,94.31
2656.00,94.31
2655.00,94.31
2654.00,94.31
2653.00,94.29
2652.00,94.28
2651.00,94.27
2650.00,94.26
2649.00,94.27
2648.00,94.27
2647.00,94.28
2646.00,94.28
2645.00,94.28
2644.00,94.28
2643.00,94.27
2642.00,94.25
2641.00,94.23
2640.00,94.21
2639.00,94.19
2638.00,94.17
2637.00,94.15
2636.00,94.13
2635.00,94.12
2634.00,94.13
2633.00,94.14
2632.00,94.15
2631.00,94.15
2630.00,94.14
2629.00,94.12
2628.00,94.11
2627.00,94.10
2626.00,94.09
2625.00,94.07
2624.00,94.06
2623.00,94.05
2622.00,94.04
2621.00,94.04
2620.00,94.03
2619.00,94.02
2618.00,94.03
2617.00,94.03
2616.00,94.04
2615.00,94.05
2614.00,94.05
2613.00,94.05
2612.00,94.05
2611.00,94.05
2610.00,94.05
2609.00,94.04
2608.00,94.03
2607.00,94.02
2606.00,94.02
2605.00,94.02
2604.00,94.02
2603.00,94.02
2602.00,94.03
2601.00,94.03
2600.00,94.04
2599.00,94.04
2598.00,94.04
2597.00,94.03
2596.00,94.03
2595.00,94.04
2594.00,94.05
2593.00,94.06
2592.00,94.05
2591.00,94.05
2590.00,94.04
2589.00,94.04
2588.00,94.05
2587.00,94.06
2586.00,94.06
2585.00,94.06
2584.00,94.05
2583.00,94.05
2582.00,94.04
2581.00,94.03
2580.00,94.03
2579.00,94.02
2578.00,94.00
2577.00,93.99
2576.00,93.98
2575.00,93.99
2574.00,94.00
2573.00,94.02
2572.00,94.04
2571.00,94.06
2570.00,94.07
2569.00,94.05
2568.00,94.03
2567.00,94.00
2566.00,93.99
2565.00,94.00
2564.00,94.01
2563.00,94.02
2562.00,94.02
2561.00,94.02
2560.00,94.01
2559.00,94.02
2558.00,94.03
2557.00,94.05
2556.00,94.06
2555.00,94.06
2554.00,94.05
2553.00,94.04
2552.00,94.02
2551.00,94.01
2550.00,93.99
2549.00,93.98
2548.00,93.98
2547.00,94.00
2546.00,94.02
2545.00,94.03
2544.00,94.05
2543.00,94.07
2542.00,94.09
2541.00,94.11
2540.00,94.11
2539.00,94.10
2538.00,94.09
2537.00,94.08
2536.00,94.07
2535.00,94.07
2534.00,94.06
2533.00,94.06
2532.00,94.06
2531.00,94.07
2530.00,94.08
2529.00,94.08
2528.00,94.09
2527.00,94.10
2526.00,94.11
2525.00,94.10
2524.00,94.10
2523.00,94.09
2522.00,94.10
2521.00,94.10
2520.00,94.11
2519.00,94.13
2518.00,94.15
2517.00,94.15
2516.00,94.14
2515.00,94.13
2514.00,94.13
2513.00,94.14
2512.00,94.16
2511.00,94.18
2510.00,94.19
2509.00,94.18
2508.00,94.16
2507.00,94.15
2506.00,94.14
2505.00,94.14
2504.00,94.14
2503.00,94.15
2502.00,94.16
2501.00,94.17
2500.00,94.17
2499.00,94.17
2498.00,94.17
2497.00,94.17
2496.00,94.17
2495.00,94.17
2494.00,94.17
2493.00,94.19
2492.00,94.21
2491.00,94.24
2490.00,94.25
2489.00,94.25
2488.00,94.24
2487.00,94.23
2486.00,94.22
2485.00,94.22
2484.00,94.21
2483.00,94.21
2482.00,94.20
2481.00,94.19
2480.00,94.18
2479.00,94.19
2478.00,94.21
2477.00,94.23
2476.00,94.26
2475.00,94.28
2474.00,94.30
2473.00,94.31
2472.00,94.31
2471.00,94.31
2470.00,94.32
2469.00,94.32
2468.00,94.31
2467.00,94.30
2466.00,94.30
2465.00,94.31
2464.00,94.33
2463.00,94.34
2462.00,94.34
2461.00,94.32
2460.00,94.29
2459.00,94.27
2458.00,94.26
2457.00,94.27
2456.00,94.30
2455.00,94.33
2454.00,94.35
2453.00,94.37
2452.00,94.38
2451.00,94.38
2450.00,94.37
2449.00,94.36
2448.00,94.38
2447.00,94.42
2446.00,94.44
2445.00,94.45
2444.00,94.44
2443.00,94.43
2442.00,94.43
2441.00,94.44
2440.00,94.44
2439.00,94.44
2438.00,94.44
2437.00,94.42
2436.00,94.41
2435.00,94.42
2434.00,94.44
2433.00,94.46
2432.00,94.47
2431.00,94.45
2430.00,94.44
2429.00,94.44
2428.00,94.45
2427.00,94.46
2426.00,94.46
2425.00,94.46
2424.00,94.46
2423.00,94.49
2422.00,94.51
2421.00,94.53
2420.00,94.54
2419.00,94.55
2418.00,94.55
2417.00,94.54
2416.00,94.54
2415.00,94.55
2414.00,94.58
2413.00,94.60
2412.00,94.61
2411.00,94.60
2410.00,94.59
2409.00,94.58
2408.00,94.59
2407.00,94.62
2406.00,94.64
2405.00,94.65
2404.00,94.66
2403.00,94.68
2402.00,94.69
2401.00,94.69
2400.00,94.69
2399.00,94.69
2398.00,94.70
2397.00,94.72
2396.00,94.74
2395.00,94.76
2394.00,94.76
2393.00,94.76
2392.00,94.76
2391.00,94.77
2390.00,94.78
2389.00,94.79
2388.00,94.80
2387.00,94.82
2386.00,94.85
2385.00,94.87
2384.00,94.88
2383.00,94.90
2382.00,94.93
2381.00,94.98
2380.00,95.04
2379.00,95.09
2378.00,95.12
2377.00,95.12
2376.00,95.13
2375.00,95.13
2374.00,95.11
2373.00,95.06
2372.00,95.02
2371.00,95.01
2370.00,95.04
2369.00,95.08
2368.00,95.11
2367.00,95.12
2366.00,95.12
2365.00,95.12
2364.00,95.12
2363.00,95.12
2362.00,95.11
2361.00,95.07
2360.00,95.03
2359.00,94.98
2358.00,94.95
2357.00,94.94
2356.00,94.97
2355.00,95.02
2354.00,95.06
2353.00,95.06
2352.00,95.07
2351.00,95.09
2350.00,95.13
2349.00,95.17
2348.00,95.22
2347.00,95.25
2346.00,95.27
2345.00,95.26
2344.00,95.24
2343.00,95.22
2342.00,95.22
2341.00,95.23
2340.00,95.24
2339.00,95.23
2338.00,95.19
2337.00,95.14
2336.00,95.11
2335.00,95.09
2334.00,95.08
2333.00,95.08
2332.00,95.08
2331.00,95.09
2330.00,95.10
2329.00,95.10
2328.00,95.07
2327.00,95.03
2326.00,94.98
2325.00,94.91
2324.00,94.87
2323.00,94.85
2322.00,94.85
2321.00,94.85
2320.00,94.84
2319.00,94.84
2318.00,94.83
2317.00,94.81
2316.00,94.80
2315.00,94.80
2314.00,94.81
2313.00,94.80
2312.00,94.79
2311.00,94.77
2310.00,94.76
2309.00,94.75
2308.00,94.74
2307.00,94.74
2306.00,94.73
2305.00,94.72
2304.00,94.70
2303.00,94.67
2302.00,94.65
2301.00,94.62
2300.00,94.59
2299.00,94.57
2298.00,94.57
2297.00,94.57
2296.00,94.57
2295.00,94.54
2294.00,94.51
2293.00,94.48
2292.00,94.46
2291.00,94.44
2290.00,94.42
2289.00,94.38
2288.00,94.32
2287.00,94.28
2286.00,94.26
2285.00,94.27
2284.00,94.27
2283.00,94.27
2282.00,94.24
2281.00,94.21
2280.00,94.18
2279.00,94.17
2278.00,94.15
2277.00,94.14
2276.00,94.13
2275.00,94.13
2274.00,94.12
2273.00,94.08
2272.00,94.04
2271.00,94.01
2270.00,93.99
2269.00,93.97
2268.00,93.97
2267.00,93.98
2266.00,94.00
2265.00,94.02
2264.00,94.03
2263.00,94.02
2262.00,94.01
2261.00,94.00
2260.00,93.99
2259.00,93.95
2258.00,93.89
2257.00,93.82
2256.00,93.77
2255.00,93.79
2254.00,93.85
2253.00,93.91
2252.00,93.92
2251.00,93.87
2250.00,93.79
2249.00,93.72
2248.00,93.71
2247.00,93.75
2246.00,93.80
2245.00,93.81
2244.00,93.78
2243.00,93.74
2242.00,93.72
2241.00,93.71
2240.00,93.71
2239.00,93.69
2238.00,93.67
2237.00,93.65
2236.00,93.64
2235.00,93.65
2234.00,93.65
2233.00,93.65
2232.00,93.63
2231.00,93.60
2230.00,93.57
2229.00,93.52
2228.00,93.47
2227.00,93.42
2226.00,93.40
2225.00,93.42
2224.00,93.47
2223.00,93.52
2222.00,93.55
2221.00,93.56
2220.00,93.56
2219.00,93.55
2218.00,93.53
2217.00,93.48
2216.00,93.42
2215.00,93.35
2214.00,93.30
2213.00,93.29
2212.00,93.33
2211.00,93.38
2210.00,93.39
2209.00,93.34
2208.00,93.30
2207.00,93.28
2206.00,93.27
2205.00,93.25
2204.00,93.23
2203.00,93.22
2202.00,93.22
2201.00,93.20
2200.00,93.16
2199.00,93.13
2198.00,93.13
2197.00,93.14
2196.00,93.13
2195.00,93.12
2194.00,93.11
2193.00,93.09
2192.00,93.04
2191.00,92.96
2190.00,92.89
2189.00,92.86
2188.00,92.86
2187.00,92.88
2186.00,92.88
2185.00,92.86
2184.00,92.84
2183.00,92.85
2182.00,92.90
2181.00,92.93
2180.00,92.94
2179.00,92.90
2178.00,92.84
2177.00,92.80
2176.00,92.79
2175.00,92.81
2174.00,92.82
2173.00,92.80
2172.00,92.76
2171.00,92.70
2170.00,92.64
2169.00,92.60
2168.00,92.58
2167.00,92.57
2166.00,92.56
2165.00,92.54
2164.00,92.50
2163.00,92.46
2162.00,92.41
2161.00,92.37
2160.00,92.40
2159.00,92.53
2158.00,92.73
2157.00,92.91
2156.00,93.04
2155.00,93.10
2154.00,93.11
2153.00,93.08
2152.00,93.06
2151.00,93.06
2150.00,93.10
2149.00,93.17
2148.00,93.23
2147.00,93.28
2146.00,93.32
2145.00,93.35
2144.00,93.41
2143.00,93.49
2142.00,93.56
2141.00,93.58
2140.00,93.56
2139.00,93.53
2138.00,93.53
2137.00,93.57
2136.00,93.63
2135.00,93.69
2134.00,93.75
2133.00,93.82
2132.00,93.89
2131.00,93.96
2130.00,94.00
2129.00,94.00
2128.00,93.99
2127.00,93.99
2126.00,93.99
2125.00,94.00
2124.00,94.01
2123.00,94.03
2122.00,94.06
2121.00,94.09
2120.00,94.09
2119.00,94.08
2118.00,94.04
2117.00,94.00
2116.00,93.96
2115.00,93.93
2114.00,93.92
2113.00,93.92
2112.00,93.92
2111.00,93.91
2110.00,93.88
2109.00,93.84
2108.00,93.82
2107.00,93.83
2106.00,93.85
2105.00,93.86
2104.00,93.87
2103.00,93.89
2102.00,93.91
2101.00,93.92
2100.00,93.92
2099.00,93.93
2098.00,93.95
2097.00,93.98
2096.00,94.00
2095.00,94.01
2094.00,94.01
2093.00,94.00
2092.00,93.98
2091.00,93.95
2090.00,93.93
2089.00,93.90
2088.00,93.88
2087.00,93.88
2086.00,93.88
2085.00,93.89
2084.00,93.91
2083.00,93.93
2082.00,93.93
2081.00,93.90
2080.00,93.87
2079.00,93.84
2078.00,93.83
2077.00,93.82
2076.00,93.81
2075.00,93.78
2074.00,93.76
2073.00,93.74
2072.00,93.72
2071.00,93.72
2070.00,93.71
2069.00,93.70
2068.00,93.70
2067.00,93.70
2066.00,93.72
2065.00,93.72
2064.00,93.72
2063.00,93.73
2062.00,93.74
2061.00,93.74
2060.00,93.73
2059.00,93.70
2058.00,93.65
2057.00,93.62
2056.00,93.61
2055.00,93.60
2054.00,93.57
2053.00,93.49
2052.00,93.39
2051.00,93.31
2050.00,93.29
2049.00,93.31
2048.00,93.33
2047.00,93.34
2046.00,93.31
2045.00,93.25
2044.00,93.19
2043.00,93.13
2042.00,93.09
2041.00,93.03
2040.00,92.97
2039.00,92.91
2038.00,92.87
2037.00,92.84
2036.00,92.84
2035.00,92.88
2034.00,92.94
2033.00,92.99
2032.00,92.98
2031.00,92.94
2030.00,92.91
2029.00,92.90
2028.00,92.91
2027.00,92.92
2026.00,92.93
2025.00,92.95
2024.00,92.99
2023.00,93.05
2022.00,93.09
2021.00,93.11
2020.00,93.12
2019.00,93.17
2018.00,93.23
2017.00,93.26
2016.00,93.25
2015.00,93.20
2014.00,93.14
2013.00,93.07
2012.00,93.04
2011.00,93.06
2010.00,93.15
2009.00,93.27
2008.00,93.37
2007.00,93.42
2006.00,93.42
2005.00,93.39
2004.00,93.41
2003.00,93.46
2002.00,93.52
2001.00,93.54
2000.00,93.52
1999.00,93.47
1998.00,93.41
1997.00,93.37
1996.00,93.34
1995.00,93.32
1994.00,93.30
1993.00,93.29
1992.00,93.31
1991.00,93.39
1990.00,93.47
1989.00,93.51
1988.00,93.51
1987.00,93.49
1986.00,93.48
1985.00,93.47
1984.00,93.45
1983.00,93.40
1982.00,93.30
1981.00,93.18
1980.00,93.07
1979.00,93.05
1978.00,93.11
1977.00,93.18
1976.00,93.24
1975.00,93.28
1974.00,93.35
1973.00,93.43
1972.00,93.51
1971.00,93.55
1970.00,93.56
1969.00,93.55
1968.00,93.57
1967.00,93.61
1966.00,93.65
1965.00,93.66
1964.00,93.67
1963.00,93.69
1962.00,93.73
1961.00,93.77
1960.00,93.83
1959.00,93.91
1958.00,93.98
1957.00,94.02
1956.00,94.04
1955.00,94.06
1954.00,94.06
1953.00,94.05
1952.00,94.05
1951.00,94.08
1950.00,94.12
1949.00,94.14
1948.00,94.13
1947.00,94.12
1946.00,94.10
1945.00,94.09
1944.00,94.09
1943.00,94.13
1942.00,94.19
1941.00,94.23
1940.00,94.27
1939.00,94.31
1938.00,94.35
1937.00,94.39
1936.00,94.44
1935.00,94.50
1934.00,94.55
1933.00,94.58
1932.00,94.59
1931.00,94.60
1930.00,94.61
1929.00,94.60
1928.00,94.60
1927.00,94.60
1926.00,94.61
1925.00,94.61
1924.00,94.61
1923.00,94.61
1922.00,94.61
1921.00,94.62
1920.00,94.65
1919.00,94.70
1918.00,94.74
1917.00,94.78
1916.00,94.83
1915.00,94.88
1914.00,94.90
1913.00,94.89
1912.00,94.86
1911.00,94.84
1910.00,94.85
1909.00,94.87
1908.00,94.88
1907.00,94.89
1906.00,94.88
1905.00,94.88
1904.00,94.90
1903.00,94.93
1902.00,94.96
1901.00,94.97
1900.00,94.98
1899.00,95.00
1898.00,95.04
1897.00,95.08
1896.00,95.10
1895.00,95.09
1894.00,95.06
1893.00,95.03
1892.00,95.01
1891.00,95.02
1890.00,95.04
1889.00,95.06
1888.00,95.08
1887.00,95.11
1886.00,95.14
1885.00,95.16
1884.00,95.17
1883.00,95.18
1882.00,95.19
1881.00,95.20
1880.00,95.19
1879.00,95.19
1878.00,95.20
1877.00,95.20
1876.00,95.20
1875.00,95.20
1874.00,95.19
1873.00,95.17
1872.00,95.16
1871.00,95.18
1870.00,95.22
1869.00,95.24
1868.00,95.24
1867.00,95.25
1866.00,95.26
1865.00,95.27
1864.00,95.29
1863.00,95.30
1862.00,95.32
1861.00,95.33
1860.00,95.35
1859.00,95.40
1858.00,95.45
1857.00,95.49
1856.00,95.50
1855.00,95.50
1854.00,95.49
1853.00,95.46
1852.00,95.44
1851.00,95.43
1850.00,95.45
1849.00,95.48
1848.00,95.49
1847.00,95.50
1846.00,95.50
1845.00,95.50
1844.00,95.49
1843.00,95.50
1842.00,95.52
1841.00,95.54
1840.00,95.56
1839.00,95.59
1838.00,95.62
1837.00,95.63
1836.00,95.64
1835.00,95.64
1834.00,95.64
1833.00,95.62
1832.00,95.60
1831.00,95.60
1830.00,95.62
1829.00,95.63
1828.00,95.64
1827.00,95.67
1826.00,95.70
1825.00,95.71
1824.00,95.71
1823.00,95.71
1822.00,95.73
1821.00,95.74
1820.00,95.77
1819.00,95.80
1818.00,95.83
1817.00,95.85
1816.00,95.84
1815.00,95.83
1814.00,95.84
1813.00,95.84
1812.00,95.84
1811.00,95.85
1810.00,95.87
1809.00,95.88
1808.00,95.90
1807.00,95.93
1806.00,95.96
1805.00,95.97
1804.00,95.97
1803.00,95.97
1802.00,95.98
1801.00,95.97
1800.00,95.95
1799.00,95.93
1798.00,95.93
1797.00,95.92
1796.00,95.91
1795.00,95.91
1794.00,95.91
1793.00,95.91
1792.00,95.92
1791.00,95.95
1790.00,95.98
1789.00,95.99
1788.00,95.99
1787.00,96.00
1786.00,96.01
1785.00,96.01
1784.00,96.00
1783.00,95.99
1782.00,95.99
1781.00,95.99
1780.00,95.97
1779.00,95.96
1778.00,95.96
1777.00,95.96
1776.00,95.95
1775.00,95.94
1774.00,95.95
1773.00,95.96
1772.00,95.95
1771.00,95.95
1770.00,95.95
1769.00,95.96
1768.00,95.96
1767.00,95.97
1766.00,95.98
1765.00,95.97
1764.00,95.96
1763.00,95.97
1762.00,95.99
1761.00,95.98
1760.00,95.95
1759.00,95.92
1758.00,95.92
1757.00,95.91
1756.00,95.87
1755.00,95.82
1754.00,95.77
1753.00,95.72
1752.00,95.68
1751.00,95.66
1750.00,95.66
1749.00,95.66
1748.00,95.65
1747.00,95.63
1746.00,95.59
1745.00,95.53
1744.00,95.45
1743.00,95.38
1742.00,95.33
1741.00,95.29
1740.00,95.24
1739.00,95.17
1738.00,95.08
1737.00,94.98
1736.00,94.89
1735.00,94.84
1734.00,94.82
1733.00,94.80
1732.00,94.76
1731.00,94.74
1730.00,94.72
1729.00,94.66
1728.00,94.58
1727.00,94.50
1726.00,94.43
1725.00,94.35
1724.00,94.26
1723.00,94.17
1722.00,94.08
1721.00,93.97
1720.00,93.84
1719.00,93.74
1718.00,93.68
1717.00,93.63
1716.00,93.56
1715.00,93.48
1714.00,93.40
1713.00,93.29
1712.00,93.14
1711.00,93.00
1710.00,92.85
1709.00,92.67
1708.00,92.47
1707.00,92.27
1706.00,92.04
1705.00,91.75
1704.00,91.42
1703.00,91.10
1702.00,90.80
1701.00,90.39
1700.00,89.85
1699.00,89.38
1698.00,89.01
1697.00,88.62
1696.00,88.10
1695.00,87.58
1694.00,87.16
1693.00,86.80
1692.00,86.42
1691.00,86.00
1690.00,85.55
1689.00,85.07
1688.00,84.60
1687.00,84.16
1686.00,83.75
1685.00,83.27
1684.00,82.70
1683.00,82.24
1682.00,81.93
1681.00,81.61
1680.00,81.25
1679.00,80.86
1678.00,80.47
1677.00,80.07
1676.00,79.61
1675.00,79.13
1674.00,78.70
1673.00,78.32
1672.00,77.95
1671.00,77.56
1670.00,77.15
1669.00,76.70
1668.00,76.25
1667.00,75.84
1666.00,75.48
1665.00,75.10
1664.00,74.65
1663.00,74.17
1662.00,73.69
1661.00,73.22
1660.00,72.75
1659.00,72.29
1658.00,71.83
1657.00,71.37
1656.00,70.90
1655.00,70.42
1654.00,69.88
1653.00,69.26
1652.00,68.75
1651.00,68.43
1650.00,68.17
1649.00,67.88
1648.00,67.54
1647.00,67.20
1646.00,66.96
1645.00,66.78
1644.00,66.61
1643.00,66.46
1642.00,66.32
1641.00,66.18
1640.00,66.03
1639.00,65.87
1638.00,65.75
1637.00,65.66
1636.00,65.59
1635.00,65.55
1634.00,65.51
1633.00,65.46
1632.00,65.39
1631.00,65.32
1630.00,65.29
1629.00,65.28
1628.00,65.29
1627.00,65.31
1626.00,65.36
1625.00,65.47
1624.00,65.65
1623.00,65.91
1622.00,66.19
1621.00,66.44
1620.00,66.64
1619.00,66.88
1618.00,67.25
1617.00,67.81
1616.00,68.44
1615.00,68.98
1614.00,69.45
1613.00,69.91
1612.00,70.41
1611.00,70.96
1610.00,71.54
1609.00,72.15
1608.00,72.75
1607.00,73.33
1606.00,73.89
1605.00,74.44
1604.00,74.98
1603.00,75.51
1602.00,76.00
1601.00,76.46
1600.00,76.89
1599.00,77.27
1598.00,77.62
1597.00,77.95
1596.00,78.28
1595.00,78.61
1594.00,78.91
1593.00,79.20
1592.00,79.49
1591.00,79.77
1590.00,80.02
1589.00,80.28
1588.00,80.54
1587.00,80.78
1586.00,80.98
1585.00,81.15
1584.00,81.31
1583.00,81.44
1582.00,81.52
1581.00,81.56
1580.00,81.57
1579.00,81.55
1578.00,81.50
1577.00,81.45
1576.00,81.41
1575.00,81.34
1574.00,81.22
1573.00,81.08
1572.00,80.93
1571.00,80.78
1570.00,80.57
1569.00,80.32
1568.00,80.09
1567.00,79.87
1566.00,79.60
1565.00,79.30
1564.00,78.99
1563.00,78.69
1562.00,78.37
1561.00,78.03
1560.00,77.63
1559.00,77.08
1558.00,76.53
1557.00,76.15
1556.00,75.84
1555.00,75.48
1554.00,75.07
1553.00,74.67
1552.00,74.31
1551.00,73.94
1550.00,73.54
1549.00,73.13
1548.00,72.76
1547.00,72.43
1546.00,72.09
1545.00,71.74
1544.00,71.38
1543.00,71.05
1542.00,70.74
1541.00,70.44
1540.00,70.19
1539.00,70.00
1538.00,69.85
1537.00,69.71
1536.00,69.57
1535.00,69.43
1534.00,69.28
1533.00,69.15
1532.00,69.05
1531.00,68.96
1530.00,68.87
1529.00,68.79
1528.00,68.74
1527.00,68.69
1526.00,68.64
1525.00,68.57
1524.00,68.50
1523.00,68.44
1522.00,68.39
1521.00,68.32
1520.00,68.24
1519.00,68.15
1518.00,68.05
1517.00,67.97
1516.00,67.95
1515.00,67.97
1514.00,68.04
1513.00,68.15
1512.00,68.32
1511.00,68.49
1510.00,68.63
1509.00,68.79
1508.00,69.08
1507.00,69.62
1506.00,70.20
1505.00,70.64
1504.00,70.96
1503.00,71.24
1502.00,71.53
1501.00,71.85
1500.00,72.20
1499.00,72.58
1498.00,73.02
1497.00,73.54
1496.00,74.09
1495.00,74.56
1494.00,74.96
1493.00,75.32
1492.00,75.70
1491.00,76.17
1490.00,76.70
1489.00,77.23
1488.00,77.70
1487.00,78.11
1486.00,78.47
1485.00,78.79
1484.00,79.06
1483.00,79.31
1482.00,79.56
1481.00,79.79
1480.00,79.96
1479.00,80.07
1478.00,80.14
1477.00,80.15
1476.00,80.11
1475.00,80.03
1474.00,79.94
1473.00,79.82
1472.00,79.68
1471.00,79.56
1470.00,79.47
1469.00,79.39
1468.00,79.31
1467.00,79.24
1466.00,79.18
1465.00,79.12
1464.00,79.05
1463.00,78.99
1462.00,78.91
1461.00,78.80
1460.00,78.66
1459.00,78.50
1458.00,78.36
1457.00,78.21
1456.00,78.07
1455.00,77.97
1454.00,77.90
1453.00,77.85
1452.00,77.80
1451.00,77.78
1450.00,77.77
1449.00,77.77
1448.00,77.78
1447.00,77.81
1446.00,77.86
1445.00,77.92
1444.00,77.99
1443.00,78.07
1442.00,78.17
1441.00,78.26
1440.00,78.34
1439.00,78.42
1438.00,78.57
1437.00,78.78
1436.00,79.00
1435.00,79.19
1434.00,79.35
1433.00,79.52
1432.00,79.69
1431.00,79.87
1430.00,80.05
1429.00,80.22
1428.00,80.35
1427.00,80.45
1426.00,80.52
1425.00,80.57
1424.00,80.60
1423.00,80.59
1422.00,80.57
1421.00,80.56
1420.00,80.55
1419.00,80.53
1418.00,80.51
1417.00,80.49
1416.00,80.47
1415.00,80.46
1414.00,80.46
1413.00,80.46
1412.00,80.47
1411.00,80.47
1410.00,80.46
1409.00,80.45
1408.00,80.46
1407.00,80.47
1406.00,80.49
1405.00,80.51
1404.00,80.52
1403.00,80.52
1402.00,80.53
1401.00,80.55
1400.00,80.57
1399.00,80.57
1398.00,80.57
1397.00,80.55
1396.00,80.53
1395.00,80.52
1394.00,80.51
1393.00,80.50
1392.00,80.49
1391.00,80.47
1390.00,80.45
1389.00,80.45
1388.00,80.45
1387.00,80.47
1386.00,80.52
1385.00,80.58
1384.00,80.65
1383.00,80.72
1382.00,80.80
1381.00,80.89
1380.00,80.97
1379.00,81.06
1378.00,81.15
1377.00,81.23
1376.00,81.31
1375.00,81.38
1374.00,81.43
1373.00,81.48
1372.00,81.51
1371.00,81.54
1370.00,81.58
1369.00,81.64
1368.00,81.70
1367.00,81.77
1366.00,81.85
1365.00,81.95
1364.00,82.06
1363.00,82.16
1362.00,82.26
1361.00,82.34
1360.00,82.40
1359.00,82.44
1358.00,82.48
1357.00,82.52
1356.00,82.55
1355.00,82.56
1354.00,82.56
1353.00,82.55
1352.00,82.53
1351.00,82.50
1350.00,82.46
1349.00,82.42
1348.00,82.37
1347.00,82.32
1346.00,82.27
1345.00,82.23
1344.00,82.19
1343.00,82.14
1342.00,82.10
1341.00,82.06
1340.00,82.04
1339.00,82.04
1338.00,82.05
1337.00,82.07
1336.00,82.09
1335.00,82.12
1334.00,82.15
1333.00,82.20
1332.00,82.25
1331.00,82.30
1330.00,82.35
1329.00,82.38
1328.00,82.41
1327.00,82.42
1326.00,82.42
1325.00,82.43
1324.00,82.44
1323.00,82.44
1322.00,82.43
1321.00,82.41
1320.00,82.39
1319.00,82.37
1318.00,82.35
1317.00,82.32
1316.00,82.30
1315.00,82.27
1314.00,82.24
1313.00,82.22
1312.00,82.20
1311.00,82.18
1310.00,82.16
1309.00,82.15
1308.00,82.14
1307.00,82.12
1306.00,82.12
1305.00,82.11
1304.00,82.10
1303.00,82.09
1302.00,82.07
1301.00,82.07
1300.00,82.05
1299.00,82.04
1298.00,82.01
1297.00,81.99
1296.00,81.98
1295.00,81.97
1294.00,81.97
1293.00,81.96
1292.00,81.95
1291.00,81.93
1290.00,81.91
1289.00,81.87
1288.00,81.84
1287.00,81.80
1286.00,81.77
1285.00,81.73
1284.00,81.68
1283.00,81.63
1282.00,81.59
1281.00,81.54
1280.00,81.50
1279.00,81.45
1278.00,81.40
1277.00,81.34
1276.00,81.27
1275.00,81.20
1274.00,81.13
1273.00,81.09
1272.00,81.04
1271.00,81.01
1270.00,80.97
1269.00,80.92
1268.00,80.87
1267.00,80.81
1266.00,80.74
1265.00,80.67
1264.00,80.60
1263.00,80.52
1262.00,80.44
1261.00,80.35
1260.00,80.27
1259.00,80.18
1258.00,80.09
1257.00,80.00
1256.00,79.90
1255.00,79.80
1254.00,79.69
1253.00,79.59
1252.00,79.48
1251.00,79.36
1250.00,79.25
1249.00,79.14
1248.00,79.02
1247.00,78.91
1246.00,78.82
1245.00,78.75
1244.00,78.68
1243.00,78.63
1242.00,78.57
1241.00,78.51
1240.00,78.45
1239.00,78.40
1238.00,78.37
1237.00,78.34
1236.00,78.33
1235.00,78.32
1234.00,78.32
1233.00,78.34
1232.00,78.37
1231.00,78.41
1230.00,78.45
1229.00,78.49
1228.00,78.54
1227.00,78.60
1226.00,78.69
1225.00,78.77
1224.00,78.86
1223.00,78.95
1222.00,79.07
1221.00,79.20
1220.00,79.33
1219.00,79.46
1218.00,79.59
1217.00,79.72
1216.00,79.84
1215.00,79.95
1214.00,80.06
1213.00,80.15
1212.00,80.24
1211.00,80.31
1210.00,80.39
1209.00,80.47
1208.00,80.55
1207.00,80.62
1206.00,80.68
1205.00,80.73
1204.00,80.77
1203.00,80.81
1202.00,80.88
1201.00,80.96
1200.00,81.06
1199.00,81.16
1198.00,81.26
1197.00,81.36
1196.00,81.46
1195.00,81.55
1194.00,81.62
1193.00,81.69
1192.00,81.75
1191.00,81.79
1190.00,81.82
1189.00,81.82
1188.00,81.82
1187.00,81.82
1186.00,81.81
1185.00,81.79
1184.00,81.78
1183.00,81.77
1182.00,81.77
1181.00,81.75
1180.00,81.73
1179.00,81.73
1178.00,81.75
1177.00,81.79
1176.00,81.82
1175.00,81.84
1174.00,81.86
1173.00,81.87
1172.00,81.89
1171.00,81.92
1170.00,81.98
1169.00,82.07
1168.00,82.14
1167.00,82.20
1166.00,82.23
1165.00,82.27
1164.00,82.31
1163.00,82.32
1162.00,82.31
1161.00,82.29
1160.00,82.28
1159.00,82.29
1158.00,82.31
1157.00,82.33
1156.00,82.35
1155.00,82.37
1154.00,82.39
1153.00,82.43
1152.00,82.46
1151.00,82.48
1150.00,82.47
1149.00,82.47
1148.00,82.48
1147.00,82.51
1146.00,82.56
1145.00,82.60
1144.00,82.61
1143.00,82.60
1142.00,82.57
1141.00,82.55
1140.00,82.50
1139.00,82.44
1138.00,82.37
1137.00,82.29
1136.00,82.20
1135.00,82.08
1134.00,81.97
1133.00,81.86
1132.00,81.76
1131.00,81.66
1130.00,81.55
1129.00,81.45
1128.00,81.35
1127.00,81.27
1126.00,81.20
1125.00,81.15
1124.00,81.10
1123.00,81.07
1122.00,81.03
1121.00,80.99
1120.00,80.92
1119.00,80.86
1118.00,80.79
1117.00,80.71
1116.00,80.64
1115.00,80.56
1114.00,80.49
1113.00,80.42
1112.00,80.33
1111.00,80.24
1110.00,80.16
1109.00,80.08
1108.00,79.99
1107.00,79.90
1106.00,79.81
1105.00,79.73
1104.00,79.64
1103.00,79.53
1102.00,79.41
1101.00,79.30
1100.00,79.21
1099.00,79.14
1098.00,79.10
1097.00,79.06
1096.00,79.01
1095.00,78.94
1094.00,78.87
1093.00,78.80
1092.00,78.74
1091.00,78.69
1090.00,78.65
1089.00,78.61
1088.00,78.54
1087.00,78.45
1086.00,78.37
1085.00,78.29
1084.00,78.22
1083.00,78.16
1082.00,78.09
1081.00,78.02
1080.00,77.93
1079.00,77.86
1078.00,77.79
1077.00,77.75
1076.00,77.71
1075.00,77.68
1074.00,77.67
1073.00,77.67
1072.00,77.68
1071.00,77.69
1070.00,77.71
1069.00,77.74
1068.00,77.80
1067.00,77.87
1066.00,77.95
1065.00,78.01
1064.00,78.06
1063.00,78.09
1062.00,78.12
1061.00,78.16
1060.00,78.21
1059.00,78.28
1058.00,78.37
1057.00,78.44
1056.00,78.49
1055.00,78.52
1054.00,78.57
1053.00,78.65
1052.00,78.74
1051.00,78.81
1050.00,78.88
1049.00,78.93
1048.00,78.98
1047.00,79.04
1046.00,79.12
1045.00,79.22
1044.00,79.33
1043.00,79.43
1042.00,79.52
1041.00,79.61
1040.00,79.71
1039.00,79.82
1038.00,79.95
1037.00,80.06
1036.00,80.14
1035.00,80.22
1034.00,80.34
1033.00,80.49
1032.00,80.64
1031.00,80.77
1030.00,80.88
1029.00,80.99
1028.00,81.12
1027.00,81.28
1026.00,81.46
1025.00,81.64
1024.00,81.81
1023.00,81.96
1022.00,82.10
1021.00,82.26
1020.00,82.41
1019.00,82.55
1018.00,82.68
1017.00,82.81
1016.00,82.94
1015.00,83.07
1014.00,83.19
1013.00,83.29
1012.00,83.37
1011.00,83.46
1010.00,83.55
1009.00,83.65
1008.00,83.77
1007.00,83.89
1006.00,84.00
1005.00,84.11
1004.00,84.22
1003.00,84.32
1002.00,84.42
1001.00,84.51
1000.00,84.60
999.00,84.69
998.00,84.77
997.00,84.86
996.00,84.94
995.00,85.03
994.00,85.11
993.00,85.17
992.00,85.23
991.00,85.29
990.00,85.35
989.00,85.41
988.00,85.47
987.00,85.51
986.00,85.54
985.00,85.56
984.00,85.57
983.00,85.56
982.00,85.55
981.00,85.55
980.00,85.56
979.00,85.58
978.00,85.59
977.00,85.60
976.00,85.58
975.00,85.56
974.00,85.55
973.00,85.57
972.00,85.61
971.00,85.65
970.00,85.67
969.00,85.69
968.00,85.73
967.00,85.78
966.00,85.85
965.00,85.94
964.00,86.02
963.00,86.10
962.00,86.16
961.00,86.20
960.00,86.21
959.00,86.21
958.00,86.22
957.00,86.25
956.00,86.28
955.00,86.31
954.00,86.33
953.00,86.34
952.00,86.35
951.00,86.36
950.00,86.36
949.00,86.37
948.00,86.37
947.00,86.39
946.00,86.41
945.00,86.44
944.00,86.46
943.00,86.47
942.00,86.48
941.00,86.47
940.00,86.45
939.00,86.42
938.00,86.39
937.00,86.38
936.00,86.38
935.00,86.39
934.00,86.38
933.00,86.38
932.00,86.37
931.00,86.37
930.00,86.36
929.00,86.35
928.00,86.33
927.00,86.31
926.00,86.28
925.00,86.26
924.00,86.26
923.00,86.28
922.00,86.30
921.00,86.31
920.00,86.33
919.00,86.37
918.00,86.43
917.00,86.50
916.00,86.57
915.00,86.62
914.00,86.65
913.00,86.67
912.00,86.69
911.00,86.71
910.00,86.73
909.00,86.75
908.00,86.76
907.00,86.76
906.00,86.75
905.00,86.73
904.00,86.72
903.00,86.72
902.00,86.74
901.00,86.76
900.00,86.79
899.00,86.80
898.00,86.80
897.00,86.80
896.00,86.81
895.00,86.82
894.00,86.85
893.00,86.86
892.00,86.88
891.00,86.88
890.00,86.87
889.00,86.84
888.00,86.81
887.00,86.79
886.00,86.81
885.00,86.83
884.00,86.84
883.00,86.84
882.00,86.82
881.00,86.79
880.00,86.74
879.00,86.71
878.00,86.71
877.00,86.73
876.00,86.74
875.00,86.75
874.00,86.73
873.00,86.72
872.00,86.71
871.00,86.73
870.00,86.75
869.00,86.76
868.00,86.76
867.00,86.75
866.00,86.77
865.00,86.80
864.00,86.81
863.00,86.79
862.00,86.76
861.00,86.74
860.00,86.73
859.00,86.73
858.00,86.71
857.00,86.66
856.00,86.59
855.00,86.52
854.00,86.47
853.00,86.43
852.00,86.39
851.00,86.36
850.00,86.33
849.00,86.33
848.00,86.33
847.00,86.29
846.00,86.23
845.00,86.17
844.00,86.12
843.00,86.07
842.00,86.00
841.00,85.91
840.00,85.80
839.00,85.71
838.00,85.65
837.00,85.61
836.00,85.55
835.00,85.48
834.00,85.40
833.00,85.32
832.00,85.26
831.00,85.21
830.00,85.17
829.00,85.15
828.00,85.16
827.00,85.18
826.00,85.17
825.00,85.14
824.00,85.09
823.00,85.04
822.00,85.01
821.00,85.01
820.00,85.00
819.00,84.99
818.00,84.95
817.00,84.91
816.00,84.89
815.00,84.88
814.00,84.87
813.00,84.86
812.00,84.83
811.00,84.79
810.00,84.74
809.00,84.67
808.00,84.59
807.00,84.50
806.00,84.42
805.00,84.35
804.00,84.31
803.00,84.28
802.00,84.25
801.00,84.21
800.00,84.17
799.00,84.13
798.00,84.08
797.00,84.02
796.00,83.98
795.00,83.96
794.00,83.96
793.00,83.95
792.00,83.92
791.00,83.85
790.00,83.75
789.00,83.65
788.00,83.55
787.00,83.46
786.00,83.39
785.00,83.35
784.00,83.32
783.00,83.29
782.00,83.23
781.00,83.15
780.00,83.08
779.00,83.02
778.00,82.99
777.00,82.98
776.00,82.97
775.00,82.92
774.00,82.84
773.00,82.73
772.00,82.63
771.00,82.56
770.00,82.50
769.00,82.44
768.00,82.36
767.00,82.26
766.00,82.17
765.00,82.09
764.00,82.04
763.00,81.98
762.00,81.91
761.00,81.80
760.00,81.68
759.00,81.58
758.00,81.51
757.00,81.45
756.00,81.39
755.00,81.30
754.00,81.20
753.00,81.08
752.00,80.96
751.00,80.87
750.00,80.81
749.00,80.75
748.00,80.68
747.00,80.59
746.00,80.51
745.00,80.44
744.00,80.38
743.00,80.33
742.00,80.27
741.00,80.20
740.00,80.13
739.00,80.06
738.00,80.02
737.00,79.99
736.00,79.98
735.00,79.97
734.00,79.96
733.00,79.92
732.00,79.85
731.00,79.75
730.00,79.65
729.00,79.55
728.00,79.46
727.00,79.39
726.00,79.31
725.00,79.24
724.00,79.15
723.00,79.04
722.00,78.88
721.00,78.71
720.00,78.57
719.00,78.48
718.00,78.43
717.00,78.37
716.00,78.29
715.00,78.19
714.00,78.07
713.00,77.94
712.00,77.80
711.00,77.68
710.00,77.57
709.00,77.44
708.00,77.27
707.00,77.08
706.00,76.87
705.00,76.66
704.00,76.47
703.00,76.33
702.00,76.22
701.00,76.12
700.00,76.03
699.00,75.95
698.00,75.88
697.00,75.80
696.00,75.72
695.00,75.65
694.00,75.61
693.00,75.57
692.00,75.53
691.00,75.53
690.00,75.56
689.00,75.56
688.00,75.49
687.00,75.38
686.00,75.26
685.00,75.13
684.00,75.01
683.00,74.89
682.00,74.79
681.00,74.71
680.00,74.65
679.00,74.63
678.00,74.64
677.00,74.64
676.00,74.61
675.00,74.53
674.00,74.41
673.00,74.25
672.00,74.09
671.00,73.95
670.00,73.86
669.00,73.78
668.00,73.63
667.00,73.41
666.00,73.21
665.00,73.08
664.00,73.01
663.00,73.01
662.00,73.03
661.00,72.99
660.00,72.89
659.00,72.77
658.00,72.69
657.00,72.66
656.00,72.64
655.00,72.64
654.00,72.65
653.00,72.62
652.00,72.56
651.00,72.48
650.00,72.39
649.00,72.27
648.00,72.14
647.00,72.06
646.00,72.06
645.00,72.11
644.00,72.13
643.00,72.10
642.00,71.99
641.00,71.82
640.00,71.64
639.00,71.54
638.00,71.53
637.00,71.50
636.00,71.36
635.00,71.15
634.00,70.96
633.00,70.83
632.00,70.75
631.00,70.74
630.00,70.78
629.00,70.78
628.00,70.66
627.00,70.45
626.00,70.23
625.00,70.05
624.00,69.96
623.00,70.03
622.00,70.18
621.00,70.19
620.00,69.94
619.00,69.58
618.00,69.35
617.00,69.29
616.00,69.30
615.00,69.27
614.00,69.17
613.00,68.94
612.00,68.67
611.00,68.54
610.00,68.66
609.00,68.87
608.00,68.93
607.00,68.81
606.00,68.58
605.00,68.32
604.00,68.07
603.00,67.86
602.00,67.70
601.00,67.56
600.00,67.54
599.00,67.71
598.00,67.95
597.00,68.03
596.00,67.88
595.00,67.72
594.00,67.71
593.00,67.78
592.00,67.79
591.00,67.77
590.00,67.79
589.00,67.73
588.00,67.53
587.00,67.36
586.00,67.37
585.00,67.50
584.00,67.56
583.00,67.59
582.00,67.66
581.00,67.72
580.00,67.59
579.00,67.31
578.00,66.99
577.00,66.68
576.00,66.45
575.00,66.44
574.00,66.66
573.00,66.91
572.00,67.03
571.00,67.03
570.00,66.88
569.00,66.42
568.00,65.79
567.00,65.42
566.00,65.54
565.00,65.90
564.00,66.24
563.00,66.67
562.00,67.25
561.00,67.77
560.00,67.92
559.00,67.52
558.00,66.67
557.00,65.69
556.00,65.09
555.00,65.32
554.00,66.26
553.00,67.19
552.00,67.66
551.00,67.72
550.00,67.62
